timestamp,emg1,emg2,emg3,emg4,emg5,emg6,emg7,emg8
1528885137979785,-1,-2,-3,-1,-1,1,-3,0
1528885137979785,0,0,-1,-1,-1,-1,-1,-1
1528885137987764,-2,-2,-2,-2,0,-1,-2,-1
1528885137987764,0,-1,1,-1,-3,0,-1,0
1528885137995742,-1,0,0,0,0,0,0,0
1528885137995742,0,-3,-3,-2,-1,0,-1,0
1528885138002724,-1,-1,0,-1,-1,-1,-2,-1
1528885138002724,-1,-1,-1,-1,0,-2,-1,-2
1528885138013696,-2,0,-3,-2,0,0,0,0
1528885138013696,-1,-1,-2,-2,-1,-2,-1,-2
1528885138024678,-1,0,-2,0,-1,0,0,0
1528885138024678,-1,-1,-2,-1,-1,0,0,-1
1528885138032644,1,-1,2,-1,-2,-4,0,-2
1528885138032644,-1,-1,-1,-2,-1,-1,0,-1
1528885138047622,-2,-2,-1,-1,-2,0,-1,-1
1528885138047622,-1,0,0,0,-1,-1,-1,-1
1528885138057577,0,-1,-1,0,-2,-1,-1,-1
1528885138057577,-3,0,-1,0,-2,-1,-1,-2
1528885138070561,2,0,-3,-1,-3,-1,-1,-1
1528885138070561,-2,0,-2,-1,0,-2,-1,-1
1528885138077524,-1,-2,0,-2,-1,0,-1,-1
1528885138077524,-1,0,0,0,-2,-1,-1,-1
1528885138093481,0,0,0,-1,-1,-2,-1,-1
1528885138093481,-2,-1,-1,0,1,0,-1,0
1528885138100509,0,-3,-3,-1,-1,-1,-2,-2
1528885138100509,-1,-3,-1,0,-1,0,-1,0
1528885138109438,-1,-1,-1,-3,-1,0,-1,-2
1528885138109438,-1,-2,0,-1,0,-2,-2,-1
1528885138115454,-1,1,-2,-1,-1,-1,1,-1
1528885138115454,-1,-2,-2,-1,0,-2,0,-1
1528885138130383,-2,-1,0,0,-2,-2,-1,-1
1528885138130383,0,-1,-2,-2,-1,-3,-1,-1
1528885138137364,-2,-6,-9,-1,-1,-1,-3,-1
1528885138137364,0,11,8,0,0,-1,-1,-1
1528885138154319,-3,-16,-6,-2,-2,-1,-1,-2
1528885138154319,-1,1,-1,-4,-4,-3,-1,-1
1528885138160303,0,16,6,-1,-4,-3,-1,-1
1528885138160303,-3,-7,3,-6,-4,-1,-2,-4
1528885138167322,4,-12,-6,13,12,5,6,3
1528885138167322,-3,22,30,-2,-9,-3,-2,-1
1528885138175263,2,-8,-8,-1,3,-2,-1,0
1528885138175263,-3,-5,-16,0,-2,-1,-1,0
1528885138190268,0,-3,-4,-9,-7,-4,-3,0
1528885138190268,2,-9,-9,3,1,1,2,1
1528885138199226,0,8,5,6,7,1,1,-1
1528885138199226,2,9,6,11,6,2,0,-1
1528885138212164,-1,17,4,0,-5,-5,-5,-4
1528885138212164,-1,-11,-4,-4,-13,-4,1,0
1528885138220143,-2,-9,-2,-7,3,2,1,-1
1528885138220143,2,5,-5,-2,-11,1,0,0
1528885138235141,-1,2,6,-2,10,-1,0,-2
1528885138235141,0,0,-22,-23,-14,1,-1,-2
1528885138243080,-3,-8,-2,31,28,6,0,-2
1528885138243080,1,11,9,-4,-3,-10,-5,-1
1528885138265023,-1,5,-2,10,9,12,4,0
1528885138265023,2,15,15,2,-14,-9,-2,1
1528885138273000,-2,-20,-44,-4,9,0,-2,0
1528885138273000,-2,-1,31,-7,4,8,-1,-2
1528885138279983,-1,-3,6,-7,-11,-8,-3,-1
1528885138279983,-1,-2,-19,-1,-12,-4,-1,-1
1528885138287960,0,5,9,-4,-6,-3,0,-1
1528885138287960,-1,0,15,1,7,-1,1,0
1528885138294941,-3,-14,-21,-8,2,-1,-3,-1
1528885138294941,-1,-3,9,-3,-13,-14,-7,-2
1528885138309902,-1,-6,5,10,7,7,3,1
1528885138309902,-1,12,2,-2,3,10,0,-3
1528885138317883,1,1,5,-4,-2,-6,0,-1
1528885138317883,-1,-4,-6,5,8,2,0,0
1528885138339832,-1,-1,8,18,6,7,-1,-1
1528885138339832,-1,-7,-17,-4,-7,-7,-2,-1
1528885138347832,-1,3,0,-20,-20,-12,-6,-3
1528885138347832,-2,-3,2,-5,2,-1,0,-2
1528885138354783,1,3,-3,-14,-11,-4,-2,-2
1528885138354783,-2,2,5,11,-2,2,1,0
1528885138362800,1,0,4,22,2,1,0,2
1528885138362800,-2,-7,-6,-14,11,-1,-2,-2
1528885138377721,2,5,8,-13,-13,-5,-5,-1
1528885138377721,-2,0,-10,7,5,-1,1,-1
1528885138392681,0,1,0,-10,-14,-12,-4,-1
1528885138392681,-2,-5,0,2,-5,-11,-2,-2
1528885138399662,0,10,-8,1,-27,-12,-3,-3
1528885138399662,-3,-5,1,-4,11,3,0,-2
1528885138407642,-5,-1,2,9,21,10,4,-2
1528885138407642,1,-3,-5,1,-5,-2,-5,1
1528885138414653,-3,-3,-8,-5,-5,-4,-4,-4
1528885138414653,-1,2,-1,-19,-25,-8,-6,0
1528885138429618,-3,1,-4,-9,-1,-10,-6,-4
1528885138429618,2,-4,-5,20,20,12,3,3
1528885138437595,-1,0,7,7,-4,0,3,0
1528885138437595,0,-2,-10,-9,11,6,-1,0
1528885138452523,-2,-6,1,5,2,0,-1,-1
1528885138452523,-3,-4,-4,-5,-18,-8,-5,-2
1528885138460499,1,1,-4,-4,10,-9,-1,0
1528885138460499,0,3,5,11,6,6,0,0
1528885138467481,0,4,6,-2,-8,1,0,0
1528885138467481,1,-1,-6,-8,-13,-6,-1,1
1528885138475465,0,1,8,14,8,0,-5,-3
1528885138475465,-1,-2,-14,-22,0,-2,-1,-2
1528885138490423,2,2,-23,12,14,6,0,1
1528885138490423,-3,-3,27,-9,-13,-9,-5,-3
1528885138497401,-2,-1,2,1,1,-2,-1,-3
1528885138497401,-2,1,7,9,8,3,0,-2
1528885138512361,-2,-4,-9,-13,-13,-5,-2,-3
1528885138512361,-2,-3,-18,-8,5,-2,-1,-2
1528885138520345,0,0,4,2,1,4,-1,0
1528885138520345,-1,-3,-3,5,-4,-2,-2,-2
1528885138527349,-1,1,7,-1,-7,-3,3,-1
1528885138527349,-2,-2,0,2,1,0,2,-1
1528885138535300,-2,-5,4,-4,9,3,-1,0
1528885138535300,1,2,4,16,8,2,0,1
1528885138550299,-2,-3,-14,-2,-3,-1,0,-1
1528885138550299,-3,-6,-20,1,-9,-1,-3,-2
1528885138557241,-2,-6,-13,-12,4,-2,-2,0
1528885138557241,1,-1,14,5,-9,-4,0,1
1528885138572239,-2,2,13,2,5,2,2,-1
1528885138572239,0,3,-4,-5,5,3,1,0
1528885138580206,0,-2,18,-2,-4,0,-3,-3
1528885138580206,-1,-3,0,3,-9,-2,0,-2
1528885138587187,0,0,4,1,8,3,3,-1
1528885138587187,1,0,-9,-5,-2,0,-2,-1
1528885138595176,-1,1,6,7,3,2,2,-1
1528885138595176,-2,-2,-7,-1,-1,0,-1,-2
1528885138617081,0,1,13,-1,-4,-4,-4,-4
1528885138617081,-1,-2,22,10,9,-1,-1,-1
1528885138625066,-2,-4,-55,-10,-6,-2,0,-1
1528885138625066,2,2,8,-3,2,2,-1,0
1528885138640021,-5,-1,-2,7,4,-1,-1,-1
1528885138640021,-1,-2,3,-1,-2,-1,0,-1
1528885138647999,3,4,18,3,-3,0,-2,-3
1528885138647999,-4,-4,-27,-10,-4,-3,-1,-1
1528885138654980,3,2,5,-3,-5,-4,-2,1
1528885138654980,0,-5,-4,-2,1,1,1,-2
1528885138662960,-7,2,13,5,5,0,2,-1
1528885138662960,-2,-6,-13,-2,-4,-2,-4,-1
1528885138669940,-2,-1,11,-6,-4,-2,-2,-3
1528885138669940,2,7,-16,-4,-3,0,0,-2
1528885138677926,-3,-4,5,3,7,0,1,2
1528885138677926,3,0,3,-10,-6,-2,-1,-3
1528885138692889,-2,1,-5,13,-1,1,-2,-1
1528885138692889,-5,-6,-5,1,2,-1,-2,-1
1528885138699860,2,2,-5,-4,-5,-2,-3,1
1528885138699860,10,7,15,12,-1,0,-1,1
1528885138707840,-6,-35,-18,-14,2,-1,-2,-3
1528885138707840,-6,5,2,-7,-4,-5,0,-4
1528885138722799,1,-4,-9,-8,-6,-2,-1,-1
1528885138722799,-2,10,15,5,8,2,0,0
1528885138729815,1,4,2,-4,-6,0,-1,-1
1528885138729815,1,-11,5,9,4,0,0,-1
1528885138737758,4,-5,4,-1,-2,-2,-2,-2
1528885138737758,-2,6,-13,-4,-5,-5,-3,-4
1528885138752719,0,-2,7,-2,-3,0,1,-1
1528885138752719,1,7,-14,1,1,-2,-1,0
1528885138759701,-1,-6,17,0,-5,-4,-2,-2
1528885138759701,-1,11,1,2,1,-1,1,0
1528885138767679,-1,3,-11,-4,-11,-2,-1,-1
1528885138767679,-1,0,7,-4,2,0,-1,-2
1528885138774674,-1,-5,-1,3,4,2,2,-1
1528885138774674,-4,-10,-8,0,-6,-4,-2,-1
1528885138789620,-2,5,10,6,3,0,0,-1
1528885138789620,4,5,19,3,1,6,1,1
1528885138797599,0,-5,-24,5,20,3,2,0
1528885138797599,-9,20,19,-2,-1,1,-2,-5
1528885138812559,10,3,-10,-11,-6,-4,-4,2
1528885138812559,2,-1,-13,-9,-13,-10,-3,1
1528885138820538,-1,10,18,1,-4,-1,-1,-1
1528885138820538,-11,-15,-3,1,4,3,3,-2
1528885138827533,0,-4,-30,1,8,0,-1,-1
1528885138827533,-1,-3,-5,-14,-4,4,-1,0
1528885138835497,2,12,-4,2,-3,-2,-2,0
1528885138835497,1,-8,-2,-8,2,-4,-1,2
1528885138850457,16,0,18,9,0,-1,0,-1
1528885138850457,-26,-9,-28,-5,8,5,3,-2
1528885138857440,-3,-3,-2,1,9,7,1,-1
1528885138857440,-1,-1,-6,0,-5,-7,-2,-2
1528885138872399,-1,7,4,7,9,-2,-2,-1
1528885138872399,1,-7,-2,-4,-5,3,3,1
1528885138880378,-1,-3,1,5,-2,0,0,-2
1528885138880378,1,1,-3,-8,-7,-1,-1,0
1528885138895338,-6,1,0,-8,-11,-5,-1,-1
1528885138895338,4,2,7,2,-1,-3,-4,-3
1528885138902330,5,2,-5,-8,-6,-2,0,-1
1528885138902330,16,2,-2,1,2,-1,0,4
1528885138917279,-17,-11,0,-5,-8,-6,-1,-2
1528885138917279,-27,4,-5,0,-3,-6,-8,-11
1528885138925258,-5,-21,-3,-2,-7,-4,-1,-2
1528885138925258,13,-4,-6,-4,2,9,3,-4
1528885138940218,5,3,6,3,5,4,-1,7
1528885138940218,8,8,3,1,1,-1,-2,3
1528885138948213,-9,2,14,1,-5,3,1,-5
1528885138948213,6,-5,-10,3,4,-9,-3,5
1528885138955181,-2,0,-30,-7,-5,-3,-1,-3
1528885138955181,-2,-4,3,5,4,1,-2,1
1528885138970443,0,-1,-4,-3,2,-1,-1,-1
1528885138970443,6,3,5,-1,-7,-1,-1,-1
1528885138977377,0,-3,6,-7,-12,-5,-5,-1
1528885138977377,-5,3,-4,1,5,9,5,1
1528885138993335,-4,-5,-6,0,9,-2,-4,-5
1528885138993335,5,7,11,-5,-11,-5,-2,-2
1528885139000587,0,-5,-9,-2,1,6,0,1
1528885139000587,-3,7,8,7,3,-3,-2,-4
1528885139007559,-4,-14,-16,-6,-11,-3,0,-1
1528885139007559,2,-4,12,6,15,-1,2,0
1528885139015756,2,2,1,2,15,2,-1,0
1528885139015756,-2,-10,-22,-12,-19,-9,-4,-2
1528885139030496,2,10,9,5,17,4,1,0
1528885139030496,-1,-4,10,-3,-9,2,-2,-2
1528885139045723,1,5,-35,2,-5,-1,1,0
1528885139045723,-3,-5,26,4,-1,-1,0,0
1528885139052763,5,15,15,0,-11,-7,-2,1
1528885139052763,-2,-14,-16,-20,-6,1,-1,-3
1528885139068201,-1,-1,-15,-17,-15,-3,-3,-3
1528885139068201,-2,-7,10,0,-10,-5,-3,-2
1528885139083099,2,2,1,9,-2,-5,-2,-1
1528885139083099,-3,-13,-4,-7,5,-3,1,1
1528885139090850,-2,-9,10,10,8,5,2,0
1528885139090850,0,43,6,1,1,1,-1,-1
1528885139105953,1,6,-9,-10,-6,-4,-3,-1
1528885139105953,-3,-6,-4,-4,-3,-2,-2,-1
1528885139112974,1,10,10,1,0,-1,0,0
1528885139112974,-1,-12,-20,2,1,0,1,0
1528885139127673,-4,-9,-4,1,-4,-1,-1,-2
1528885139127673,6,0,7,7,1,1,0,-1
1528885139142691,-6,-4,-42,-15,-2,0,0,-1
1528885139142691,-2,-13,-5,-1,-2,-1,-2,-3
1528885139149614,-2,-2,-4,1,-4,-2,-2,-1
1528885139149614,4,-3,0,6,5,1,0,0
1528885139164819,1,43,41,6,4,1,1,-1
1528885139164819,-3,-31,-17,-5,-4,-1,-1,-3
1528885139172816,-3,5,2,-7,-5,-5,-3,-2
1528885139172816,-2,-19,2,3,2,-2,-1,-2
1528885139187910,-3,-6,-3,0,1,1,0,-3
1528885139187910,-2,-10,4,-3,-1,0,-1,0
1528885139203030,-4,-15,10,7,1,0,-1,-5
1528885139203030,-4,-3,1,-9,-6,-3,-3,2
1528885139210825,1,-2,-3,-4,-1,-2,0,0
1528885139210825,4,9,-7,-3,-2,-2,-2,-1
1528885139225041,6,-10,10,-1,1,-2,0,3
1528885139225041,-5,-3,11,1,-1,-1,-2,-3
1528885139233017,-2,0,-5,-1,-1,0,-2,-2
1528885139233017,-3,0,-15,-3,-3,-5,-2,-1
1528885139247743,-5,-4,-3,-2,-1,-1,-2,-1
1528885139247743,2,5,13,-2,-2,1,-1,-1
1528885139262375,0,-8,8,-1,-1,-2,-1,-1
1528885139262375,2,14,-39,-2,-4,-3,-1,1
1528885139270357,-4,-1,7,2,-4,-1,0,0
1528885139270357,-3,-61,-46,-3,5,0,-3,-4
1528885139285353,-11,12,5,-8,-4,-1,0,-2
1528885139285353,-7,-6,16,-1,-1,-2,-2,-3
1528885139292777,0,8,-12,3,10,1,-1,0
1528885139292777,0,0,6,0,-2,-1,0,1
1528885139307979,-3,-13,8,-3,-4,-5,-3,-1
1528885139307979,12,-3,-24,-2,-7,-4,0,1
1528885139315299,6,12,22,13,9,4,2,4
1528885139315299,-13,10,-3,-2,3,-1,-2,-4
1528885139330215,-8,-8,-2,-14,-7,1,-3,-5
1528885139330215,-14,6,13,-4,-6,-2,0,-2
1528885139337158,9,0,-2,-5,-5,0,2,3
1528885139337158,12,5,2,2,0,0,0,2
1528885139352118,1,0,7,-3,-13,-10,-5,-1
1528885139352118,-2,8,-11,-3,5,-2,-1,-1
1528885139367547,-3,-12,-17,-8,-7,-7,-4,-1
1528885139367547,-7,-7,3,-5,-3,7,3,-2
1528885139374535,2,1,26,26,38,14,6,1
1528885139374535,-3,11,-44,-7,-3,1,0,-2
1528885139390739,30,16,20,8,-2,-6,-1,5
1528885139390739,26,13,-7,-3,-6,-5,2,5
1528885139397471,-47,-43,-18,-19,-21,-11,-7,-7
1528885139397471,-19,-7,4,-2,-6,1,-2,-3
1528885139412651,13,8,-3,-3,-8,-3,-2,-1
1528885139412651,1,0,-13,-2,-3,-5,-3,-1
1528885139427950,-7,-4,-3,-2,-3,1,-2,-2
1528885139427950,-1,7,10,7,5,-1,-2,-3
1528885139434668,-2,-3,-15,-6,-4,0,-1,-2
1528885139434668,3,-6,0,-17,-6,-3,0,3
1528885139450302,1,1,-5,30,4,-9,-1,-3
1528885139450302,-5,-6,-3,-6,14,6,-1,-2
1528885139457440,0,-5,-16,-5,-3,5,0,-4
1528885139457440,14,16,29,8,3,-3,-2,0
1528885139473339,0,-24,-34,-13,2,2,0,-2
1528885139473339,0,-1,49,5,-4,6,3,-1
1528885139487849,-2,0,-38,-19,-10,-5,-3,-4
1528885139487849,-2,11,7,6,-2,-1,1,-1
1528885139495773,5,-6,7,-2,-2,-2,-2,-3
1528885139495773,3,15,-9,-2,-12,-8,-4,-2
1528885139510759,-6,-11,14,4,13,5,1,1
1528885139510759,-8,-4,-8,-4,-5,-1,-2,0
1528885139517784,6,2,21,-2,-7,-1,0,0
1528885139517784,-2,-11,-31,0,5,-1,1,2
1528885139533052,1,7,8,1,9,4,1,0
1528885139533052,-1,1,-10,4,-2,1,-1,-1
1528885139547967,4,-19,3,-1,0,-1,0,0
1528885139547967,1,-1,-1,-10,-9,-3,-2,-1
1528885139555447,3,16,-7,0,-7,-6,-2,0
1528885139555447,1,14,2,-5,-3,-2,-1,-1
1528885139570413,-6,-30,-7,-3,4,-1,-3,0
1528885139570413,-1,-9,-15,-1,1,-2,1,-2
1528885139578374,2,16,2,0,-6,-4,-3,-3
1528885139578374,-1,-6,3,3,3,0,1,-3
1528885139593282,-3,2,-1,11,10,2,0,-2
1528885139593282,-3,-8,3,-5,1,1,0,-2
1528885139607633,-1,15,6,2,1,0,-1,-3
1528885139607633,0,-16,2,-3,1,-2,-3,-1
1528885139615992,-2,3,-5,-6,-4,-1,-2,-2
1528885139615992,-2,-3,29,1,-9,-5,-4,0
1528885139630645,1,4,-6,6,5,4,2,-1
1528885139630645,-1,4,2,-2,-1,2,-2,0
1528885139637951,1,-4,-11,-1,-6,-4,-2,-1
1528885139637951,-4,-3,-6,1,3,-1,-2,-1
1528885139653195,0,-3,-7,-1,6,0,-1,-2
1528885139653195,0,2,-5,-1,0,3,-1,1
1528885139667159,1,-1,13,1,1,-1,-1,0
1528885139667159,-4,-2,-11,3,-6,-6,-4,-2
1528885139675139,-1,-2,-6,-6,-3,-2,-1,1
1528885139675139,1,-2,8,0,6,5,2,1
1528885139690347,1,1,-8,0,-2,-2,-1,0
1528885139690347,-2,0,-1,-6,-9,-1,-1,-4
1528885139698217,-1,2,-1,4,-1,-6,0,0
1528885139698217,-2,-3,0,2,3,-4,-1,0
1528885139713040,-1,0,8,-1,-13,-4,-2,-1
1528885139713040,-5,-7,-12,-11,-4,-4,0,-4
1528885139735311,-1,-4,5,2,0,-6,-4,0
1528885139735311,0,1,-2,-2,-1,-5,-1,1
1528885139742960,-2,-1,0,-2,-1,5,0,-2
1528885139742960,1,-2,-1,2,-1,0,0,1
1528885139757383,-4,-3,0,-1,-2,-4,-2,-3
1528885139757383,0,1,0,4,-1,2,-1,-2
1528885139765523,-1,-3,-5,-1,2,-2,-2,-1
1528885139765523,2,2,-7,-17,-7,-2,-1,-1
1528885139780615,-2,4,7,9,-5,-6,-3,-1
1528885139780615,-1,-8,5,-5,0,1,-1,-1
1528885139795566,0,0,-3,-3,-1,-2,-1,-1
1528885139795566,-1,0,3,10,2,2,0,1
1528885139810920,-3,0,-12,-5,-3,-2,1,-1
1528885139810920,0,-4,2,0,0,-3,-2,-1
1528885139818342,-4,-6,-13,1,2,2,1,-2
1528885139818342,-2,3,1,4,0,-2,-2,-1
1528885139833350,-1,1,3,-3,2,0,-1,0
1528885139833350,-2,-3,-7,0,-2,-3,-2,-3
1528885139848362,1,3,3,3,6,-1,-1,-2
1528885139848362,-4,-2,-6,-4,-6,1,2,-2
1528885139855512,-2,-3,4,0,1,0,0,-1
1528885139855512,-2,1,0,2,-5,-2,-2,-1
1528885139870209,-2,1,-1,-6,-2,-3,-1,0
1528885139870209,0,-1,5,4,1,-2,-1,0
1528885139878329,0,2,-20,-7,-5,-2,-2,-1
1528885139878329,0,-1,10,1,-2,1,-1,-3
1528885139892442,-1,0,-12,-3,0,-2,-1,-1
1528885139892442,-1,0,26,3,0,-1,0,-1
1528885139907930,-2,-3,-5,-3,-2,-1,0,0
1528885139907930,1,2,18,5,0,-2,-1,0
1528885139914908,1,-5,-33,-10,-4,-1,1,0
1528885139914908,-1,-3,-10,1,2,3,1,-1
1528885139929903,-1,-5,1,2,-2,-3,-1,-2
1528885139929903,-2,0,5,-4,0,-2,-1,-1
1528885139937882,0,-1,20,1,-2,-2,-1,-2
1528885139937882,-3,2,-4,-3,-5,1,-1,-1
1528885139952809,0,-3,-10,-6,0,-3,-3,-2
1528885139952809,-3,0,-1,4,4,1,0,1
1528885139967768,-1,1,2,3,-1,0,0,0
1528885139967768,0,0,-8,-3,-4,-3,-3,-2
1528885139974750,-2,-2,9,0,-3,-1,-1,0
1528885139974750,-3,-4,-2,-1,-1,-2,-1,-3
1528885139989745,-3,-1,-3,-2,-4,-2,-2,-2
1528885139989745,-1,-2,-3,0,0,-2,-3,-1
1528885139997744,-1,3,8,2,-5,6,3,2
1528885139997744,0,1,-6,1,9,0,1,0
1528885140012649,1,-2,2,0,2,4,1,1
1528885140012649,-3,-2,-7,-1,-2,-2,-2,-2
1528885140019629,1,-3,2,-5,-4,-5,-4,-1
1528885140019629,2,0,-9,-3,-7,-5,-3,-1
1528885140035587,-2,-2,2,4,2,2,1,0
1528885140035587,2,-1,-6,-4,-4,-3,-2,-1
1528885140050557,-3,-5,3,0,2,-3,-2,0
1528885140050557,-2,-2,-2,3,6,1,0,-2
1528885140057537,-2,-1,3,0,3,2,0,0
1528885140057537,0,-1,-3,-1,-2,-3,-1,-1
1528885140072490,3,2,-3,-2,-6,-5,-1,-1
1528885140072490,-1,-1,-2,0,-1,0,1,-1
1528885140080500,-3,0,6,1,0,1,0,0
1528885140080500,-3,-3,-7,-7,-4,-2,-2,-1
1528885140095426,-1,-1,0,-4,-4,-4,-3,-1
1528885140095426,0,1,3,4,5,1,2,0
1528885140110387,2,0,1,0,-1,1,0,-1
1528885140110387,-1,1,-1,-1,-3,0,-1,-1
1528885140117368,0,0,2,6,1,-2,-3,-1
1528885140117368,-2,-1,-2,-4,-4,-2,-2,0
1528885140132329,-1,-1,-4,-3,-1,-2,0,0
1528885140132329,0,0,0,-1,0,1,-1,-1
1528885140140307,-1,3,-1,-2,-3,-3,1,-1
1528885140140307,2,-1,-1,2,1,0,-1,-2
1528885140155267,-2,-2,-1,-1,0,-2,-1,-2
1528885140155267,0,-1,-2,-1,0,1,-1,-1
1528885140170227,0,0,0,1,3,1,2,0
1528885140170227,-2,-2,0,0,0,-3,0,-1
1528885140177209,-1,-1,-3,-3,-3,-4,-3,-1
1528885140177209,-3,-1,0,0,-3,-2,1,-1
1528885140192169,-2,-5,-2,-1,-1,0,-2,-2
1528885140192169,-2,-4,-2,0,0,1,1,-2
1528885140200147,-5,-2,-1,-1,0,2,0,0
1528885140200147,-2,-3,-1,-3,-3,-1,-2,-2
1528885140215107,1,1,-3,-1,-2,-3,0,-2
1528885140215107,-2,-1,-1,-3,-3,-2,-1,0
1528885140230067,-2,-2,-2,-2,0,1,-1,-1
1528885140230067,-1,-1,-2,0,-5,-3,-1,-1
1528885140238046,5,1,-1,-2,-2,-4,-2,-1
1528885140238046,-2,-2,-2,0,1,-2,-2,1
1528885140253006,2,1,-2,-4,-3,-3,-1,-1
1528885140253006,1,-1,-1,-3,-2,0,0,1
1528885140259988,-2,-7,-1,-2,0,-1,-1,0
1528885140259988,0,0,-1,-1,-2,-1,0,-1
1528885140274948,-7,-4,1,0,1,1,1,-2
1528885140274948,0,-1,-1,0,0,-2,1,-2
1528885140290183,-2,-1,0,0,0,-1,-2,-2
1528885140290183,-1,-2,-1,-1,0,0,-1,0
1528885140297886,1,0,-2,-2,-1,0,-2,-1
1528885140297886,-2,-1,0,0,-1,-2,0,-1
1528885140313117,-1,-1,-1,0,-3,-2,1,0
1528885140313117,-1,-3,-1,-1,-2,-1,-2,-1
1528885140320828,-1,-1,-1,0,0,-1,-1,-2
1528885140320828,1,0,0,0,-2,-1,0,-1
1528885140334789,-1,-2,-1,-1,-3,0,0,-1
1528885140334789,-1,0,-1,-1,-1,-1,0,-2
1528885140349750,-2,-1,-1,0,-1,-2,-3,-1
1528885140349750,-1,-3,0,0,0,-1,-1,-1
1528885140357727,3,2,-5,-3,0,1,-1,-1
1528885140357727,-1,1,-1,-2,-1,0,-2,-2
1528885140372908,-2,-4,0,-2,-2,0,-1,-1
1528885140372908,-4,0,0,0,-1,-2,0,-2
1528885140380770,-1,0,-3,1,-4,0,-2,0
1528885140380770,-2,-2,-2,2,-1,0,0,-1
1528885140395320,3,1,0,-2,0,-2,-1,-1
1528885140395320,-2,-1,-2,0,-2,0,-1,-2
1528885140410632,0,-1,-1,-2,-1,0,-2,-1
1528885140410632,-1,-1,-1,0,-1,1,-1,-3
1528885140418082,-2,-1,1,0,2,-1,0,-2
1528885140418082,-1,-1,0,0,0,-1,-3,0
1528885140432910,-1,1,-3,-2,-1,-1,-1,0
1528885140432910,0,0,-1,-2,-2,1,-1,-1
1528885140440674,-3,-3,0,1,-2,0,0,-1
1528885140440674,-1,-3,-1,-3,-1,-1,-1,-2
1528885140455254,0,9,0,-1,-2,2,0,0
1528885140455254,-2,-1,-1,-1,-2,-1,-1,-2
1528885140470217,2,1,-2,-1,-2,-2,0,-2
1528885140470217,-4,4,1,2,1,-2,-1,0
1528885140477904,-2,-3,0,0,-3,-1,0,-1
1528885140477904,-2,0,0,-1,-1,-1,-1,0
1528885140493379,-1,2,1,-2,-1,-1,-2,-2
1528885140493379,0,-9,-2,0,-2,0,-1,0
1528885140500389,-1,-3,-1,0,-1,0,-1,-2
1528885140500389,-2,-22,-4,-3,-2,-2,-3,-1
1528885140515588,-4,-5,-2,-1,0,-1,1,-1
1528885140515588,1,1,0,-2,0,-1,-1,-1
1528885140530625,-1,-4,-2,-1,0,1,-2,-1
1528885140530625,0,0,-2,-3,-2,-1,-1,-1
1528885140537831,-1,2,0,-2,-1,0,-2,-1
1528885140537831,0,5,-2,-1,0,-1,0,-2
1528885140553104,-2,-2,-1,-3,-3,-3,-2,-1
1528885140553104,-1,2,-1,0,-1,-1,-2,0
1528885140560082,-2,-3,0,-1,-1,-2,-1,-2
1528885140560082,-2,4,0,-1,-1,0,0,-1
1528885140575831,-2,-6,-1,-2,0,-4,-1,0
1528885140575831,-5,0,3,1,1,1,-1,-1
1528885140590344,0,-1,-1,-1,-3,0,0,-1
1528885140590344,-1,4,1,0,2,-2,1,-2
1528885140598302,0,-2,-2,-1,-3,-1,-2,0
1528885140598302,2,0,-2,-2,-2,0,0,0
1528885140613284,-4,-3,-1,0,-1,-2,-2,-2
1528885140613284,-3,-9,-1,-2,0,0,-1,-3
1528885140620255,1,0,-2,0,-2,-1,-1,-1
1528885140620255,-1,0,-2,0,0,0,-1,-1
1528885140634955,-2,-1,-1,-1,-1,0,-1,-1
1528885140634955,0,3,-2,-1,-1,-2,-1,0
1528885140650524,0,-1,-2,0,0,-1,0,1
1528885140650524,-1,1,0,-1,-2,-1,-2,-2
1528885140657205,0,-1,-1,-1,0,-1,0,-2
1528885140657205,1,-2,-2,-1,-2,-1,-2,0
1528885140673106,-5,-2,0,0,1,1,-1,-2
1528885140673106,2,0,-4,-1,-3,-2,0,-1
1528885140680113,0,0,-2,-1,-1,-2,-2,0
1528885140680113,2,1,-2,-2,0,-2,-2,-1
1528885140695279,-2,-2,-1,-1,-1,2,-1,-3
1528885140695279,-1,0,-1,2,-1,-1,-1,-2
1528885140710574,0,-2,-2,-1,-1,1,0,0
1528885140710574,-2,-2,0,0,-2,-2,1,0
1528885140717554,0,0,-3,-2,0,-1,-2,0
1528885140717554,-3,-2,-1,-2,0,-1,1,-1
1528885140733308,0,-2,-1,-1,-2,0,-1,0
1528885140733308,-3,-1,0,-1,-1,-1,-1,-1
1528885140740515,-2,-1,-1,-1,-2,-1,0,-1
1528885140740515,0,-1,-1,-3,-2,0,-1,0
1528885140755934,1,-2,-1,-1,2,-1,-1,0
1528885140755934,-1,-3,-1,-2,-2,-1,1,-2
1528885140770722,2,0,-2,0,-2,0,-1,0
1528885140770722,-1,0,0,-1,-1,1,-1,-1
1528885140778061,0,-1,0,-2,-1,-1,-1,0
1528885140778061,-1,-2,0,0,-1,-1,-1,-2
1528885140793010,0,0,-1,-1,-1,1,-2,-2
1528885140793010,-1,-2,-2,-1,-1,1,-2,-1
1528885140800907,-2,1,-2,0,-1,-1,0,-1
1528885140800907,1,0,-1,-2,0,-1,-2,0
1528885140815949,-2,-1,0,0,-2,-1,-1,-1
1528885140815949,-3,-2,0,0,-2,-2,0,-1
1528885140830594,-2,-2,-1,-2,-1,-1,-2,-1
1528885140830594,-1,0,-1,0,1,-2,-1,-2
1528885140837603,-1,0,-2,-1,-4,-2,-1,0
1528885140837603,-1,-1,-2,-1,0,-1,-2,-1
1528885140852586,-2,-1,-1,0,-2,-1,-1,0
1528885140852586,-1,-2,-1,-1,-2,0,0,0
1528885140860577,-1,-1,-1,-2,-2,0,-1,-1
1528885140860577,-1,-1,-1,-1,-1,-1,-1,-1
1528885140874985,0,-1,1,0,1,-1,-1,-1
1528885140874985,-1,0,-1,-1,-2,0,-2,-2
1528885140890171,-3,0,0,-2,1,-2,-1,-2
1528885140890171,-1,-1,-2,-1,-2,0,-3,-1
1528885140898270,0,-1,0,-2,-1,-1,-2,-2
1528885140898270,-2,-1,-1,0,-2,-1,1,0
1528885140913317,0,-2,-3,-1,1,0,0,-1
1528885140913317,-2,-1,-1,-1,0,-1,0,0
1528885140920464,-2,-2,-2,-1,-2,0,-1,-1
1528885140920464,0,0,-1,0,-1,-1,0,-1
1528885140935340,-1,-1,-2,-1,-1,-2,1,-1
1528885140935340,0,0,-1,-2,0,-1,0,1
1528885140950345,-1,-1,-2,-1,-2,-3,-2,0
1528885140950345,-1,-2,-3,-1,-1,0,0,-2
1528885140957368,-2,-1,0,0,-1,-1,-1,-1
1528885140957368,0,-1,0,0,-1,-1,-1,-1
1528885140973005,0,0,1,-2,-1,-1,-1,-2
1528885140973005,-1,-1,0,-1,0,-2,-1,0
1528885140980569,0,-3,-1,-1,-1,-1,0,-1
1528885140980569,0,-1,0,-1,1,-1,-1,-2
1528885140994792,0,0,-2,-1,-1,-1,0,0
1528885140994792,-1,-1,0,-1,0,-1,-2,-1
1528885141010489,-1,-1,-2,0,0,0,0,-2
1528885141010489,-1,0,-2,-1,-2,-1,-1,-2
1528885141017758,-1,-1,-1,-1,0,0,-2,-2
1528885141017758,-1,-1,-2,-1,-2,-1,-2,-1
1528885141032669,-1,-2,0,0,-2,-1,-1,-1
1528885141032669,-1,-1,0,-1,-1,0,-2,1
1528885141040485,1,1,-1,-1,-1,-1,-1,-1
1528885141040485,-1,-2,-3,0,-1,-2,-1,0
1528885141055613,-2,-1,0,0,-1,0,0,-1
1528885141055613,0,-1,-1,-1,-2,0,-1,-2
