timestamp,emg1,emg2,emg3,emg4,emg5,emg6,emg7,emg8
1528882412307602,0,-4,14,11,1,8,1,1
1528882412307602,0,8,-1,-18,2,7,8,-1
1528882412322581,4,24,50,48,11,9,0,1
1528882412322581,-5,-3,3,14,-5,-17,-11,-4
1528882412329569,-5,-11,-24,-24,-5,8,1,-2
1528882412329569,-2,-5,-15,1,-4,-21,-4,-3
1528882412345519,-1,-8,-24,-9,1,0,7,2
1528882412345519,2,15,26,4,11,11,-9,-4
1528882412359501,-8,-16,-31,-10,-11,-6,4,-2
1528882412359501,10,-5,-4,-11,-8,5,4,-2
1528882412367473,1,0,-11,-16,-2,4,0,0
1528882412367473,6,12,29,25,9,-10,-1,3
1528882412374423,-2,0,16,14,-2,-1,-7,-1
1528882412374423,-2,2,4,3,3,-2,-4,1
1528882412397361,3,-4,-9,-9,0,5,6,2
1528882412397361,-2,-2,-10,3,1,-2,-7,-2
1528882412404344,1,6,17,-1,0,-5,9,4
1528882412404344,-5,-11,-8,0,-7,-16,-10,-3
1528882412427320,7,16,12,-2,-1,0,9,2
1528882412427320,-1,3,17,4,8,5,-3,-1
1528882412449226,-4,-13,-20,-17,-3,-10,-16,-6
1528882412449226,1,4,1,28,7,-2,11,6
1528882412464196,-1,10,28,21,7,16,1,1
1528882412464196,0,-1,7,-11,1,-9,2,2
1528882412472215,-3,-5,6,13,-3,3,-7,-3
1528882412472215,4,-2,-25,-46,0,-10,-8,-1
1528882412487122,3,8,22,32,6,11,5,-1
1528882412487122,0,1,-9,-25,-6,0,-9,-2
1528882412502081,-2,-2,-7,9,19,11,9,2
1528882412502081,-5,-12,-21,-4,-22,2,-2,-2
1528882412517042,18,8,4,-8,-20,-21,-6,-1
1528882412517042,-5,-6,-11,16,24,7,4,-1
1528882412532002,-2,-1,7,-15,7,-1,-3,-4
1528882412532002,-1,-8,-8,20,1,-4,0,-1
1528882412539980,1,14,9,-11,7,18,1,1
1528882412539980,5,6,16,5,-7,1,3,3
1528882412547536,-5,-4,6,9,5,-8,3,-4
1528882412547536,0,5,9,-3,-1,-2,2,3
1528882412554520,-6,-13,-22,-15,-2,-5,-2,-5
1528882412554520,-2,-8,-11,-4,-4,-6,-7,-3
1528882412569518,0,-1,-10,-9,6,5,-9,0
1528882412569518,-7,-12,-18,-25,-12,-6,-8,-4
1528882412584478,0,1,-1,3,14,-9,-4,-2
1528882412584478,6,16,12,2,0,4,8,3
1528882412592445,1,20,34,12,1,2,2,1
1528882412592445,-7,-6,0,2,19,-4,3,1
1528882412614361,4,-7,-50,-40,-45,-3,-7,-2
1528882412614361,-3,-14,-6,3,3,8,4,-1
1528882412622339,-1,10,6,4,10,-5,1,-1
1528882412622339,-1,5,16,9,-1,1,2,-3
1528882412637300,2,4,23,14,9,0,3,2
1528882412637300,2,-6,-20,-17,-22,-5,-2,1
1528882412652286,-1,5,28,23,15,-2,-1,0
1528882412652286,0,-1,-15,-7,2,3,-5,-5
1528882412674201,-3,-8,-12,-5,-35,-4,4,-1
1528882412674201,1,9,20,22,8,-4,-9,-2
1528882412682205,1,7,24,45,9,-6,0,-3
1528882412682205,0,-3,4,5,1,3,7,-1
1528882412697175,-1,0,-1,-7,13,-7,-18,-5
1528882412697175,-1,-1,-9,-8,-10,-3,5,3
1528882412704124,-6,-13,-22,-22,-12,5,5,1
1528882412704124,-4,-15,-35,0,11,-10,-7,-3
1528882412712137,9,21,39,12,8,8,8,2
1528882412712137,3,20,21,-8,-18,0,-1,2
1528882412727061,-2,-6,6,35,0,-3,1,2
1528882412727061,-4,-6,-14,-2,18,1,2,-3
1528882412734040,0,0,-1,2,-9,-4,-9,-3
1528882412734040,0,8,15,8,5,-1,-45,-4
1528882412750051,-1,-4,-5,-15,-18,6,-11,10
1528882412750051,-1,-1,1,1,-24,-8,-26,-8
1528882412756979,0,-4,-11,-6,11,3,15,5
1528882412756979,3,6,12,9,-34,-9,18,0
1528882412764957,0,2,5,-7,10,5,9,-1
1528882412764957,-2,-4,-1,8,3,-18,3,-1
1528882412779955,-4,-7,-15,-16,-2,11,11,-6
1528882412779955,-11,7,19,16,8,13,23,-23
1528882412794879,10,-1,0,-5,-2,-12,12,42
1528882412794879,-4,-4,-5,0,10,22,21,-22
1528882412801859,21,6,-5,-9,-17,-36,-18,42
1528882412801859,-4,8,16,11,-10,37,2,-1
1528882412816855,-11,-1,-2,-15,4,-2,11,-13
1528882412816855,-10,-50,-14,21,11,-60,-25,11
1528882412824841,23,48,9,10,31,78,16,10
1528882412824841,-1,5,-11,-46,-68,-69,21,9
1528882412831811,-32,-33,-6,19,23,28,-18,-18
1528882412831811,3,-1,3,2,-23,15,2,-26
1528882412854718,5,0,6,-1,-12,-89,-8,-13
1528882412854718,-9,-10,-9,8,56,93,8,4
1528882412861735,-2,-8,-5,-1,-7,-27,-33,-4
1528882412861735,-9,2,3,8,18,1,-20,-7
1528882412884637,-18,-21,-9,-8,-22,-3,4,-4
1528882412884637,5,9,1,0,18,17,7,-5
1528882412891619,-15,-12,-7,-9,-23,-39,-16,-8
1528882412891619,14,13,7,6,18,-35,-6,18
1528882412899597,-12,-11,-16,-26,-24,-34,-26,-37
1528882412899597,4,3,7,0,-18,-90,-19,5
1528882412929555,-13,-10,-8,-5,14,5,4,7
1528882412929555,12,16,10,6,14,-59,-55,-26
1528882412937513,-1,0,10,18,1,-30,3,-17
1528882412937513,-10,-7,-9,-15,-17,-35,11,21
1528882412952456,2,-6,-11,-17,-1,39,-11,13
1528882412952456,-2,4,0,-3,5,62,15,4
1528882412959438,-1,-4,-4,3,9,16,6,3
1528882412959438,0,4,2,-5,27,18,8,-2
1528882412967454,-4,1,5,24,-11,1,6,-21
1528882412967454,-2,-8,-1,11,-3,8,12,9
1528882412974397,3,7,29,39,22,2,-11,-4
1528882412974397,-6,-9,-19,-10,-5,-9,-3,-6
1528882412982378,3,-3,-17,-20,-12,-25,4,-7
1528882412982378,1,2,0,16,21,43,13,1
1528882412997386,-5,0,11,27,33,30,6,2
1528882412997386,12,12,29,35,-9,8,15,4
1528882413004318,-2,1,-3,-21,-60,-22,-5,7
1528882413004318,-7,2,2,-5,0,-14,-5,-7
1528882413019518,-5,-19,-45,-58,-17,2,10,5
1528882413019518,-4,-19,-49,-23,11,11,-2,-10
1528882413035323,0,2,29,40,21,-15,-11,-36
1528882413035323,3,7,18,9,16,-4,2,-23
1528882413042249,1,11,31,-20,-18,-3,7,-16
1528882413042249,1,7,38,56,-19,-3,0,-1
1528882413064211,-3,-8,-17,-14,12,7,-2,2
1528882413064211,-3,-15,-34,-32,11,4,0,18
1528882413072171,11,20,30,6,-1,5,7,23
1528882413072171,7,21,36,28,12,-2,-8,8
1528882413087098,-2,1,12,19,10,0,2,4
1528882413087098,-11,-29,-79,-128,-4,20,3,5
1528882413102307,-17,-19,-18,16,8,-18,-28,-11
1528882413102307,14,23,33,76,-1,-8,7,17
1528882413110167,0,-7,-25,-56,-34,-4,4,0
1528882413110167,-14,-28,-59,-64,-47,-23,-21,-14
1528882413124320,3,5,28,57,33,0,9,3
1528882413124320,-1,12,23,9,-50,0,-18,-3
1528882413139243,-1,-10,-21,-32,-10,-2,6,0
1528882413139243,8,17,40,50,0,-8,-2,1
1528882413154203,2,4,2,-20,-74,-18,-1,-2
1528882413154203,-6,-7,-13,6,38,8,-2,-5
1528882413162790,0,1,-3,-19,-12,3,4,0
1528882413162790,-3,-4,-19,-20,-31,-2,10,0
1528882413169988,-2,-2,-17,-5,48,14,-2,-5
1528882413169988,4,12,34,34,17,-11,-7,-1
1528882413192782,0,-2,-9,-20,-84,-15,14,0
1528882413192782,-6,-12,-17,-2,41,9,13,4
1528882413207788,-9,-20,-21,15,48,-9,-9,-3
1528882413207788,0,11,23,14,13,0,5,-8
1528882413214995,0,2,15,25,13,0,-22,-4
1528882413214995,-5,-22,-12,-26,-19,-3,-2,-10
1528882413236996,9,22,16,31,0,12,-7,15
1528882413236996,-7,-23,-29,-28,-7,9,21,25
1528882413251959,19,-36,-21,-6,17,8,31,68
1528882413251959,-17,15,10,10,-8,-2,-15,-15
1528882413267781,4,0,13,15,-11,-10,-20,-5
1528882413267781,-14,-41,-16,-27,11,28,17,43
1528882413281865,-23,-4,8,9,-6,20,8,-78
1528882413281865,33,31,10,20,15,-38,10,28
1528882413296825,-33,-22,-17,-15,-14,-21,-19,-57
1528882413296825,-20,-12,-6,-25,-18,1,-3,1
1528882413311785,11,0,-1,12,13,12,26,17
1528882413311785,-5,6,0,-16,-4,-24,-34,-67
1528882413334761,-13,-18,-11,-9,-13,-81,-30,-12
1528882413334761,2,10,6,7,6,57,-2,-4
1528882413341763,-16,-12,-16,-3,7,7,16,13
1528882413341763,7,-12,-8,-3,-14,52,49,28
1528882413356719,-12,-20,-8,2,-22,54,17,18
1528882413356719,10,4,4,-5,-5,-31,34,2
1528882413371678,-25,-25,-20,-36,6,12,-4,-5
1528882413371678,0,7,29,75,10,-32,0,-8
1528882413386611,-4,-4,-2,5,26,-28,-39,-15
1528882413386611,6,6,-7,-31,-14,18,3,6
1528882413402619,1,-17,-25,-8,2,-11,2,18
1528882413402619,-3,-10,-16,-12,-18,29,29,-6
1528882413409577,9,14,21,9,3,-16,-12,0
1528882413409577,-25,-12,-14,-9,7,18,-7,-19
1528882413424537,-1,1,11,10,-8,-5,-21,0
1528882413424537,-5,-12,-25,-32,-1,-13,-9,0
1528882413439443,-6,-8,11,31,-10,10,-8,-8
1528882413439443,1,-4,-3,24,17,4,11,-1
1528882413447447,1,14,20,-12,-42,-12,-2,4
1528882413447447,-1,-6,15,27,13,0,-5,-3
1528882413469395,1,1,4,-2,2,6,10,-5
1528882413469395,3,-8,-17,-14,-13,-1,4,9
1528882413477400,-1,10,-5,5,13,3,13,4
1528882413477400,4,-8,-10,-21,-25,-5,-1,1
1528882413507315,-5,-11,-9,-4,12,-5,-19,-9
1528882413507315,12,8,2,2,-16,-6,1,8
1528882413522281,-3,-13,-14,-11,27,-1,5,-3
1528882413522281,-1,-1,9,9,-12,-10,-4,5
1528882413529255,-6,-7,-4,3,18,-1,10,3
1528882413529255,-2,-12,-22,-23,-39,-19,-12,-5
1528882413544217,-12,-13,-9,-15,10,-1,-5,-10
1528882413544217,9,8,10,41,18,-13,16,22
1528882413552195,0,-2,-5,14,-8,-6,-1,0
1528882413552195,-3,12,19,-4,12,-1,-12,-5
1528882413575080,-6,-14,-17,-18,-29,-27,-1,2
1528882413575080,0,-1,-6,-9,7,4,-10,-6
1528882413590117,-2,-1,4,14,19,9,15,6
1528882413590117,-1,-4,1,1,-20,-15,1,9
1528882413597080,-8,1,-9,-6,-5,27,6,-5
1528882413597080,-2,5,5,6,8,2,-6,-13
1528882413612036,0,1,14,29,15,1,-3,-6
1528882413612036,4,7,7,-2,-1,10,3,2
1528882413627516,-1,-7,-6,1,3,1,3,7
1528882413627516,-2,-1,-6,-13,-4,-2,-5,-3
1528882413642456,0,0,1,7,17,-9,-5,5
1528882413642456,-3,-3,-6,-9,-31,-4,1,-1
1528882413650266,2,-1,-1,0,2,-5,0,-2
1528882413650266,3,1,1,2,-1,4,11,7
1528882413665149,0,-4,-1,-2,-3,13,15,12
1528882413665149,3,2,6,1,-1,-23,-21,-11
1528882413679111,-1,-1,-2,2,-1,20,8,4
1528882413679111,-2,1,-1,-1,3,-16,-12,-5
1528882413687089,1,-1,1,2,-2,2,4,1
1528882413687089,-1,0,-4,-1,2,4,0,0
1528882413702053,-1,2,1,0,-10,1,5,1
1528882413702053,0,1,2,-2,-5,-7,7,5
1528882413710032,0,-2,-3,1,8,14,-1,-4
1528882413710032,-1,0,-1,0,-1,0,3,-5
1528882413725406,-1,2,1,-3,-13,-28,-7,-2
1528882413725406,-2,1,1,1,-2,-5,6,0
1528882413740266,-1,-2,-5,-6,-5,11,3,3
1528882413740266,-1,1,2,2,-1,-12,-2,-2
1528882413747184,0,0,1,-1,-5,-25,-12,-4
1528882413747184,-2,1,-1,-2,2,16,3,2
1528882413762917,0,1,-3,2,-5,-13,-6,-3
1528882413762917,-1,0,2,4,7,2,-3,-2
1528882413770021,-2,-2,2,7,4,4,5,2
1528882413770021,0,-5,-7,-17,-8,-22,-14,0
1528882413785085,-2,1,3,4,1,4,2,1
1528882413785085,2,0,2,6,7,23,1,2
1528882413800196,-2,3,1,-2,-6,-12,-5,-4
1528882413800196,0,-1,0,-4,0,-8,-1,1
1528882413807960,-2,-4,-3,-6,-3,-9,-2,-1
1528882413807960,-1,-2,-1,0,5,19,4,1
1528882413823023,1,-5,-3,-2,-2,1,-3,-1
1528882413823023,-1,-1,-1,4,-3,-2,3,0
1528882413830084,1,-1,0,-2,2,-1,-1,-1
1528882413830084,0,1,0,1,-7,-1,-4,-2
1528882413844669,-1,1,3,2,6,3,4,2
1528882413844669,-1,2,1,0,5,8,3,0
1528882413860045,-3,2,2,-6,-13,-15,-1,-2
1528882413860045,-1,-4,-8,-5,10,-2,-2,-2
1528882413875257,0,-1,-1,2,8,20,-1,-1
1528882413875257,2,3,4,11,-4,5,6,0
1528882413889966,-1,2,5,6,13,3,4,3
1528882413889966,1,0,2,-2,2,-10,-6,0
1528882413897764,1,-4,-7,-9,-10,0,0,0
1528882413897764,-2,-3,-3,-2,2,-6,-12,-1
1528882413912808,-1,4,14,14,-1,6,-6,-4
1528882413912808,-1,-2,-3,0,-6,-15,2,-2
1528882413926996,-2,-2,-7,-1,-3,0,4,0
1528882413926996,1,3,5,5,2,0,3,1
1528882413942305,1,1,1,-1,0,1,-6,0
1528882413942305,-3,0,1,-2,1,1,5,2
1528882413950268,1,-2,-3,-1,-1,-5,-2,-1
1528882413950268,-1,-3,-5,-7,-2,-15,-7,-4
1528882413965220,-4,-2,-4,-10,-7,-7,-2,-1
1528882413965220,-4,-5,-2,5,3,-1,7,1
1528882413980400,-3,-4,-8,-11,-10,-7,-3,-5
1528882413980400,-2,0,3,3,3,7,-15,-4
1528882413987297,4,-2,0,-4,2,13,20,10
1528882413987297,-3,-4,-3,-6,-1,-4,-1,-1
1528882414002254,-1,-2,-1,3,-4,-9,4,3
1528882414002254,0,0,-2,1,4,-2,2,-3
1528882414009271,1,2,-2,-1,4,6,-5,-2
1528882414009271,-1,-1,-8,-13,-5,-7,1,0
1528882414024854,0,-2,-1,2,-6,-2,-3,-1
1528882414024854,0,-1,-2,-5,9,1,2,0
1528882414039919,2,2,3,15,6,-2,-14,-6
1528882414039919,1,3,6,7,9,3,-9,-2
1528882414047179,52,0,2,2,-4,-14,-4,-1
1528882414047179,28,-3,-5,-12,-23,-7,-3,-2
1528882414069954,10,0,-4,-6,5,12,-3,-2
1528882414069954,-12,-5,-5,-6,-10,-26,5,-2
1528882414076795,-29,0,-2,-3,3,3,-8,-3
1528882414076795,-18,1,2,2,-6,-15,-3,-1
1528882414092880,-13,-3,-4,-3,-2,-8,1,-3
1528882414092880,-7,0,-1,6,8,-1,-1,-3
1528882414107591,-6,-2,-1,-6,-1,1,0,0
1528882414107591,-4,-1,-1,1,4,14,1,1
1528882414122931,2,1,0,0,-1,-12,-3,0
1528882414122931,3,-4,-8,-7,-7,4,8,2
1528882414130226,1,0,1,3,6,-4,-6,-1
1528882414130226,0,1,5,8,4,-3,-16,-2
1528882414145090,-2,3,3,5,5,4,3,4
1528882414145090,0,0,1,-4,-7,-5,11,3
1528882414160070,0,-4,-3,-3,2,-1,-8,-2
1528882414160070,2,-1,-2,-3,0,-7,-4,2
1528882414167384,-3,-1,0,-2,1,-1,19,3
1528882414167384,-2,0,-3,-3,-4,2,-21,-7
1528882414182968,0,-2,1,-2,0,1,4,0
1528882414182968,2,0,-2,3,-3,2,3,3
1528882414190015,-4,-2,-3,-4,-4,-3,-3,-3
1528882414190015,0,1,3,4,7,8,-5,-1
1528882414204712,0,1,-2,-3,-4,-3,-6,-3
1528882414204712,1,3,6,7,1,6,15,6
1528882414219194,0,1,0,-2,-2,-1,-2,-1
1528882414219194,-1,-2,-2,-2,-1,0,2,-1
1528882414227477,-1,-5,-4,0,-3,-5,-6,-3
1528882414227477,1,-1,-3,-4,-5,-5,0,-2
1528882414242699,0,3,1,4,-3,-9,-2,-4
1528882414242699,3,1,-1,-2,0,-3,-1,0
1528882414249679,-3,-3,-2,-2,-5,4,4,-3
1528882414249679,-2,-3,-1,-4,0,5,4,0
1528882414264992,-3,0,1,0,1,-1,-4,-2
1528882414264992,-3,1,-2,0,2,-4,-1,-2
1528882414279881,-1,-2,-4,-5,0,0,8,3
1528882414279881,-2,0,1,-2,-3,-5,-1,-2
1528882414302804,-1,-1,-3,0,1,4,5,2
1528882414302804,-2,-3,-3,-3,-8,-9,-2,-3
1528882414317816,-4,-3,-2,2,-2,-5,-6,-1
1528882414317816,2,0,2,-1,0,-2,-8,-7
1528882414324782,-1,1,4,3,3,-1,-5,-3
1528882414324782,0,-2,-2,-2,2,2,1,0
1528882414340228,-1,-1,-1,0,-1,1,-6,-2
1528882414340228,0,-2,-1,1,1,3,-1,1
1528882414354945,1,-2,-1,-4,-7,-25,-4,0
1528882414354945,-1,0,-4,-2,-5,1,17,2
1528882414362828,4,0,0,4,9,18,-3,2
1528882414362828,1,1,-1,-2,-7,-4,8,11
1528882414369746,-1,-1,-2,-3,-2,-9,-6,-5
1528882414369746,-1,0,1,0,2,-5,-7,-4
1528882414385467,-1,0,0,-1,4,8,-1,2
1528882414385467,-1,-3,1,-1,0,-2,-4,-4
1528882414400361,-1,-1,1,1,-1,2,-1,0
1528882414400361,0,-4,0,-2,-1,0,1,1
1528882414407572,-1,-1,1,2,3,8,3,1
1528882414407572,0,0,-1,4,-1,2,2,1
1528882414422578,-1,-1,1,7,0,-14,-5,-4
1528882414422578,0,-2,-5,-3,-14,-3,2,-3
1528882414429830,1,0,-3,-2,-6,2,-5,0
1528882414429830,0,1,-2,-2,2,3,3,4
1528882414452861,-2,0,0,-2,3,6,1,-3
1528882414452861,-1,-1,0,0,0,-6,-4,-3
1528882414467530,0,-1,-2,-2,-1,2,3,4
1528882414467530,-1,1,1,0,1,-12,-8,-2
1528882414475351,0,-1,-3,-3,-3,-2,1,2
1528882414475351,0,1,0,-1,0,1,0,3
1528882414490413,-1,0,-2,-1,-1,-5,-8,0
1528882414490413,0,1,0,-2,3,6,-6,-4
1528882414512085,-2,-2,-1,1,0,1,6,0
1528882414512085,0,-3,-1,0,0,-3,0,-1
1528882414527186,-3,-1,0,-1,0,-4,2,1
1528882414527186,-1,-2,-3,0,1,6,2,3
1528882414535375,0,-2,1,4,-1,0,1,1
1528882414535375,-3,-3,-1,2,-2,-5,-1,-1
1528882414550250,-2,0,0,3,-1,-9,-5,-6
1528882414550250,1,2,0,0,-3,-5,5,9
1528882414557220,0,-1,0,0,3,11,-3,-5
1528882414557220,0,-1,-2,-5,-2,3,5,3
1528882414565305,1,0,0,-2,-1,-6,3,0
1528882414565305,1,1,0,-4,-2,3,-2,-1
1528882414580306,-3,-1,0,-2,1,0,3,-5
1528882414580306,-3,0,0,-7,3,16,3,-2
1528882414587262,0,-2,-1,-3,-2,-3,-9,-3
1528882414587262,0,-1,-1,0,-1,-6,0,-4
1528882414602211,0,-2,0,1,-2,0,1,0
1528882414602211,-2,-6,1,0,1,0,-2,-4
1528882414617429,1,-5,-2,0,3,7,9,2
1528882414617429,0,-7,0,2,1,-1,-7,-2
1528882414632778,-2,0,-1,-2,0,-5,-4,-1
1528882414632778,-2,2,-2,1,-2,-3,2,0
1528882414647902,0,2,-1,-3,-3,4,5,0
1528882414647902,-1,-1,-3,-3,-2,-7,-11,-3
1528882414655019,0,1,1,1,1,2,-3,2
1528882414655019,0,3,0,-1,-1,-2,-5,4
1528882414662829,1,2,0,-3,-2,5,-5,-2
1528882414662829,-1,5,-1,-3,-1,-4,-2,1
1528882414669867,0,2,-3,-4,-1,7,8,-2
1528882414669867,2,0,-1,-2,-1,-8,1,2
1528882414692124,-2,-3,-2,0,1,-2,6,3
1528882414692124,2,-1,0,0,0,5,7,4
1528882414707162,1,-3,-3,1,1,-4,2,2
1528882414707162,2,0,0,2,3,0,1,-3
1528882414714158,-1,-2,-1,0,-1,-1,-6,-1
1528882414714158,-1,1,1,-2,-4,-1,-3,-2
1528882414730303,0,-1,-1,-1,-2,0,5,1
1528882414730303,-2,0,-3,-4,-5,-4,0,0
1528882414737081,0,1,-2,0,0,-1,-5,-1
1528882414737081,-1,-1,0,-1,0,2,1,-1
1528882414745330,1,-2,-1,0,-3,-2,7,-1
1528882414745330,-3,-2,0,0,0,-2,-6,-5
1528882414760019,1,2,-2,1,2,5,-4,-1
1528882414760019,-3,-4,-2,0,-3,-5,-11,-1
1528882414767303,2,1,0,0,2,-1,1,2
1528882414767303,-2,3,-2,2,-2,-11,-5,-1
1528882414782757,-1,1,-1,-4,-1,12,1,-2
1528882414782757,0,0,-1,-2,-1,4,13,2
1528882414789748,0,-1,-1,-3,-1,0,1,1
