timestamp,emg1,emg2,emg3,emg4,emg5,emg6,emg7,emg8
1529289733616289,11,-2,-10,-7,-3,-3,0,2
1529289733616289,6,6,12,17,3,-1,0,3
1529289733622273,-25,-10,-7,-10,1,2,1,-11
1529289733622273,52,15,1,7,-1,0,-1,12
1529289733629253,0,-6,-3,-13,-6,-2,-5,0
1529289733629253,1,0,-3,-4,-1,-2,-2,-1
1529289733644213,5,1,0,3,-1,-2,-2,-3
1529289733644213,-21,-3,2,3,0,1,2,-1
1529289733653189,-3,-1,3,4,2,1,0,-1
1529289733653189,10,0,0,0,-2,-2,-2,-1
1529289733667151,-6,-2,0,0,-2,-2,-5,2
1529289733667151,-8,-5,-3,-8,-4,-2,0,-3
1529289733675132,8,4,-2,3,-1,1,5,3
1529289733675132,-17,-4,-4,-6,-3,-4,-9,-20
1529289733690090,7,1,-4,-2,-1,-2,3,3
1529289733690090,-17,-6,-4,-3,-2,-2,-6,-3
1529289733698069,-14,1,9,10,2,0,-4,-7
1529289733698069,0,0,-2,-4,0,4,6,6
1529289733712033,24,-1,-11,-13,-7,-4,6,12
1529289733712033,-13,0,6,4,1,0,-6,-11
1529289733720011,-7,-1,6,8,2,-2,-9,-4
1529289733720011,2,-8,-22,-22,-11,-4,-5,-2
1529289733735970,-11,-2,0,4,0,-2,2,-1
1529289733735970,10,-4,-12,-22,-7,-5,1,-1
1529289733741951,-14,1,5,9,3,3,6,-4
1529289733741951,-4,-1,4,2,3,1,1,-3
1529289733756912,-6,2,4,3,0,2,-2,-4
1529289733756912,-2,-1,2,4,4,1,-2,0
1529289733764891,-12,-6,-10,-12,-7,-5,-5,-9
1529289733764891,6,1,3,0,1,0,2,8
1529289733779853,-2,-1,3,0,-1,-1,-4,-3
1529289733779853,-20,-1,-1,4,1,-2,0,-7
1529289733786833,19,-1,-4,-4,-2,-2,3,15
1529289733786833,3,1,-1,-1,0,0,2,5
1529289733803786,8,7,2,6,-3,-3,-3,-4
1529289733803786,-30,-5,-1,0,2,3,4,1
1529289733816753,-13,-5,-1,2,0,0,-4,-5
1529289733816753,13,9,2,0,-2,1,1,10
1529289733824731,12,0,-3,-1,-1,1,3,-5
1529289733824731,-17,-12,0,2,1,1,-3,-9
1529289733839692,-1,1,-1,-3,-2,-3,-2,-2
1529289733839692,2,-9,-6,-4,-3,-1,0,-3
1529289733847669,-6,0,-1,2,0,-2,-2,-2
1529289733847669,12,2,-1,-3,-4,-2,1,3
1529289733862631,0,-3,1,-1,1,-1,1,-2
1529289733862631,7,2,0,8,1,-1,-2,-3
1529289733877590,17,1,-1,-6,-10,-9,-4,7
1529289733877590,-1,-1,0,2,-6,-6,-3,-7
1529289733884572,-3,-3,1,4,11,7,3,0
1529289733884572,-6,5,2,5,8,9,6,-2
1529289733900531,-4,-4,1,3,3,6,0,-4
1529289733900531,10,-1,0,-5,-2,-2,-4,-1
1529289733907511,-5,-4,-4,-7,-8,-8,-7,-3
1529289733907511,-6,-4,-3,-7,-21,-20,-15,-6
1529289733929451,-1,0,1,1,1,2,3,1
1529289733929451,-1,-1,-5,-4,-6,-10,2,1
1529289733937429,-1,-1,-2,2,9,6,-10,-6
1529289733937429,0,0,3,8,18,20,11,3
1529289733944410,3,3,8,-2,-11,9,11,6
1529289733944410,1,-2,-11,-2,2,18,9,4
1529289733959371,-2,-3,-12,-15,-17,3,-4,-5
1529289733959371,3,4,9,18,36,50,38,13
1529289733967349,8,8,15,37,74,50,24,13
1529289733967349,3,2,3,7,18,13,-2,2
1529289733982335,-9,-7,-13,-18,-47,-36,-10,-11
1529289733982335,-1,1,3,4,-2,7,4,-2
1529289733997271,1,2,-2,3,29,36,25,8
1529289733997271,1,1,8,16,32,12,-2,-3
1529289734004251,-1,-2,0,-7,-7,-3,-3,1
1529289734004251,-5,-3,-5,-9,-15,-21,-14,-9
1529289734019211,0,-3,-4,-19,-31,-26,-10,-5
1529289734019211,0,2,4,13,28,34,12,5
1529289734027189,1,4,5,12,27,30,24,7
1529289734027189,-2,-2,-3,-4,-4,-9,-11,-4
1529289734042188,-8,-7,-7,-9,-10,-47,-19,-8
1529289734042188,-1,-1,-2,-18,-57,-29,-20,-7
1529289734049166,1,1,-4,-9,-16,19,18,3
1529289734049166,0,0,0,12,43,14,12,6
1529289734065088,-2,-1,-7,-8,-12,-21,-18,-7
1529289734065088,5,2,0,11,11,78,33,8
1529289734080048,6,5,11,26,45,33,18,6
1529289734080048,1,4,17,3,7,-11,-18,-3
1529289734087075,-6,-8,-19,-26,-42,-103,-32,-10
1529289734087075,-10,-10,-20,-37,-70,-29,-18,-14
1529289734102036,2,2,13,48,74,77,17,3
1529289734102036,4,4,2,5,37,20,43,18
1529289734110003,1,3,11,2,-15,5,-5,1
1529289734110003,0,-1,-3,-13,6,74,17,3
1529289734124927,1,-1,0,-5,-3,-29,-12,-6
1529289734124927,-5,-6,-18,-31,-41,-99,-28,-8
1529289734146869,-10,-9,-3,-15,-26,32,-5,-10
1529289734146869,1,6,27,23,44,43,27,8
1529289734154848,-8,-6,-28,-31,-38,-43,-22,-10
1529289734154848,-10,-8,-9,-20,-55,-57,-25,-13
1529289734169966,0,0,-21,-16,16,9,4,2
1529289734169966,3,2,-5,43,54,88,28,7
1529289734176945,14,15,44,55,105,111,44,20
1529289734176945,3,1,16,49,49,3,-6,-1
1529289734191904,-10,-12,-27,-10,8,30,8,-2
1529289734191904,3,5,7,-18,29,10,16,8
1529289734208860,5,4,22,40,60,62,24,11
1529289734208860,2,-2,0,30,38,13,1,3
1529289734221825,1,2,-6,-25,-36,-16,-14,-4
1529289734221825,-5,-4,-3,-15,-36,-67,-43,-15
1529289734229839,-1,-1,-2,4,-48,-39,-9,-5
1529289734229839,-1,2,8,16,74,107,65,22
1529289734244764,9,9,13,35,39,43,16,11
1529289734244764,4,-1,-6,-41,22,18,-12,-5
1529289734259723,-7,-8,-17,9,-4,-1,-12,-9
1529289734259723,4,0,-2,-9,-29,-29,11,8
1529289734266743,-6,-2,6,-42,-52,-49,-22,-15
1529289734266743,-5,-4,-14,-8,-24,-15,-4,1
1529289734289678,-3,-2,17,32,40,22,14,-5
1529289734289678,4,-3,-6,-17,6,3,0,5
1529289734296660,-6,-12,-7,-8,-13,-13,-11,-1
1529289734296660,-8,-3,11,17,-21,-11,-10,-12
1529289734319599,2,1,-17,-5,19,29,20,13
1529289734319599,9,11,15,25,13,-7,-4,6
1529289734334523,-4,3,2,19,13,19,9,-1
1529289734334523,3,-2,-18,-26,-4,-5,-22,-9
1529289734342504,-4,-16,-20,-23,-27,-27,-11,-2
1529289734342504,-7,-18,-3,8,-16,-8,2,-2
1529289734357506,1,-3,-23,-19,-23,-17,3,-3
1529289734357506,3,-9,-5,7,-11,-16,-4,2
1529289734364445,-3,-1,4,-13,-9,0,-1,4
1529289734364445,-1,3,-15,-25,-16,-18,-12,-7
1529289734387382,-6,10,0,3,1,-1,-1,-3
1529289734387382,0,8,-22,-13,9,6,6,8
1529289734396405,-2,2,-6,7,-5,-13,-26,-24
1529289734396405,-14,-4,-30,-9,-9,-12,7,3
1529289734409324,-3,-1,-6,-5,-3,4,4,0
1529289734409324,-6,-7,-2,-3,10,5,-4,-10
1529289734417301,-17,-6,-2,2,0,0,2,-4
1529289734417301,25,5,-18,3,-5,-15,-11,-1
1529289734424283,-5,4,-27,2,-1,5,-2,-6
1529289734424283,-7,0,-5,16,-1,-8,-11,-11
1529289734447224,-2,-8,-24,-29,-5,4,5,-1
1529289734447224,-2,-2,11,-5,6,7,7,-4
1529289734462183,-5,-13,16,4,1,6,-1,-5
1529289734462183,-4,-14,35,-8,-6,-5,-5,-7
1529289734477141,4,-1,49,11,2,1,-3,-6
1529289734477141,-17,-1,38,-1,-1,-1,-1,-8
1529289734484123,-1,27,43,-13,-5,-4,-6,-6
1529289734484123,-4,9,41,-3,-5,-4,0,1
1529289734500080,3,10,33,12,3,1,-5,4
1529289734500080,-1,9,36,-3,-7,-5,1,-2
1529289734515074,0,14,106,-1,-1,1,4,6
1529289734515074,-3,41,95,-7,-7,-9,-8,-3
1529289734530000,11,51,-71,-21,-5,0,11,15
1529289734530000,-28,7,-57,13,-2,-3,-2,-22
1529289734544960,-2,-68,-70,5,0,-4,0,-2
1529289734544960,22,-37,-65,-6,-6,-3,-5,5
1529289734559922,0,-13,-46,11,1,-6,-7,-5
1529289734559922,-1,-24,-57,-7,-3,-4,0,-1
1529289734566902,-7,-32,-33,-7,-1,-1,0,-6
1529289734566902,6,-17,-16,5,2,2,-1,8
1529289734581862,-6,-6,-19,-9,-1,0,4,-3
1529289734581862,17,6,10,13,0,0,-5,4
1529289734589841,2,-10,-8,-2,-4,-4,-3,-6
1529289734589841,1,-15,-15,-2,-1,-2,-4,-2
1529289734604801,1,-17,5,-1,-3,-3,-10,-3
1529289734604801,-4,-4,-20,-13,-4,4,20,3
1529289734619761,-2,3,13,0,-4,-3,4,2
1529289734619761,7,-7,-6,-2,-2,0,9,13
1529289734626742,-13,-4,15,15,7,2,-9,-28
1529289734626742,-4,-3,7,2,-3,-5,-8,-2
1529289734649681,5,1,21,18,1,-4,2,1
1529289734649681,5,14,11,-4,2,5,1,-2
1529289734656662,-2,9,-1,5,-6,-11,-10,3
1529289734656662,2,5,-3,-21,-22,-26,-29,-9
1529289734671624,-7,-1,0,34,7,9,13,-11
1529289734671624,1,10,1,-20,16,25,29,19
1529289734679603,-3,16,15,14,17,14,-12,8
1529289734679603,11,-5,-17,-15,1,2,12,-17
1529289734694730,7,8,8,15,-14,-1,-2,3
1529289734694730,1,14,11,17,40,38,9,16
1529289734709520,-2,-2,-8,-24,-16,-16,-2,-1
1529289734709520,0,2,5,10,-9,-14,-9,3
1529289734724653,24,17,25,27,13,-1,-9,17
1529289734724653,-32,-4,2,-7,-12,-5,-12,-17
1529289734732618,17,6,5,11,2,-7,-9,6
1529289734732618,-5,-2,-20,-36,-22,-18,-7,-6
1529289734747618,-2,-5,11,14,13,17,19,1
1529289734747618,-1,1,10,21,15,13,11,4
1529289734762380,-6,-5,-18,-35,-16,-16,-28,-15
1529289734762380,5,-4,-16,-2,-14,-14,-22,-12
1529289734769511,-4,1,-4,-17,-8,-1,14,-3
1529289734769511,-4,8,17,35,2,1,-7,-1
1529289734784491,-2,-5,-13,-7,-2,-3,0,2
1529289734784491,-3,-1,-10,-18,-11,-7,-6,-10
1529289734792300,4,3,-1,18,18,12,8,7
1529289734792300,-1,-4,-9,-30,0,2,-2,5
1529289734807540,21,4,-1,-11,15,3,-11,12
1529289734807540,-14,0,20,24,7,4,9,-4
1529289734822220,-19,-7,-3,-5,-5,-9,-13,-8
1529289734822220,31,7,13,7,0,5,9,17
1529289734830241,-31,-11,-20,-20,-23,-15,2,-6
1529289734830241,-9,5,15,1,-2,-10,-21,-16
1529289734844566,48,4,-6,-5,14,20,1,14
1529289734844566,-69,-21,0,6,-7,-6,-2,-4
1529289734852665,-1,-4,-4,-4,-5,-4,8,6
1529289734852665,-2,-1,-6,-15,-8,-2,6,5
1529289734875034,11,3,-3,-7,3,6,6,0
1529289734875034,-13,-7,-2,2,-4,-2,4,-2
1529289734889967,-1,-1,-13,-17,-1,-3,6,7
1529289734889967,15,-6,6,25,5,10,26,5
1529289734897937,-4,0,-19,-20,6,8,10,5
1529289734897937,0,-6,22,16,-3,-10,-15,1
1529289734912953,-26,-2,1,15,7,12,20,-10
1529289734912953,24,1,-24,-30,-1,3,1,19
1529289734919815,1,9,-6,0,-7,-9,-27,-28
1529289734919815,33,7,2,-6,4,6,8,20
1529289734935306,1,4,-21,-18,-14,-13,-6,3
1529289734935306,-3,4,-5,-20,2,8,7,2
1529289734950204,1,-5,5,-2,-1,1,2,0
1529289734950204,-13,-1,2,-4,-11,-8,-1,-10
1529289734964538,-3,0,15,13,6,2,-7,-5
1529289734964538,-4,-6,-23,-29,-7,-3,5,-2
1529289734972670,8,-17,-16,1,-6,0,29,20
1529289734972670,-34,-32,49,10,10,14,3,-1
1529289734987325,2,-36,-45,-21,-7,2,-9,-12
1529289734987325,21,5,8,4,-1,-5,-6,3
1529289735002457,-18,-13,-1,-11,-9,-6,-17,-11
1529289735002457,29,0,0,39,7,1,19,18
1529289735017420,-16,-14,15,15,10,11,-7,-18
1529289735017420,37,18,-38,-8,-7,-5,2,2
1529289735025443,-3,18,30,0,-7,-11,-10,-8
1529289735025443,-13,-17,-2,23,14,12,0,-7
1529289735040280,-5,8,28,11,-5,-15,-7,4
1529289735040280,-2,-9,20,-6,-7,-17,-40,-23
1529289735047395,-9,9,-76,-42,-3,17,29,8
1529289735047395,-4,20,46,16,-2,-13,-17,-5
1529289735069152,-12,-23,-73,-24,-3,9,33,4
1529289735069152,-10,-4,1,9,7,12,1,-3
1529289735092090,8,15,8,-1,-3,-9,-7,-13
1529289735092090,-19,-1,-35,16,0,1,29,1
1529289735100230,19,16,13,-2,4,8,22,19
1529289735100230,5,14,-20,2,7,8,6,3
1529289735122779,6,8,34,12,-5,-11,-21,-5
1529289735122779,-23,14,-1,4,22,39,40,14
1529289735137380,-17,14,77,31,13,9,8,-2
1529289735137380,17,14,-67,-62,-29,-28,-22,4
1529289735144548,-1,-5,-46,-23,-6,-6,-6,-5
1529289735144548,-8,-1,8,-5,-1,-2,34,9
1529289735152754,4,6,-47,4,6,11,10,3
1529289735152754,9,-13,65,8,4,-7,-25,7
1529289735167721,-19,-8,-49,13,-1,9,5,-5
1529289735167721,7,-28,12,-9,-8,-14,-26,-12
1529289735182853,17,6,16,-9,-7,-17,-33,-2
1529289735182853,8,-7,-65,-17,-10,-12,-7,-2
1529289735196654,11,4,64,28,12,27,45,25
1529289735196654,-6,-15,20,-23,-27,-23,-40,-21
1529289735212957,-10,-2,-12,-11,2,9,23,2
1529289735212957,2,-32,-4,-49,-13,-15,-18,2
1529289735227953,23,12,-35,0,-3,-3,-7,10
1529289735227953,-20,-31,22,6,3,-6,-47,-27
1529289735234733,-25,-8,23,5,1,15,55,8
1529289735234733,-7,-6,-6,2,-1,-6,-23,-8
1529289735249692,6,10,12,-1,11,15,13,4
1529289735249692,4,12,-18,21,11,7,18,2
1529289735264654,-13,-13,5,26,12,10,27,1
1529289735264654,15,26,43,-49,-19,-13,0,22
1529289735287410,32,22,22,6,-1,-16,-36,-8
1529289735287410,1,-7,-2,2,1,-2,13,11
1529289735294391,1,19,27,-8,0,0,14,2
1529289735294391,-14,8,-53,-10,0,18,26,-7
1529289735310350,-10,-15,9,2,5,0,-4,0
1529289735310350,-1,-22,-7,2,2,2,-4,0
1529289735324315,-12,-23,21,-68,-19,-5,-4,-4
1529289735324315,-4,-27,-68,5,-1,4,6,-4
1529289735340227,2,4,-66,8,-37,-12,-17,-10
1529289735340227,-33,-4,76,0,-7,14,19,-11
1529289735347948,3,-11,-79,-21,-9,-2,9,-10
1529289735347948,-1,54,34,20,3,-14,-45,-12
1529289735362048,-20,1,6,-1,17,4,-4,-6
1529289735362048,19,39,-43,0,1,5,-15,10
1529289735377005,-13,-25,-36,6,-7,-22,-24,-15
1529289735377005,-2,20,-26,-14,-2,-8,-19,-7
1529289735385203,10,-2,27,23,20,14,-8,10
1529289735385203,-5,-29,-45,-11,-13,0,23,11
1529289735399980,0,15,5,14,-3,-7,-14,1
1529289735399980,15,-5,18,11,10,14,52,15
1529289735407128,12,12,-53,2,11,8,-13,1
1529289735407128,6,11,31,-33,-15,-11,-8,-3
1529289735436883,5,-4,-4,11,6,3,-2,-3
1529289735436883,-3,9,-10,-10,-1,-9,-52,-19
1529289735452313,0,-1,9,-28,-1,7,26,19
1529289735452313,3,10,25,22,3,-13,-21,0
1529289735459293,-1,3,16,-1,5,15,41,16
1529289735459293,6,-7,-4,-10,-11,-19,-22,3
1529289735474777,-10,27,42,10,-1,-3,8,-6
1529289735474777,0,28,-9,12,1,5,24,7
1529289735482767,8,3,-5,0,-11,-10,23,15
1529289735482767,5,35,15,9,7,3,5,5
1529289735497963,-5,-21,-22,-27,-2,-1,-30,-15
1529289735497963,1,-9,11,21,8,-2,-18,-5
1529289735504794,7,-1,5,-4,-2,-1,-6,-6
1529289735504794,-1,-3,-5,-7,-14,-17,-14,-8
1529289735519678,7,0,7,29,10,1,-11,-1
1529289735519678,-3,-12,-3,-20,-10,-12,-3,-11
1529289735526945,2,1,-16,8,5,3,-4,-4
1529289735526945,-6,16,49,7,10,15,27,11
1529289735542775,-10,-5,-4,7,6,1,1,-6
1529289735542775,-5,-4,5,-15,-14,1,10,7
1529289735556688,5,-2,1,-15,-5,2,24,12
1529289735556688,-3,-4,14,10,9,14,9,2
1529289735564869,3,-11,-14,2,0,-4,-1,1
1529289735564869,2,-11,-13,3,3,11,14,7
1529289735579649,-4,-4,11,-18,-6,0,5,-2
1529289735579649,-2,-26,-7,10,-1,-7,-18,-2
1529289735586604,-3,-29,-33,9,11,11,3,-2
1529289735586604,2,21,30,6,-2,6,10,4
1529289735594586,2,4,4,7,8,-2,-19,-8
1529289735594586,2,30,23,14,8,0,-12,-5
1529289735602562,7,8,4,13,5,6,29,14
1529289735602562,-3,-18,-18,-7,-5,-2,7,7
1529289735624503,3,10,3,23,5,9,13,0
1529289735624503,1,-4,-9,-41,-16,-8,3,-1
1529289735632634,1,17,21,23,10,9,8,1
1529289735632634,1,-5,-1,1,-5,-4,-11,-5
1529289735654423,-3,-3,-3,-21,-7,-4,-10,-1
1529289735654423,-4,-16,-14,8,4,0,1,-6
1529289735662569,-1,13,9,-12,-13,-12,0,0
1529289735662569,-3,-16,-13,-5,-2,-3,-4,-4
1529289735684899,-7,-10,-19,-16,-14,0,0,-6
1529289735684899,-3,-5,-3,-4,1,1,2,-4
1529289735692568,-2,6,14,16,4,0,-14,-6
1529289735692568,-1,-9,-23,-16,-11,-9,-7,-1
1529289735707528,0,1,-4,-9,-3,-2,0,0
1529289735707528,0,3,22,8,-6,-3,-2,-2
1529289735714510,0,0,-3,12,5,-12,-4,-2
1529289735714510,-5,-4,-15,1,2,5,6,-1
1529289735729511,-7,-7,-12,-40,-23,-6,-3,-2
1529289735729511,-3,5,19,6,11,8,1,-1
1529289735744469,2,0,2,25,1,3,2,1
1529289735744469,-5,-14,-37,-15,-7,-4,-2,-4
1529289735752456,-1,0,-9,-13,-9,-6,-6,-2
1529289735752456,0,-4,-4,-9,-2,0,-1,-1
1529289735759391,1,-1,15,10,3,-2,4,3
1529289735759391,2,-2,1,3,1,8,7,1
1529289735767370,3,6,0,1,0,-1,0,2
1529289735767370,3,2,3,-5,6,4,1,1
1529289735774351,-2,-2,5,7,5,0,0,-1
1529289735774351,-1,0,2,11,5,-5,-1,0
1529289735782330,-1,-2,-3,-1,1,5,-2,-3
1529289735782330,-1,-4,3,-6,-5,-3,-2,-4
1529289735804271,1,1,7,21,12,0,0,1
1529289735804271,-3,-8,-18,-43,-37,-12,-2,-2
1529289735812250,-2,-4,-2,-9,-6,1,-2,0
1529289735812250,-3,-2,-3,5,5,5,0,-1
1529289735834191,-3,-24,-1,2,8,-3,-3,-2
1529289735834191,0,-3,-3,-3,0,-4,-3,-1
1529289735842169,2,6,2,2,-2,0,-1,-1
1529289735842169,-3,-13,1,5,2,-1,-1,-2
1529289735850149,-1,1,-5,-3,2,-1,0,-1
1529289735850149,-2,-7,0,9,5,4,-1,-3
1529289735865109,0,-3,-2,-5,-3,-2,0,0
1529289735865109,-1,4,-3,0,0,-1,-3,2
1529289735872090,0,5,-1,-1,0,1,-1,0
1529289735872090,-5,-8,-3,5,1,0,-1,-2
1529289735880067,-2,6,-3,-3,0,-2,-2,-2
1529289735880067,-2,-9,-2,0,-3,-3,-1,-2
1529289735902010,2,-2,-3,-4,-3,1,-3,-1
1529289735902010,1,-1,2,14,13,0,0,-1
1529289735910986,-1,4,-2,-3,-1,0,-3,-2
1529289735910986,0,10,-2,-2,6,4,9,2
1529289735916970,-3,14,1,10,8,-3,-8,-6
1529289735916970,-3,3,-2,-1,-2,1,2,0
1529289735924949,2,3,-2,-1,4,4,3,0
1529289735924949,-2,-9,-2,-5,-6,-2,-4,-1
1529289735931930,1,-12,-1,-3,-3,1,0,0
1529289735931930,0,-7,2,6,2,-1,-1,0
1529289735946890,-2,-4,-5,-6,-4,-5,-3,-3
1529289735946890,0,-3,1,1,-1,0,-3,0
1529289735954869,-1,11,2,2,1,1,7,0
1529289735954869,0,2,0,4,2,2,0,-1
1529289735961850,4,-10,1,1,0,1,3,3
1529289735961850,0,-1,-1,0,-2,-2,-10,-6
1529289735976810,-4,-17,0,-3,-5,-6,-16,-6
1529289735976810,-2,-15,-4,-3,-4,-3,-1,-2
1529289735984789,-5,-12,-3,3,3,3,4,1
1529289735984789,-2,-7,-2,-1,1,2,0,-4
1529289735999749,4,24,-5,-1,4,1,-2,1
1529289735999749,-2,0,3,1,-3,-3,-5,-1
1529289736006730,-2,3,1,-2,-3,-2,-4,-2
1529289736006730,-1,3,-1,-2,-4,-2,-3,0
1529289736014709,0,7,-3,-4,-4,-5,0,1
1529289736014709,1,8,2,-1,0,0,5,0
1529289736021690,0,6,1,-4,-8,-2,4,2
1529289736021690,0,7,1,5,12,5,3,1
1529289736036651,-1,0,0,1,-2,1,1,-2
1529289736036651,-1,2,-3,-3,-1,-1,-4,-1
1529289736044627,-1,0,0,0,0,-3,-6,-2
1529289736044627,-2,-3,-2,-6,-9,-9,-2,1
1529289736066742,0,-4,-1,-2,-8,-11,-19,-5
1529289736066742,2,0,0,-1,-2,0,9,4
1529289736074767,-3,2,-3,-3,-1,0,7,-2
1529289736074767,1,-2,-1,1,2,-1,-10,-2
1529289736081753,-9,-8,-1,-1,-2,-2,5,-10
1529289736081753,-10,-2,1,4,0,5,-4,-5
1529289736089726,10,-3,-1,-1,0,-3,1,3
1529289736089726,-15,-6,1,-3,-3,3,7,-8
1529289736104799,12,0,4,-4,-5,-6,-9,-5
1529289736104799,4,11,0,0,-5,-9,-15,-6
1529289736119815,-7,-4,-6,-6,0,2,3,0
1529289736119815,-5,-6,-1,0,0,0,3,-1
1529289736135169,-1,-6,-3,1,1,2,-3,-2
1529289736135169,-3,6,0,-3,-1,0,2,-1
1529289736142158,-4,-1,3,4,3,4,5,4
1529289736142158,0,7,-1,0,2,1,2,2
1529289736150181,-2,3,-2,-9,-10,-4,-5,-3
1529289736150181,-1,3,-5,7,2,-5,-2,-1
1529289736165322,-1,-6,1,-5,3,4,7,5
1529289736165322,2,-13,-7,-1,-4,-4,-5,-2
1529289736172343,-3,-8,-2,-1,3,1,-2,-3
1529289736172343,-2,-9,-8,-6,-7,-4,1,-1
1529289736187307,1,-1,-4,3,5,1,0,3
1529289736187307,-3,2,0,7,3,0,-1,0
1529289736195286,-1,-3,-5,0,0,2,17,4
1529289736195286,-34,-7,1,0,2,5,17,0
1529289736202449,6,-1,0,3,2,-1,-12,-4
1529289736202449,4,5,0,-1,0,4,7,4
1529289736217670,-8,0,1,0,2,1,-11,-1
1529289736217670,8,6,2,0,-3,0,9,4
1529289736225467,-8,-1,1,-2,0,-1,0,0
1529289736225467,-7,1,-2,-6,-3,-1,-2,-10
1529289736240449,-14,-1,0,1,-4,-6,-6,-22
1529289736240449,23,3,0,-2,-2,-1,-2,6
1529289736247575,0,1,0,1,0,1,0,-1
1529289736247575,4,2,1,0,-1,-1,-1,-2
1529289736254789,7,-2,1,-2,-4,0,3,4
1529289736254789,-2,-4,-1,-3,0,-3,-9,-5
1529289736262588,3,-1,0,1,1,1,4,1
1529289736262588,3,-3,-1,0,1,2,5,10
1529289736277549,0,-1,-4,1,1,1,0,5
1529289736277549,-1,-1,-4,-2,0,-1,-4,-1
1529289736284529,-30,-10,-5,1,0,3,6,17
1529289736284529,31,11,-3,-1,-3,1,2,2
1529289736299669,4,3,-3,0,0,-2,-1,1
1529289736299669,2,0,-2,-3,-4,-3,-6,-7
1529289736307635,-3,-1,1,-2,0,-2,-1,-3
1529289736307635,-13,-1,0,-2,0,-2,-5,-4
1529289736314630,2,2,3,-2,1,0,-1,1
1529289736314630,4,5,0,-1,1,-1,-4,1
1529289736322611,6,8,2,-1,-2,-2,-6,-4
1529289736322611,-6,0,3,-1,-3,-1,-2,-3
1529289736337388,3,-8,1,-1,-2,-1,-3,-2
1529289736337388,-8,-4,0,-3,-2,-2,-3,-6
1529289736344543,3,-1,-4,-2,-1,-1,-2,-5
1529289736344543,-3,0,-4,-1,-1,-1,-2,-1
1529289736375315,-4,-2,-3,0,-2,1,2,4
1529289736375315,-2,-3,-3,0,-1,-2,-1,-1
1529289736382668,3,0,-2,-1,0,-1,1,-3
1529289736382668,-2,-3,-3,0,0,-2,1,0
1529289736389488,-1,-1,-1,-1,-2,0,0,0
1529289736389488,1,-2,-3,-2,-2,0,-3,-1
1529289736397763,4,1,0,0,-2,-1,1,-3
1529289736397763,-8,-6,-2,-2,-1,0,0,-1
1529289736412585,-2,-1,-1,1,-1,-1,-1,-1
1529289736412585,-1,-2,-5,-7,-4,-2,-2,-2
1529289736427800,-1,3,4,5,0,0,0,-6
1529289736427800,9,3,1,5,3,1,1,3
1529289736434741,6,0,-1,-1,0,0,5,4
1529289736434741,9,-1,-2,-3,-2,-6,-10,-7
1529289736441897,-11,-4,0,2,2,-1,2,0
1529289736441897,-3,1,4,4,1,1,6,4
1529289736456717,10,-3,-1,-5,-2,-1,0,6
1529289736456717,-29,-3,0,-1,-2,-1,-2,-20
1529289736464836,-2,-2,2,3,0,2,4,0
1529289736464836,3,-1,-3,-7,-2,-1,-3,3
1529289736479827,-7,0,-2,-3,-2,-3,-3,2
1529289736479827,5,-1,-1,0,-1,1,2,8
1529289736486808,2,-1,-2,0,-3,-3,-5,-4
1529289736486808,-4,-3,1,1,-1,1,-1,-6
1529289736494787,3,0,-4,-2,1,-2,1,-2
1529289736494787,-3,-3,-2,-4,-4,-1,-2,0
1529289736502805,2,0,1,1,-2,-1,-2,-2
1529289736502805,-1,-3,-2,-1,-1,-1,0,0
1529289736517913,-2,-2,-4,-1,-1,0,-3,-3
1529289736517913,2,-1,-1,0,-1,-1,0,2
1529289736524889,-2,-2,-2,-2,0,1,-2,0
1529289736524889,-1,-1,-4,-3,0,-4,-4,-3
1529289736539671,-4,-1,-1,-2,-3,-1,-2,-2
1529289736539671,-4,-3,2,0,-1,-2,0,0
1529289736547874,6,1,-1,-1,-1,-1,0,2
1529289736547874,2,0,-1,-1,-1,-1,0,-2
1529289736554733,-4,-2,-1,-2,-1,-3,-3,-2
1529289736554733,1,-3,-2,0,-2,0,0,2
1529289736562718,-3,-2,-2,-3,-2,-3,-3,-1
1529289736562718,-1,0,0,1,-1,2,-2,-2
1529289736577679,-3,0,-2,0,-1,-2,0,-1
1529289736577679,-1,0,-1,-2,1,-1,-1,1
1529289736584654,-1,-2,-2,-1,0,-3,-1,-4
1529289736584654,-2,-1,-2,-1,-1,-2,0,-3
1529289736599681,0,-1,-2,-2,-1,1,-1,0
1529289736599681,-1,-1,-2,-1,-1,0,-2,0
1529289736607944,0,-1,2,-2,-1,0,-2,1
1529289736607944,-1,0,0,-1,0,-2,-1,-1
1529289736614805,-1,-1,-3,0,-1,1,-1,-2
1529289736614805,1,0,1,-1,0,-1,0,0
1529289736622795,-3,0,-1,-2,-1,1,-1,0
1529289736622795,-2,-1,-1,-1,-3,0,-1,1
1529289736637638,1,0,-2,0,0,-1,-1,-1
1529289736637638,-1,0,-3,-1,-1,-2,-1,1
1529289736652826,0,-1,-1,1,-1,-3,0,-2
1529289736652826,-1,-1,-3,-2,-1,-2,-1,-2
1529289736660166,-3,-1,-3,-1,-1,-3,-1,-2
1529289736660166,1,-1,0,-2,1,1,1,0
1529289736682796,-2,0,-3,0,-1,0,0,1
1529289736682796,-2,-1,-3,0,-2,1,-1,0
1529289736697806,0,-1,-2,-2,-1,-3,-1,0
1529289736697806,-1,0,0,-1,-1,-1,-2,0
1529289736704689,0,-1,1,1,-2,-1,-1,0
1529289736704689,-1,-2,0,0,-1,-2,1,-2
1529289736719649,-2,0,0,-1,-1,1,-1,-1
1529289736719649,0,-1,1,-1,-1,-1,1,-1
1529289736734611,-3,-1,1,-1,-1,-2,-1,-1
1529289736734611,-2,1,0,-1,-1,0,-3,-3
1529289736749754,-2,0,-1,0,-1,1,-1,-1
1529289736749754,-1,-1,0,-2,-1,0,-1,0
1529289736757726,-3,-2,0,-2,-3,-1,-2,-2
1529289736757726,-1,-4,-3,-2,-3,-3,-1,-1
1529289736772685,-1,-2,-2,-2,0,-1,-2,-1
1529289736772685,-1,-1,-2,-1,-1,1,1,-1
1529289736779520,1,-1,-2,0,-1,-1,1,0
1529289736779520,-1,2,-1,0,-1,-1,0,-1
1529289736794631,-1,-2,-1,-2,-1,0,-2,-1
1529289736794631,0,1,0,1,-2,-1,-2,-1
