timestamp,emg1,emg2,emg3,emg4,emg5,emg6,emg7,emg8
1528278301506979,3,7,14,2,0,21,28,21
1528278301506979,-6,-16,17,-2,-8,2,-4,-19
1528278301507977,0,17,-8,-8,-3,-14,-5,3
1528278301507977,0,-9,-4,-5,-23,-23,-14,-4
1528278301508974,-5,7,-1,-2,21,25,12,-1
1528278301508974,-5,-8,-10,-2,-10,-10,-18,-13
1528278301509972,9,-6,11,11,-5,1,8,16
1528278301509972,4,10,1,-7,-4,2,0,3
1528278301513961,-1,-8,-3,-1,-13,-27,-15,-4
1528278301513961,-10,1,-9,-6,2,-7,12,-3
1528278301536898,-1,5,1,-2,-17,13,2,2
1528278301536898,-1,-10,-12,6,26,27,13,3
1528278301537896,2,1,-3,-2,-10,-18,-11,-5
1528278301537896,11,13,0,3,9,9,-7,16
1528278301542882,-5,-8,-7,-6,-7,0,12,-10
1528278301542882,-11,-2,12,1,-3,-15,-10,-15
1528278301557842,-8,-7,-12,5,13,7,-2,-10
1528278301557842,2,3,5,-1,-18,-8,1,6
1528278301573801,5,-5,-17,-9,7,-3,0,3
1528278301573801,3,3,8,6,-1,-5,-4,7
1528278301580782,-1,-4,-2,-2,10,34,16,-8
1528278301580782,-5,-3,-5,-3,-3,-2,-1,1
1528278301596739,-10,-7,6,-2,-11,0,-2,-6
1528278301596739,4,1,-9,-6,-6,-31,-14,-7
1528278301598734,-11,-4,4,-5,-30,-24,-6,-7
1528278301598734,17,4,0,10,22,7,8,29
1528278301619679,4,4,3,3,4,40,10,-1
1528278301619679,-6,1,-6,-4,4,22,20,-5
1528278301620680,-6,-7,-9,-6,-13,-22,-23,-6
1528278301620680,-4,8,0,-8,-15,-22,-10,-15
1528278301633641,-2,1,10,2,6,-30,-29,-8
1528278301633641,-3,-6,-9,7,3,36,31,6
1528278301640621,5,-1,-4,-4,22,8,-6,7
1528278301640621,19,12,1,6,7,9,26,20
1528278301656579,-4,-8,-4,-4,7,-12,-22,-6
1528278301656579,-3,0,8,2,-2,10,4,-1
1528278301658573,-7,-1,-7,-6,-6,-4,-7,-16
1528278301658573,-5,-6,-2,-10,-17,-27,-14,-10
1528278301679519,-1,-5,-9,2,-5,-13,2,3
1528278301679519,3,7,0,1,21,4,-4,-2
1528278301680516,3,-6,2,7,14,36,18,9
1528278301680516,-4,-9,-6,-8,-33,-23,-15,-3
1528278301692487,-7,0,3,-3,7,19,12,-13
1528278301692487,0,1,-10,-6,-8,-43,-32,3
1528278301701470,9,14,20,12,-3,-33,-24,0
1528278301701470,-4,-1,2,4,21,59,41,6
1528278301724399,-1,-2,-1,2,10,12,0,-5
1528278301724399,-10,-12,-6,-7,-16,-26,-14,-8
1528278301730383,1,0,-6,-24,-72,-52,-13,-8
1528278301730383,4,7,-1,22,73,46,9,10
1528278301739359,4,7,10,8,5,21,14,-1
1528278301739359,0,-2,9,6,-1,0,4,4
1528278301740356,0,-4,-16,-26,-26,-15,-4,-1
1528278301740356,-9,-2,1,-7,-22,-22,-17,-13
1528278301753322,2,-7,-12,11,35,14,6,7
1528278301753322,6,7,8,1,-10,-9,-9,3
1528278301761300,-3,1,-1,4,8,35,18,1
1528278301761300,-3,-5,1,2,28,11,-1,-2
1528278301776258,-1,2,-3,-7,-10,-20,-16,0
1528278301776258,0,-6,-1,-3,-9,7,9,-1
1528278301784237,0,-3,0,5,18,4,2,3
1528278301784237,-5,-4,-5,-2,-6,-4,-4,-6
1528278301799197,-4,-3,-1,-20,-41,-33,-14,-7
1528278301799197,2,2,-2,13,30,25,10,7
1528278301801192,4,2,2,7,9,-1,2,3
1528278301801192,-2,-3,-1,-9,-17,-6,-7,-6
1528278301813160,-7,-2,-1,-2,-14,-15,-4,-9
1528278301813160,-4,-5,-3,1,-6,1,1,3
1528278301837098,16,4,1,12,45,34,8,11
1528278301837098,-7,-1,-1,-2,-12,-8,-5,-10
1528278301838095,-2,-1,-1,-2,-1,1,1,2
1528278301838095,-6,-3,-3,-7,-11,-7,-5,-7
1528278301840090,-14,-8,-1,-2,-20,-20,-12,-11
1528278301840090,11,2,0,2,13,10,4,11
1528278301867017,7,7,-3,3,3,4,7,7
1528278301867017,0,2,2,-2,0,4,-2,-2
1528278301868013,-11,-8,-3,-4,-5,-8,-5,-9
1528278301868013,-13,-4,-3,-8,-14,-11,-6,-11
1528278301873000,22,3,1,1,3,1,6,23
1528278301873000,2,0,-1,-4,-5,-1,0,0
1528278301881977,1,0,2,3,2,2,-1,1
1528278301881977,-11,-5,0,-1,-7,-4,-2,-10
1528278301896936,-12,-4,-3,-2,0,-7,-7,-15
1528278301896936,10,4,0,0,9,10,3,8
1528278301897934,-3,0,1,-4,-7,-2,3,-2
1528278301897934,2,-1,-1,6,21,11,2,2
1528278301918878,-3,-1,10,0,5,-1,-1,-4
1528278301918878,-9,-9,-9,-6,-5,0,-3,-7
1528278301920873,-1,-3,-2,1,-4,-6,-1,0
1528278301920873,4,0,-2,-4,-7,-5,-2,-1
1528278301932840,-2,-2,-1,1,3,3,0,1
1528278301932840,-6,-2,-2,-2,-9,-5,-2,-9
1528278301949796,8,1,0,3,7,5,1,9
1528278301949796,2,-2,-3,-4,-12,-8,-2,1
1528278301956793,-4,-3,-4,1,0,-1,-2,-2
1528278301956793,-1,5,-3,-2,-2,-1,-2,-1
1528278301957774,-3,-8,-6,-6,-10,-7,-2,-2
1528278301957774,4,1,-3,4,7,8,4,2
1528278301978717,-5,-2,1,0,-5,-1,-1,-2
1528278301978717,-2,-1,-2,-8,-4,-2,-3,-3
1528278301980721,-3,4,-5,2,16,6,-1,-3
1528278301980721,-13,-5,-7,-7,-17,-13,-7,-5
1528278302001657,4,-3,9,-10,-3,-1,-2,-6
1528278302001657,17,20,-2,19,15,1,-11,-2
1528278302003661,36,-15,11,25,9,1,17,19
1528278302003661,-60,-5,-1,16,7,4,2,0
1528278302016621,-38,-4,-8,-25,-20,2,18,3
1528278302016621,-2,-15,-14,-61,-29,-12,-25,-21
1528278302018613,-64,1,-19,-9,3,-38,-108,-109
1528278302018613,102,44,19,39,-6,16,81,100
1528278302039556,30,-46,5,18,21,21,27,22
1528278302039556,-12,-12,9,7,0,5,18,7
1528278302040559,-3,-3,4,8,-8,-14,-37,-43
1528278302040559,-31,-18,-21,-60,-27,-6,-18,-15
1528278302052522,-24,24,-11,-10,-16,-18,-28,-19
1528278302052522,-4,-15,-2,-7,23,11,11,5
1528278302061678,30,38,52,86,52,20,21,3
1528278302061678,22,-22,-13,-43,-29,-14,-14,9
1528278302076507,43,5,2,2,14,10,33,28
1528278302076507,-15,13,1,3,-9,-1,-2,-10
1528278302078451,23,-10,-21,-57,-23,10,31,28
1528278302078451,-24,6,3,-1,-6,-5,-13,-36
1528278302115352,35,33,6,15,10,-15,-20,-2
1528278302115352,-23,-12,6,42,22,-7,-23,-23
1528278302116350,-5,-24,-8,-13,-22,-3,-2,10
1528278302116350,28,-9,-4,-24,0,9,19,13
1528278302117353,-37,-17,-40,-105,-53,-6,-2,-1
1528278302117353,14,45,49,117,66,8,-1,-12
1528278302121338,-3,-7,-10,-17,-10,4,18,29
1528278302121338,13,10,9,10,18,2,-4,-4
1528278302136297,7,22,12,13,-7,-8,-29,-22
1528278302136297,-2,-32,-17,-16,-13,0,17,27
1528278302138292,-28,-8,-15,-37,-20,-7,-2,-9
1528278302138292,14,1,-7,-19,-7,-7,-24,-19
1528278302166218,-7,9,20,80,43,14,31,20
1528278302166218,17,16,0,-34,-16,0,3,4
1528278302168211,-8,-21,-16,-28,-19,-16,-24,-18
1528278302168211,-12,-23,-5,12,-5,-6,5,5
1528278302173199,-15,-6,4,17,17,-5,-14,-6
1528278302173199,6,-8,-4,-10,-8,7,7,-3
1528278302182174,-4,8,-9,-26,-20,-1,7,32
1528278302182174,-5,18,9,9,22,-4,-7,-22
1528278302204116,-10,-11,7,19,5,-3,-6,-14
1528278302204116,0,-7,-5,-6,-5,0,-3,-11
1528278302206150,-16,-4,-4,-7,-11,3,18,13
1528278302206150,21,6,1,12,14,-9,-14,-6
1528278302220086,-29,12,-3,-10,-8,-1,-9,-13
1528278302220086,-13,-37,-18,-40,-30,-13,-3,8
1528278302225079,25,28,8,9,8,2,4,8
1528278302225079,6,2,6,24,17,6,5,3
1528278302233038,28,-4,-10,-39,-14,-4,-4,-1
1528278302233038,-14,1,11,38,11,-2,-10,-4
1528278302242014,1,5,-3,-4,3,2,7,3
1528278302242014,-30,-25,-5,14,3,0,-2,2
1528278302266231,-13,0,-3,-18,-15,5,8,-4
1528278302266231,13,5,-9,-16,-9,-5,-3,5
1528278302267203,14,8,8,1,11,9,9,9
1528278302267203,-23,-11,0,13,12,2,-13,-25
1528278302280169,-3,-17,-10,-4,-16,-3,-4,1
1528278302280169,20,1,-4,-11,1,-6,-3,12
1528278302281166,-1,6,16,32,19,9,7,0
1528278302281166,-21,2,-2,-9,-16,-5,-8,-6
1528278302293433,1,-2,-13,-35,-17,-2,-8,-11
1528278302293433,-1,8,9,52,40,4,5,8
1528278302301526,-22,12,-2,-7,-7,-3,-11,-30
1528278302301526,5,-35,-4,-14,-13,0,7,21
1528278302316486,-1,-1,8,40,25,6,6,-1
1528278302316486,-2,-2,-12,-35,-24,-4,-5,-7
1528278302340565,-5,2,3,4,4,-3,5,1
1528278302340565,-15,-4,-6,1,12,-5,-13,-16
1528278302340565,-1,-4,7,13,0,-4,-9,-2
1528278302340565,-16,2,-9,-34,-22,1,4,-12
1528278302342433,19,-21,1,13,3,2,7,27
1528278302342433,0,14,5,11,19,5,0,-2
1528278302352943,5,-10,-3,-3,-7,-4,-3,4
1528278302352943,-9,16,-2,-5,-3,3,2,-2
1528278302361705,4,-16,-6,3,1,1,2,-7
1528278302361705,1,14,10,-20,-21,-8,-4,-2
1528278302376303,-5,-8,3,25,21,2,-3,-5
1528278302376303,-8,-10,-10,-3,-12,-5,-1,-5
1528278302390894,-4,2,-6,-23,-21,-17,-1,6
1528278302390894,13,16,9,14,3,11,4,7
1528278302398855,-2,-3,-10,-10,5,10,-1,-3
1528278302398855,-10,4,10,-5,-2,-4,2,5
1528278302398855,-9,-21,-14,36,7,-3,-5,-9
1528278302398855,-2,4,-9,-16,-13,-8,-5,-11
1528278302421014,4,9,11,3,-3,-4,-3,-5
1528278302421014,7,-22,-9,-13,-5,0,1,14
1528278302421797,2,19,4,4,4,7,11,12
1528278302421797,-4,-10,-28,-4,-5,-2,-3,-9
1528278302453706,-2,-3,-16,-15,-10,-7,-5,-3
1528278302453706,-5,-2,4,-13,-11,-9,-9,-12
1528278302454797,-14,-17,4,-2,-2,-8,-5,-10
1528278302454797,0,-4,5,3,-5,8,6,4
1528278302458692,15,30,16,27,29,15,7,16
1528278302458692,6,0,-10,-15,-9,-7,0,2
1528278302459690,-3,-13,4,14,12,8,1,2
1528278302459690,-1,-2,-3,-19,-23,-20,-13,-10
1528278302481808,-13,7,-13,-5,-10,-7,-3,-7
1528278302481808,10,-5,10,-2,-4,2,7,9
1528278302481808,29,31,-5,-2,16,11,10,19
1528278302481808,-13,-2,-7,-17,-5,-3,-10,-14
1528278302503859,-12,-19,-2,-23,-16,-14,-3,-5
1528278302503859,-12,-4,7,49,7,3,-7,-14
1528278302504570,4,-4,-3,-30,-2,-1,0,-1
1528278302504570,5,6,10,2,-4,0,3,6
1528278302526733,6,-2,-3,1,8,5,5,4
1528278302526733,-6,-3,-16,-33,-14,-5,-3,-4
1528278302526733,-13,-10,-2,1,2,-2,0,-3
1528278302526733,-11,0,12,37,8,3,3,-14
1528278302541687,5,-4,-9,-20,-14,-5,-8,2
1528278302541687,13,0,6,16,9,3,-17,-24
1528278302542601,6,13,3,2,-1,-2,-2,22
1528278302542601,-7,-2,-3,10,3,-2,4,-3
1528278302564321,3,1,5,6,-7,-6,19,2
1528278302564321,-21,-21,-10,-7,-2,4,-1,-3
1528278302564321,15,12,10,-6,0,4,-13,-2
1528278302564321,-1,-11,-7,-6,-4,-8,-11,5
1528278302586260,-11,-2,-11,0,-4,-5,-6,-11
1528278302586260,0,-5,-12,-9,-2,-2,10,10
1528278302586960,-6,6,0,2,-9,-1,8,-15
1528278302586960,-4,-1,10,14,9,-4,0,10
1528278302609899,5,-4,5,1,10,8,0,2
1528278302609899,19,7,-7,-10,-8,-11,-16,11
1528278302609899,-12,-12,-5,3,-2,0,4,-9
1528278302609899,-1,15,6,5,7,5,9,-16
1528278302624218,-6,-10,-7,-3,-10,-11,-21,-1
1528278302624218,4,23,12,4,7,7,10,11
1528278302624218,-11,-13,-7,6,5,-1,-6,-15
1528278302624218,4,5,8,-5,1,-5,-4,3
1528278302646801,0,-5,-7,4,15,15,18,10
1528278302646801,1,-2,15,1,-9,3,2,-2
1528278302647798,-2,14,-6,-6,-4,-4,-8,-4
1528278302647798,1,-8,-15,-17,-14,-6,-10,5
1528278302668742,-4,-3,11,7,8,-7,-2,-9
1528278302668742,3,1,-5,1,-8,-9,-9,0
1528278302669739,3,7,13,6,11,6,14,10
1528278302669739,-6,-17,-9,-11,-3,5,-13,-6
1528278302683701,0,9,-6,-7,-15,-5,12,11
1528278302683701,0,9,5,5,-3,-10,-3,-12
1528278302684715,-7,-10,0,-10,10,9,0,-17
1528278302684715,4,9,7,-1,1,-10,-4,14
1528278302706672,1,-19,0,2,-3,13,4,5
1528278302706672,-12,-3,-17,-9,-4,-8,-4,-9
1528278302707638,-4,-5,-6,3,-3,0,-4,-6
1528278302707638,-7,-7,-6,-5,-2,8,5,-18
1528278302720640,15,16,8,1,-5,-19,-12,11
1528278302720640,8,2,-1,7,8,16,17,12
1528278302721600,8,0,14,13,0,4,2,15
1528278302721600,0,2,3,-2,1,5,4,-5
1528278302743543,-17,-12,-9,-8,-6,-11,-7,-21
1528278302743543,-10,-8,-1,1,-13,-12,-8,7
1528278302744540,25,-10,-2,-9,-9,-17,-6,24
1528278302744540,-6,17,-4,0,-8,3,11,-12
1528278302766486,5,-1,1,2,-1,-5,3,5
1528278302766486,-3,-1,1,-2,14,16,6,-6
1528278302767481,-16,-12,-3,-5,-7,6,-8,-15
1528278302767481,4,-4,1,-3,-11,-13,0,8
1528278302781679,1,0,-1,-1,0,-2,-11,-5
1528278302781679,2,7,7,6,7,-8,1,4
1528278302781679,-3,4,-6,-4,-2,23,15,4
1528278302781679,-3,-4,-5,-3,3,8,-5,-1
1528278302803675,0,0,2,1,-6,-9,7,2
1528278302803675,-2,-2,-14,-9,-2,-6,2,-10
1528278302804391,8,10,25,13,16,19,2,12
1528278302804391,4,-5,-14,-4,6,8,0,5
1528278302834706,-10,-7,20,2,-6,-4,-15,-10
1528278302834706,-1,0,-4,-9,-9,-14,-9,-1
1528278302834706,-15,-5,-23,-22,-22,-46,-25,-26
1528278302834706,2,13,13,2,-22,-31,-3,0
1528278302849681,1,-16,-13,9,34,46,15,11
1528278302849681,15,18,4,2,11,27,17,19
1528278302849681,-5,3,13,4,-3,-3,-5,-9
1528278302849681,1,-8,-1,-3,-3,-6,-2,2
1528278302863632,-4,3,-9,-5,-15,-32,-18,-15
1528278302863632,-6,-10,4,1,3,8,-3,-5
1528278302864629,-4,-7,-16,-5,-6,-6,-1,6
1528278302864629,-3,2,0,-4,-2,-1,-2,-6
1528278302886833,2,2,0,4,-1,2,-1,-1
1528278302886833,-4,-11,-4,-3,-10,-12,-7,-2
1528278302887575,3,8,1,1,-2,-22,-5,2
1528278302887575,-1,-5,-3,3,16,27,8,-3
1528278302901916,1,4,4,3,7,41,15,2
1528278302901916,-5,-1,1,-4,-5,-13,-7,-8
1528278302901916,-1,-7,-13,-6,-12,-28,-18,-5
1528278302901916,4,8,10,8,9,14,15,8
1528278302923895,0,1,1,-4,1,6,7,4
1528278302923895,-3,-5,-8,-6,-26,-16,-5,-4
1528278302924479,-5,-7,4,8,27,6,0,-8
1528278302924479,0,-3,-9,2,3,10,0,2
1528278302946650,2,1,-4,-8,-14,-15,-7,-2
1528278302946650,-3,-3,9,7,16,9,6,-2
1528278302947411,-6,-6,-10,-13,-11,-1,2,-3
1528278302947411,0,-2,4,3,-2,-12,-9,0
1528278302961397,-1,4,1,-2,3,-2,-1,-4
1528278302961397,0,-1,-3,-2,2,0,-3,-1
1528278302961397,-8,-5,-4,-7,-6,3,5,-11
1528278302961397,2,6,4,4,-5,-11,-9,14
1528278302983311,13,10,4,1,-5,-10,-11,0
1528278302983311,0,0,0,2,8,21,13,5
1528278302984335,-3,-2,-3,0,1,12,1,-3
1528278302984335,-11,-12,-10,-10,-14,-6,2,-13
1528278303006309,-6,-2,1,0,-7,-42,-23,-5
1528278303006309,6,7,0,3,11,20,13,7
1528278303007250,2,1,1,2,4,20,10,3
1528278303007250,-2,-5,-5,-2,4,-10,-5,-4
1528278303021266,0,0,-1,2,0,18,8,3
1528278303021266,-5,-6,-1,0,1,-10,-7,-6
1528278303022284,-2,1,-5,-6,-18,-18,-5,1
1528278303022284,2,1,2,2,13,12,1,0
1528278303051131,-2,-4,-3,-1,-3,-10,-2,-3
1528278303051131,-2,-4,-3,-3,-7,-7,-6,-4
1528278303052127,1,1,0,0,-1,2,1,4
1528278303052127,1,-3,-4,-4,0,-7,-7,-3
1528278303067089,-11,-7,-5,-4,-30,-15,1,-7
1528278303067089,15,4,4,6,22,24,13,21
1528278303068102,3,9,3,1,-3,-3,-4,-1
1528278303068102,-1,-3,1,-2,-1,-5,-4,-5
1528278303081105,-10,-8,-3,-6,-8,-5,-2,-5
1528278303081105,-5,0,-4,-6,-10,-6,-5,-5
1528278303082102,2,-5,-5,3,3,0,3,5
1528278303082102,-4,-9,-7,-4,-6,-2,-2,-2
1528278303103046,2,1,5,3,12,10,1,2
1528278303103046,-1,-1,-6,-4,-9,-11,-8,-6
1528278303103990,1,-1,3,-1,4,3,0,1
1528278303103990,-2,-6,-4,-1,-3,-1,-1,-2
1528278303126982,1,1,-1,-1,5,5,2,2
1528278303126982,-1,0,2,1,0,-3,-3,-4
1528278303127998,-2,-1,-2,-2,-11,-7,-3,-3
1528278303127998,2,1,0,0,-1,0,1,3
1528278303140947,1,-3,-2,1,7,5,3,0
1528278303140947,-4,3,-1,-5,-8,-7,-6,-5
1528278303141941,-1,-1,-1,0,0,1,1,0
1528278303141941,-1,3,0,0,-2,-4,-1,-2
1528278303164878,-1,3,-1,-1,3,5,1,-2
1528278303164878,-5,-3,-1,-3,-6,-7,-3,-3
1528278303165897,-3,-9,-3,1,3,3,2,1
1528278303165897,1,1,4,2,5,2,2,1
1528278303186822,0,4,-13,-6,-3,-4,-6,-1
1528278303186822,2,5,1,-1,-2,-2,0,2
1528278303187823,-1,-1,0,0,-1,-1,1,-1
1528278303187823,0,-3,-1,-1,-1,-3,0,1
1528278303200782,-5,-4,5,2,1,2,-2,-7
