timestamp,emg1,emg2,emg3,emg4,emg5,emg6,emg7,emg8
1528439674698673,1,-1,0,0,-2,-2,-1,0
1528439674698673,-1,-1,0,-1,0,0,-2,0
1528439674705665,-1,1,-1,-1,2,0,-2,1
1528439674705665,1,0,2,-1,2,1,-2,4
1528439674720616,0,-2,0,-2,-2,0,1,-2
1528439674720616,0,0,0,-1,1,-1,-1,-2
1528439674728612,-1,-2,-2,0,-3,0,0,-3
1528439674728612,-3,-4,-1,-2,-1,-1,1,-4
1528439674735576,0,1,-1,-1,1,0,1,-1
1528439674735576,-1,0,1,-1,0,0,0,1
1528439674750534,0,0,1,-2,-1,0,-1,0
1528439674750534,0,1,0,-2,-1,0,-3,0
1528439674758514,-1,-2,-2,-2,0,-2,-3,2
1528439674758514,0,-3,-5,1,-2,-1,-3,-1
1528439674773474,0,0,-1,1,1,-1,-2,1
1528439674773474,-1,-1,0,1,0,0,-1,0
1528439674780456,-2,-1,-1,0,-2,0,-3,-2
1528439674780456,-1,-1,1,-1,-1,0,1,-2
1528439674795541,-1,-2,-1,-1,0,0,2,-1
1528439674795541,1,-2,-1,-2,0,-1,0,-2
1528439674818600,-2,-3,-3,0,0,-2,-1,-2
1528439674818600,0,-1,-2,-2,0,-1,0,0
1528439674825717,1,0,0,0,-2,-1,1,0
1528439674825717,-1,1,-1,-2,-1,-1,2,-2
1528439674840533,2,1,0,-1,0,-4,0,-2
1528439674840533,1,-1,-1,-1,-1,-3,0,-1
1528439674848511,-1,0,-1,0,-1,-3,-2,-2
1528439674848511,0,-2,-1,1,-1,-1,-2,0
1528439674863470,-1,0,-2,1,0,3,-1,0
1528439674863470,0,0,0,1,0,-1,-1,-1
1528439674870499,-1,-1,0,-1,-1,-3,-3,-4
1528439674870499,-2,0,0,0,-1,-3,0,-1
1528439674878570,0,1,0,-2,0,-1,1,0
1528439674878570,0,0,0,-1,-1,-1,0,0
1528439674893419,0,0,3,1,0,0,2,-2
1528439674893419,0,-1,-1,-1,1,0,0,0
1528439674900400,-2,-1,0,0,-1,-1,-1,-1
1528439674900400,-1,1,-2,-1,-2,1,0,1
1528439674916347,0,-1,-1,-2,-2,1,-1,-1
1528439674916347,1,-2,-1,0,-2,-2,-2,0
1528439674923310,-1,-3,0,1,-1,0,0,-1
1528439674923310,-3,-2,-1,0,-1,-2,1,1
1528439674930624,-3,-2,0,-1,0,1,-1,3
1528439674930624,-2,-3,-2,-1,1,1,0,-1
1528439674945457,0,1,-1,-4,0,1,0,0
1528439674945457,0,0,-4,-2,1,1,-1,-2
1528439674960589,0,1,-1,0,0,-2,0,0
1528439674960589,0,0,0,1,-3,0,-1,-1
1528439674968568,0,-1,-2,0,-2,-2,-2,1
1528439674968568,-1,1,-2,0,-1,0,-2,-1
1528439674983648,1,0,0,-1,-3,1,-1,1
1528439674983648,0,-2,-1,0,-3,1,-2,-1
1528439674990665,-1,0,-2,-1,2,-1,-2,-2
1528439674990665,2,0,-1,-1,1,-1,0,-2
1528439674998490,-2,-2,1,0,0,-1,1,-1
1528439674998490,-1,-2,-1,1,0,-2,1,1
1528439675013653,-1,-2,-2,1,-1,-2,0,0
1528439675013653,-2,-1,0,0,0,0,0,-1
1528439675020633,0,-1,-1,0,-2,0,-1,1
1528439675020633,3,-2,-1,-2,-2,0,0,-1
1528439675035594,0,0,-2,-1,-1,-4,1,-1
1528439675035594,-1,1,0,-2,-1,-1,-2,-1
1528439675043587,0,0,-1,1,-2,1,-3,0
1528439675043587,-2,2,1,1,-2,1,-2,1
1528439675050692,-2,-2,-1,0,0,0,-1,1
1528439675050692,1,-2,-1,0,0,-1,0,0
1528439675058725,1,0,-1,-3,2,-2,-1,-2
1528439675058725,-1,-1,1,-1,0,-2,-2,-2
1528439675072905,-2,-1,2,-1,-1,-1,-2,0
1528439675072905,-3,0,-2,-1,1,1,-2,0
1528439675080936,-1,0,0,-2,0,-2,1,-3
1528439675080936,1,0,-2,1,-2,0,1,1
1528439675095844,1,-1,-1,-1,0,-1,1,0
1528439675095844,1,-1,-1,-3,-2,-2,-2,-1
1528439675102825,-1,-1,1,0,-1,-2,-3,1
1528439675102825,0,2,-1,0,-2,-1,-3,0
1528439675110803,-1,-1,-1,-1,-3,-1,-2,0
1528439675110803,-1,1,0,-1,-1,-1,0,0
1528439675117914,-3,-1,1,-1,2,0,2,-2
1528439675117914,1,-3,1,0,3,1,2,-1
1528439675132869,0,-2,-2,-3,1,2,1,-2
1528439675132869,0,-2,-2,0,0,1,0,-1
1528439675140859,0,-1,-1,-1,-2,-1,-1,-1
1528439675140859,-1,0,-1,1,0,-2,-3,0
1528439675156036,-2,1,-3,-1,-1,-1,0,-2
1528439675156036,0,-3,-2,-2,2,0,0,-1
1528439675163375,1,0,1,1,2,-1,1,0
1528439675163375,0,0,-2,-1,1,-1,0,2
1528439675171299,2,0,-1,-1,-2,2,-1,1
1528439675171299,0,-2,-1,-3,-3,1,-2,-1
1528439675178377,-1,-1,-1,0,-3,1,-3,-3
1528439675178377,-1,-2,-1,1,-2,-1,-1,-3
1528439675193498,-1,-1,1,0,0,-1,-3,-1
1528439675193498,-1,-2,1,1,-1,-3,-4,2
1528439675200476,0,-1,-2,0,-2,-2,-1,0
1528439675200476,-1,2,1,-2,0,-1,0,-4
1528439675215419,-3,0,0,0,1,0,4,-1
1528439675215419,-1,0,0,0,-3,0,2,-2
1528439675223419,0,1,-1,0,-2,-1,-1,0
1528439675223419,0,-1,0,-1,1,0,0,0
1528439675230596,-1,-1,-2,-1,2,0,-2,2
1528439675230596,-2,1,0,-1,0,-3,1,0
1528439675238575,-1,-3,1,-1,1,0,-1,0
1528439675238575,0,-1,-1,0,-1,-1,-1,-2
1528439675253579,-1,0,0,2,1,0,0,-2
1528439675253579,1,0,-1,0,0,0,2,0
1528439675260552,-1,0,0,0,1,1,1,-2
1528439675260552,1,-1,0,-2,-1,-3,0,0
1528439675275720,-1,0,-1,0,-2,-1,-1,0
1528439675275720,-1,-1,0,0,-1,-2,-3,1
1528439675283549,1,1,-1,-2,0,0,0,1
1528439675283549,-1,-2,1,-1,0,1,-1,-2
1528439675290664,0,-1,-1,-1,0,-1,-1,-2
1528439675290664,-1,-2,0,1,0,0,0,-1
1528439675298551,-1,-2,-1,-1,1,-2,-1,0
1528439675298551,-1,0,-1,0,-3,0,-1,2
1528439675313606,1,0,-1,-2,-2,0,-2,1
1528439675313606,0,1,0,-1,-2,0,0,0
1528439675320612,0,0,-1,-1,-1,0,-1,-1
1528439675320612,-1,-1,-1,0,-2,-1,0,-1
1528439675335431,-1,0,-1,0,0,-3,2,-3
1528439675335431,-2,-1,0,-1,-3,-1,0,-3
1528439675343432,-2,-1,-2,0,-2,-1,-1,0
1528439675343432,-4,-1,-1,0,2,1,-1,-1
1528439675350418,0,-1,-1,-1,0,-1,-2,0
1528439675350418,-1,-1,0,0,1,0,-1,-2
1528439675358388,-2,-2,-1,0,-1,-1,-2,-4
1528439675358388,1,-1,-1,-3,-1,1,-1,-1
1528439675380284,1,-1,1,1,-1,3,-2,-2
1528439675380284,0,0,-1,1,-1,-1,-1,-1
1528439675388262,1,-3,0,0,1,1,0,0
1528439675388262,-2,-2,1,0,1,0,0,-1
1528439675395243,0,-1,-2,-2,1,-1,0,-1
1528439675395243,-2,1,-1,-1,-1,1,1,1
1528439675403223,0,2,-1,-1,-1,-1,1,-1
1528439675403223,0,0,-1,0,0,-1,-2,-2
1528439675418182,1,-1,-2,0,1,-2,-1,0
1528439675418182,0,0,-2,-2,-1,-2,-1,-1
1528439675426161,-1,0,-1,0,-3,-1,-2,1
1528439675426161,-3,0,-2,-2,-2,-1,-2,-1
1528439675433285,0,0,1,-1,-2,-1,-3,0
1528439675433285,1,-1,0,-1,-2,-1,0,-1
1528439675441248,-2,-1,0,0,-2,-1,0,-1
1528439675441248,0,-2,-1,1,0,0,0,1
1528439675448263,0,-1,-1,-2,-2,0,0,0
1528439675448263,0,-2,-2,-1,1,0,-3,0
1528439675456081,1,-1,-2,-1,0,1,1,-2
1528439675456081,-2,-1,0,-1,0,0,0,1
1528439675470710,0,0,-1,0,-1,-1,1,0
1528439675470710,-3,0,1,-1,-1,-2,0,0
1528439675478524,-1,1,0,0,0,-1,-4,1
1528439675478524,0,1,0,-2,1,-1,0,-3
1528439675493782,-2,-1,1,1,-1,-1,1,-1
1528439675493782,-2,0,1,0,-2,1,1,0
1528439675500685,-2,-1,-3,0,1,0,0,0
1528439675500685,1,0,0,-1,-1,-3,-2,-1
1528439675508783,1,-1,0,-1,-1,-2,-2,0
1528439675508783,2,-2,-1,-1,1,-2,-3,1
1528439675515931,1,-2,0,-1,-2,0,-1,1
1528439675515931,-1,-2,-1,-2,-3,0,1,0
1528439675530732,-1,0,-1,1,-1,1,1,-2
1528439675530732,-1,-1,-1,0,1,1,-2,-4
1528439675538786,-1,1,-1,-1,0,1,-3,-2
1528439675538786,-1,0,-1,1,0,-1,-2,-1
1528439675552872,-2,-1,0,1,-1,0,-1,1
1528439675552872,1,-2,0,0,-2,0,0,0
1528439675560979,1,-2,1,-1,2,-1,-1,-4
1528439675560979,1,0,-1,-2,-1,0,0,-1
1528439675567843,-1,-2,-2,-1,2,0,-2,-2
1528439675567843,-1,-1,0,0,-1,0,-1,-1
1528439675575968,0,-2,0,-1,-1,-1,0,1
1528439675575968,-1,1,-1,0,-2,-1,-1,0
1528439675590927,-1,0,-1,-1,-1,-1,-2,2
1528439675590927,-2,1,0,-1,0,-1,-2,1
1528439675598783,1,0,-1,0,1,-1,1,-1
1528439675598783,-1,-1,-2,0,0,0,1,-1
1528439675613801,0,-3,-1,-1,0,-2,1,-1
1528439675613801,1,-2,-1,-2,-2,-1,0,0
1528439675620848,0,-1,-1,-1,-3,0,-2,0
1528439675620848,1,-1,0,0,0,1,-4,0
1528439675628033,-2,0,0,0,0,-1,-2,-1
1528439675628033,-1,-1,0,0,0,0,0,-1
1528439675635194,2,1,-1,0,-1,-2,-1,-1
1528439675635194,0,-1,0,1,1,0,-1,0
1528439675651157,-1,-1,1,0,0,1,-1,0
1528439675651157,-1,1,-2,1,-1,-1,0,2
1528439675666132,-3,0,-1,-2,0,-2,0,0
1528439675666132,-2,2,-1,0,-2,-2,-2,-3
1528439675673139,-1,1,0,-2,-1,0,-2,-2
1528439675673139,-1,-1,-1,-2,-1,-1,0,-1
1528439675688108,0,-1,-3,-1,0,-1,0,-2
1528439675688108,-2,-3,-1,-1,0,0,1,-1
1528439675696091,-2,-2,0,-1,0,-1,0,-2
1528439675696091,-3,-1,-3,-1,-1,-2,0,0
1528439675711046,2,0,0,-1,-3,-1,-2,0
1528439675711046,0,-1,-2,-3,0,1,-2,-1
1528439675726007,-2,-1,0,0,-1,0,-1,-1
1528439675726007,-1,-1,-2,-1,-1,1,-1,0
1528439675732985,0,-4,-2,0,0,0,0,0
1528439675732985,-2,-1,1,0,0,-2,1,0
1528439675747953,-3,-1,-1,0,1,-1,0,0
1528439675747953,0,-1,0,-1,-1,-1,0,-1
1528439675755932,-1,0,-1,-1,-1,0,-1,-1
1528439675755932,1,0,-1,-1,-1,0,-2,-1
1528439675770886,-1,0,-2,0,-1,-2,1,0
1528439675770886,-1,-1,0,1,1,-1,-1,-2
1528439675785793,0,-1,-1,-1,0,0,-1,0
1528439675785793,-1,0,-1,0,-1,0,0,1
1528439675792779,-1,0,-1,-2,-2,-1,0,-1
1528439675792779,-2,-1,-2,-2,-3,1,-1,-2
1528439675807757,1,1,-2,-1,-4,-2,1,1
1528439675807757,0,1,0,-1,0,-1,1,0
1528439675815764,0,-1,0,1,1,-2,-1,0
1528439675815764,-2,0,-1,0,0,-1,-2,-1
1528439675830726,0,0,-1,-2,-1,3,-1,1
1528439675830726,0,-2,-1,-2,0,-2,1,0
1528439675845690,0,-3,1,0,0,-2,1,-1
1528439675845690,-1,-1,0,-2,-1,-3,0,0
1528439675853668,0,-2,-2,-2,-2,0,0,0
1528439675853668,0,0,-2,3,-3,-1,1,-1
1528439675868578,-1,-1,-1,-2,2,0,0,0
1528439675868578,-3,-1,0,0,-1,-1,-3,-1
1528439675875554,-2,0,0,-1,-1,0,-1,-1
1528439675875554,0,-1,-2,0,1,-1,-1,1
1528439675890512,-1,0,1,-1,1,-2,0,-1
1528439675890512,0,-1,0,-2,-2,-2,1,0
1528439675905506,-1,1,0,0,-3,0,1,0
1528439675905506,-1,0,-1,0,0,0,-1,-2
1528439675913484,0,0,-2,0,0,0,-1,-1
1528439675913484,1,1,1,0,-1,-1,-1,0
1528439675928466,-1,-1,-1,-1,0,0,0,1
1528439675928466,0,0,0,0,-2,1,0,-1
1528439675935392,2,-1,0,0,0,-3,0,-3
1528439675935392,-2,-1,0,-1,2,0,-2,0
1528439675950407,0,-2,-1,0,-1,-2,-1,-1
1528439675950407,-4,-1,-1,-2,-1,0,0,-1
1528439675965344,-2,-2,-2,0,0,0,-1,-2
1528439675965344,-2,-1,0,-1,0,-3,0,1
1528439675973431,0,2,-1,-2,-2,-1,1,-1
1528439675973431,0,1,1,0,-1,0,1,-1
1528439675988386,-2,-2,-1,-1,-2,1,0,-1
1528439675988386,0,0,-1,0,-1,1,-2,-3
1528439675996298,-3,0,0,0,-1,0,-1,-1
1528439675996298,0,-1,-2,-2,0,-2,0,1
1528439676011190,-2,0,-2,0,-2,0,0,1
1528439676011190,-1,-1,0,1,1,-2,-2,-1
1528439676026298,-1,0,-1,0,1,-1,-1,0
1528439676026298,0,-1,-1,1,-1,-1,1,1
1528439676033287,0,-3,-1,-2,-2,0,1,0
1528439676033287,-1,0,-1,0,-2,-1,0,-2
1528439676048090,1,-2,-1,-1,-4,0,0,0
1528439676048090,0,-2,-2,-2,-1,-1,-1,0
1528439676056301,0,0,-1,0,-1,0,-1,0
1528439676056301,0,0,1,1,1,0,-1,1
1528439676071282,-2,0,0,0,1,-1,0,-1
1528439676071282,0,-1,-1,0,-1,0,-1,-1
1528439676093552,-2,1,-1,-1,0,-1,-1,0
1528439676093552,0,-2,-1,-2,0,1,-3,1
1528439676100510,1,0,-1,-1,0,1,-1,0
1528439676100510,-2,-2,0,-1,-1,1,-1,-1
1528439676115337,-1,-2,0,1,-3,-1,-1,0
1528439676115337,-2,-1,0,-1,-2,-3,0,-1
1528439676123349,0,0,-1,0,-1,-1,-2,0
1528439676123349,1,0,-2,-1,0,-1,-3,0
1528439676130440,0,-1,1,0,1,-1,3,3
1528439676130440,0,-1,0,0,-2,0,1,-1
1528439676153373,-1,0,-2,0,1,0,-3,1
1528439676153373,-1,-2,0,0,-1,0,-1,0
1528439676161301,0,-2,0,-2,-3,-1,-3,1
1528439676161301,0,-1,-2,-2,-3,-1,-1,1
1528439676176302,2,0,-1,1,-2,1,-1,-1
1528439676176302,-3,0,0,-1,-1,-1,-1,-1
1528439676183310,0,0,0,1,0,-1,0,-2
1528439676183310,0,-2,0,-2,1,0,2,-1
1528439676198270,0,0,-2,0,0,-1,-1,0
1528439676198270,-2,1,0,0,2,-2,-1,1
1528439676213233,-1,0,-1,-2,-1,0,0,-1
1528439676213233,-3,0,0,0,-2,0,-1,1
1528439676228231,0,-3,0,0,-1,0,0,0
1528439676228231,0,-1,1,-1,0,-1,-2,-2
1528439676236289,-1,-2,-1,-1,0,-1,-1,-1
1528439676236289,-1,-3,0,-1,-1,0,0,0
1528439676250572,-1,-2,-1,0,-3,0,-2,-1
1528439676250572,-1,-1,-1,0,1,0,0,-2
1528439676265506,-1,1,0,-2,0,-2,1,-3
1528439676265506,-1,0,0,-1,0,-2,0,-1
1528439676273350,-2,0,-2,0,-1,-2,-2,-1
1528439676273350,-1,-1,2,-1,0,-1,1,-1
1528439676288446,-2,0,-1,1,-1,0,-1,-1
1528439676288446,2,-2,0,0,0,0,1,0
1528439676295651,1,-2,-1,-1,-1,-1,0,-1
1528439676295651,0,-2,-2,0,0,0,-2,0
1528439676310450,0,-1,-1,-3,1,0,0,-1
1528439676310450,0,1,0,1,-2,-2,-1,-1
1528439676325415,0,-2,-1,0,0,0,-1,-1
1528439676325415,-1,-3,0,1,-3,0,-1,-1
1528439676333388,-2,-1,-1,1,0,0,0,1
1528439676333388,1,0,-2,-1,-1,-2,-1,0
1528439676348381,-2,-2,0,0,-3,0,-1,1
1528439676348381,-1,-1,0,0,2,-2,0,-1
1528439676363448,0,1,-1,-1,-3,1,0,-2
1528439676363448,0,1,-1,0,1,-2,-2,-2
1528439676378425,0,-2,-1,-1,0,-1,0,-1
1528439676378425,1,-2,-1,1,1,1,0,0
1528439676400606,1,0,1,-1,-1,0,2,0
1528439676400606,-2,0,-1,-2,-1,2,1,0
1528439676408673,-1,-2,1,0,0,-1,-1,0
1528439676408673,-2,-1,-2,-1,-1,-1,0,-1
1528439676430882,-1,0,-2,0,-1,-1,-1,0
1528439676430882,-1,-1,-1,-1,-1,-1,0,0
1528439676445835,0,0,0,-1,0,0,-2,0
1528439676445835,-1,-1,-1,2,-2,0,-1,0
1528439676460661,1,-2,1,-1,-1,0,0,1
1528439676460661,1,-3,-1,-1,-1,-3,-1,1
1528439676468664,1,1,0,-1,-1,1,-2,1
1528439676468664,1,-1,-1,-1,-2,-1,-1,-1
1528439676475989,-1,-1,0,1,-1,0,1,0
1528439676475989,-2,-1,0,0,-1,-1,1,-1
1528439676490945,-1,-2,0,-2,-1,-1,0,-1
1528439676490945,-1,0,-1,-2,-1,-2,-1,-2
1528439676506086,0,-1,-1,1,0,-1,-1,-1
1528439676506086,0,0,-2,0,-2,0,-1,0
1528439676512930,-2,-1,-1,-3,1,-1,1,1
1528439676512930,-1,1,1,-3,0,0,-1,0
1528439676528042,0,1,0,0,-1,-1,0,-2
1528439676528042,-1,-1,-3,0,-1,-1,-1,-1
1528439676535874,0,-1,-2,0,-1,-2,1,-1
1528439676535874,0,0,-2,-1,-1,1,1,-1
1528439676558154,-3,0,-2,0,-1,0,-1,-1
1528439676558154,-2,1,1,0,0,-1,0,0
1528439676573174,0,-1,0,-2,0,-1,-1,-1
1528439676573174,-1,0,-1,-2,1,-2,-1,-1
1528439676581349,-1,-2,0,1,-2,0,-2,1
1528439676581349,0,0,-1,-2,0,0,-2,0
1528439676596302,0,-1,0,-1,-2,0,0,0
1528439676596302,-1,0,0,-2,0,-2,1,0
1528439676603425,0,0,0,-2,0,-3,-1,-1
1528439676603425,0,1,-2,-1,0,-1,1,-1
1528439676611262,-1,-2,-2,-1,-2,0,-1,-1
1528439676611262,-1,-1,0,-1,-1,0,-1,-1
1528439676633203,1,1,0,-1,-1,0,-2,1
1528439676633203,-2,1,0,-2,-1,1,-1,0
1528439676641179,0,-1,-1,-1,-1,0,-1,0
1528439676641179,-1,-1,0,-1,-2,-1,0,-1
1528439676655834,0,0,0,-2,0,-2,-1,1
1528439676655834,-1,-1,0,0,0,-1,0,0
1528439676663131,0,-1,-1,2,0,-1,0,-1
1528439676663131,0,-1,-1,0,0,-1,0,-1
1528439676678707,-1,1,-1,-1,-1,-2,-2,-1
1528439676678707,-1,0,0,0,-3,0,0,0
1528439676693672,0,-2,1,-2,-1,0,-1,0
1528439676693672,-1,-2,-1,-1,-1,1,-1,-2
1528439676708777,-4,0,1,0,-1,-1,1,0
1528439676708777,-1,-1,0,0,0,-1,-2,-2
1528439676715624,0,1,-1,-1,0,-3,-1,-1
1528439676715624,-1,-1,-3,-2,-2,0,-1,-1
1528439676730743,-1,0,-1,-1,1,-1,0,-1
1528439676730743,1,-1,0,0,1,-2,-1,-1
1528439676745705,-2,-1,-2,1,1,-1,0,-1
1528439676745705,-1,-1,0,0,-1,-1,-1,0
1528439676760671,0,0,0,-1,-1,-1,-1,-1
1528439676760671,-1,-1,1,-1,-1,1,-1,-1
1528439676775768,-2,1,-1,0,1,-1,-2,0
1528439676775768,2,-1,-1,-1,-1,-2,-1,0
1528439676783736,-1,-2,-1,0,0,0,1,1
1528439676783736,-1,0,-1,1,0,-2,0,-2
1528439676798804,-1,0,-1,0,1,-1,1,-2
1528439676798804,1,-1,0,-1,-1,-2,0,-2
1528439676813767,-1,-2,0,-1,-3,0,-3,-2
1528439676813767,-2,-1,0,0,0,-1,-1,0
1528439676828729,0,-1,0,-1,-3,-2,-2,-1
1528439676828729,0,-2,-1,1,1,0,-1,-1
1528439676835749,-1,0,2,-1,-1,-2,0,-1
1528439676835749,-2,0,-1,0,-1,0,0,-1
1528439676850884,-1,-2,-1,-1,1,1,0,-1
1528439676850884,1,-1,0,1,-1,-2,-1,2
1528439676865845,0,-2,0,-1,0,-1,-1,1
1528439676865845,1,-1,0,-1,0,-1,-2,0
1528439676872837,-1,0,-2,0,-2,0,-1,-1
1528439676872837,-1,-1,-1,0,-2,-1,-1,0
1528439676887945,0,-1,0,-1,-1,0,-1,-2
1528439676887945,-3,1,-1,-1,0,0,1,-1
1528439676903096,-1,-1,0,-1,0,-1,1,-2
1528439676903096,1,-3,-1,-1,1,-1,0,1
1528439676918025,1,0,1,-1,0,-1,0,1
1528439676918025,-1,0,-1,-1,0,0,0,-2
1528439676932984,-2,0,-1,-1,1,-1,-1,0
1528439676932984,0,-2,1,1,-1,0,-1,0
1528439676941103,1,-3,-1,-1,-2,0,-2,-1
1528439676941103,0,1,0,0,0,-1,0,0
1528439676948084,-1,-1,0,-2,-2,-1,-1,0
