timestamp,emg1,emg2,emg3,emg4,emg5,emg6,emg7,emg8
1528442879671690,-2,0,-1,-1,-1,0,-1,1
1528442879671690,-1,1,-2,1,-1,-1,0,-1
1528442879679668,0,-5,-3,0,0,-4,1,0
1528442879679668,-2,3,3,-1,-1,-2,1,0
1528442879693631,1,1,-1,2,0,0,-1,-1
1528442879693631,-1,-1,-2,-1,-2,-3,-2,1
1528442879702607,0,-1,0,0,-1,1,-2,-2
1528442879702607,1,-2,-1,0,-2,-2,0,-2
1528442879715573,2,-4,-1,-2,0,-1,0,-3
1528442879715573,0,1,1,-1,-1,-1,-1,-1
1528442879724562,-2,-1,-1,-1,1,0,0,0
1528442879724562,0,-1,-2,0,-1,1,-1,-1
1528442879730540,-1,0,0,2,0,0,-1,0
1528442879730540,-1,-3,-1,-1,0,-1,0,0
1528442879739510,1,5,-1,-2,-1,-1,-1,0
1528442879739510,0,0,-2,2,-1,-1,0,0
1528442879753471,0,0,3,0,-1,1,0,0
1528442879753471,-1,-2,0,-1,0,0,0,0
1528442879762447,-1,-1,1,-3,0,-2,0,0
1528442879762447,-1,0,-2,0,1,-2,-2,0
1528442879768431,1,1,-1,-3,-3,-1,-1,-1
1528442879768431,0,-3,-4,-1,-2,-1,1,-1
1528442879785386,-2,0,1,1,-3,1,0,-1
1528442879785386,-1,1,2,0,0,-1,-2,1
1528442879790372,-3,-2,-2,1,0,0,-1,-1
1528442879790372,1,3,0,-3,-1,0,-2,-1
1528442879799348,-1,-3,-3,-2,-1,-2,0,-1
1528442879799348,0,-3,2,-2,0,0,0,-1
1528442879813311,-1,0,-1,0,0,-2,1,0
1528442879813311,0,1,-2,1,0,1,0,-1
1528442879822306,0,-3,-3,-1,0,0,0,-1
1528442879822306,0,-1,-2,-1,-2,0,-1,1
1528442879828271,-1,0,1,1,-1,-2,0,-1
1528442879828271,0,0,-3,-3,-1,0,0,0
1528442879844228,0,1,1,0,-1,-2,0,1
1528442879844228,-2,-2,-5,-3,1,0,-1,-2
1528442879851210,0,-2,2,-2,-1,1,-2,-2
1528442879851210,-1,2,0,1,0,-1,0,-2
1528442879860186,0,0,1,0,-1,-1,-1,-1
1528442879860186,0,-2,-1,-2,-1,1,0,-1
1528442879873151,-2,-2,-4,-1,-1,-3,0,-1
1528442879873151,-1,-2,1,3,-1,1,1,0
1528442879882128,-1,0,1,-4,-3,0,0,0
1528442879882128,0,0,-2,0,-1,-1,-1,-2
1528442879905068,-1,-1,-1,0,0,1,0,0
1528442879905068,-2,-2,2,2,-1,-1,-1,0
1528442879906063,-2,1,0,0,0,-2,0,0
1528442879906063,0,0,-1,-1,-2,-1,-1,0
1528442879911050,-1,1,-1,-2,-1,2,-1,0
1528442879911050,0,-1,-2,-3,-1,0,-1,-1
1528442879920026,0,-2,-1,0,1,-1,-1,-1
1528442879920026,-2,-3,-2,0,0,-1,-1,-1
1528442879932991,-2,1,1,0,0,0,0,0
1528442879932991,-2,6,2,0,-1,1,-1,-2
1528442879941967,2,-2,0,0,0,-1,-1,0
1528442879941967,-1,-3,-3,0,-1,1,1,0
1528442879955930,-1,-2,0,-1,0,0,-1,-1
1528442879955930,-2,-3,-3,0,1,-2,0,-3
1528442879964916,-1,4,0,-1,0,1,0,-1
1528442879964916,0,1,1,-1,0,-1,-1,0
1528442879970890,1,0,2,0,-2,-1,-2,0
1528442879970890,0,-1,-1,-3,1,-1,-2,0
1528442879979866,-2,-5,-3,0,-3,1,-2,-2
1528442879979866,0,1,-1,0,2,-1,0,-2
1528442879992831,0,0,-1,0,-1,0,0,0
1528442879992831,-1,-2,-3,-1,0,-1,-1,0
1528442880001809,-1,2,0,0,1,-2,0,-1
1528442880001809,0,2,3,-3,-2,-1,0,0
1528442880015772,2,-1,-1,0,-2,0,-2,0
1528442880015772,-1,1,-1,0,0,-2,0,0
1528442880024763,0,-4,-2,-1,1,-2,0,1
1528442880024763,0,1,1,1,-2,-1,-1,-2
1528442880030730,-2,1,-2,1,0,-3,0,-1
1528442880030730,0,-3,0,-1,-1,0,0,-2
1528442880040703,-1,-2,-2,0,0,0,0,-1
1528442880040703,-2,2,2,0,0,-2,-1,-2
1528442880061648,-1,-1,-3,-3,-2,2,-1,0
1528442880061648,-1,-2,2,3,0,-1,0,0
1528442880063660,1,1,0,-4,0,0,-1,-2
1528442880063660,1,-1,-2,-1,-1,1,1,-1
1528442880075610,-1,0,-1,-2,0,-1,-1,0
1528442880075610,0,1,0,-1,-1,-1,0,0
1528442880084586,-2,0,0,-1,1,-1,-2,-2
1528442880084586,1,0,-2,0,1,-1,0,-1
1528442880098549,0,-2,-2,-1,-1,-3,-1,-1
1528442880098549,0,-3,-1,-1,-1,-2,-1,1
1528442880105530,-1,5,4,0,-1,1,0,0
1528442880105530,0,1,1,-2,1,0,-1,-2
1528442880113509,-1,-2,-2,0,0,1,0,1
1528442880113509,-2,0,1,-1,-1,-2,-2,-2
1528442880122485,-1,-4,-3,-1,-2,1,1,-1
1528442880122485,-3,0,4,0,-1,0,1,0
1528442880135451,0,-2,0,-1,0,-2,-1,-2
1528442880135451,-2,-1,0,-2,0,-1,1,0
1528442880153402,0,-2,-4,0,-1,-3,-1,0
1528442880153402,0,-2,-1,1,-2,-1,-1,-1
1528442880153402,-1,1,0,0,-3,-2,-2,-2
1528442880153402,-2,0,-1,0,-1,-1,0,1
1528442880159386,0,0,2,0,-1,-1,-1,1
1528442880159386,0,-1,-4,0,-1,1,-1,0
1528442880173349,1,-6,-2,0,0,1,0,-2
1528442880173349,2,5,0,-2,0,0,-1,1
1528442880182325,-1,0,-2,-1,-1,0,0,-2
1528442880182325,-1,-3,1,0,-2,1,-2,0
1528442880195290,0,2,0,-1,0,-2,0,-1
1528442880195290,-1,-2,-4,-1,-1,0,1,1
1528442880204266,-4,-3,-1,-2,0,0,-1,0
1528442880204266,0,-1,-1,-2,0,0,0,-1
1528442880210250,1,1,-1,-1,-1,-1,0,0
1528442880210250,-2,1,7,0,-2,1,0,-1
1528442880226214,-1,1,-3,2,-2,-1,0,0
1528442880226214,-1,-3,-4,-2,0,-1,0,0
1528442880233190,0,3,1,-2,-1,-2,-2,-1
1528442880233190,-1,-2,0,-1,1,-1,-2,0
1528442880242166,1,-2,-1,0,1,-1,-1,-1
1528442880242166,-1,1,-1,0,-1,-2,0,0
1528442880256127,-3,-4,-6,-3,0,-2,0,0
1528442880256127,-1,-2,-2,0,0,-1,0,-1
1528442880265105,1,3,4,0,0,-1,-1,1
1528442880265105,-2,-2,-3,0,-1,0,-1,0
1528442880271114,-2,-1,3,0,0,-2,-1,-1
1528442880271114,0,-3,-7,-4,-1,-1,0,-1
1528442880286048,-1,-1,-1,1,-3,-2,-1,-1
1528442880286048,0,3,1,-1,2,-1,-1,-1
1528442880293029,-3,-4,-1,0,1,0,-2,-2
1528442880293029,-2,-5,-4,-2,0,0,-1,-2
1528442880302014,1,-4,-4,1,1,0,0,0
1528442880302014,0,0,3,-1,-2,0,-1,0
1528442880324944,0,3,-2,0,-1,0,0,0
1528442880324944,1,0,0,0,-1,0,0,1
1528442880325942,-1,3,2,3,1,2,-1,-1
1528442880325942,-2,-5,-2,-1,1,-1,-1,0
1528442880338935,-2,-2,1,-2,-2,0,0,-1
1528442880338935,-1,-1,-1,0,-1,-1,-2,-1
1528442880345895,-2,-2,-3,-1,-1,-2,-2,-1
1528442880345895,-1,-3,-1,1,-2,-1,0,0
1528442880352919,-1,0,-1,0,1,0,0,0
1528442880352919,2,-1,3,-1,0,0,-1,0
1528442880369825,-2,-2,-1,-3,-3,0,-2,-1
1528442880369825,-1,-3,-2,0,0,0,-2,-1
1528442880375863,1,-1,0,-1,-1,-2,0,-1
1528442880375863,-1,1,-1,-1,-2,0,0,-2
1528442880384790,0,-5,-4,-1,1,-2,0,-1
1528442880384790,-1,2,3,0,0,-1,0,-1
1528442880390768,-1,0,-3,0,-3,1,-1,1
1528442880390768,1,1,1,0,-2,0,0,0
1528442880405783,-3,1,0,0,-1,1,-1,-3
1528442880405783,1,-1,-2,-1,-1,0,0,-1
1528442880413719,0,-1,0,0,1,-1,1,0
1528442880413719,-1,-4,-3,-1,-1,0,-1,0
1528442880422717,1,1,0,-2,0,-1,-1,0
1528442880422717,-2,0,1,0,0,-1,-2,0
1528442880435674,-1,1,1,1,0,-1,-1,-1
1528442880435674,-2,1,-1,0,0,-2,-1,-2
1528442880444640,-1,-4,-2,-2,0,0,-1,-1
1528442880444640,0,0,-3,-1,-1,0,-1,1
1528442880450621,0,-2,-1,-2,-1,1,-1,-1
1528442880450621,1,-1,2,0,0,1,1,1
1528442880465580,-2,2,-1,0,-2,1,-1,-1
1528442880465580,-1,-3,-2,-3,-2,0,-1,0
1528442880473604,0,2,-1,-2,1,0,0,-1
1528442880473604,0,1,-2,-2,0,0,-1,-2
1528442880482523,-1,0,3,0,0,-1,0,-1
1528442880482523,0,-1,-5,-3,0,-2,-1,-2
1528442880495488,-1,-6,-1,-2,0,0,-2,-2
1528442880495488,0,4,2,1,1,-1,0,1
1528442880504673,2,2,-1,0,-1,0,0,0
1528442880504673,1,-2,-1,2,1,-1,0,-1
1528442880518453,0,-1,-1,0,-1,0,-2,-1
1528442880518453,0,-1,3,-1,-2,-1,-1,-2
1528442880525427,-2,-1,-4,-2,-1,0,0,1
1528442880525427,-1,0,-3,-1,-2,0,0,0
1528442880533406,-2,-1,-1,0,-2,0,-1,0
1528442880533406,0,0,1,2,1,-1,-1,0
1528442880542363,2,3,5,0,-1,0,0,0
1528442880542363,-1,0,-3,-1,-2,-1,1,-2
1528442880555347,-1,0,-1,-2,1,1,-1,-2
1528442880555347,-1,-1,-1,1,-1,-1,-1,0
1528442880564571,-2,-9,-3,-2,-2,0,-1,-1
1528442880564571,0,3,4,1,0,-2,0,0
1528442880579529,-1,2,-2,-1,-1,-2,0,-2
1528442880579529,0,-2,-2,-2,-1,1,0,0
1528442880586518,-1,-2,-3,-2,0,-2,-2,-3
1528442880586518,-1,-1,3,1,0,1,0,1
1528442880602470,0,0,0,0,-1,-1,0,1
1528442880602470,0,-4,-4,-2,-1,1,-2,0
1528442880604436,2,6,2,-1,-2,1,-1,-1
1528442880604436,1,0,0,0,1,-1,-1,0
1528442880616496,-2,-2,1,-1,-1,-1,-1,1
1528442880616496,-1,-4,-3,2,0,-1,1,-1
1528442880625484,-2,-6,-1,-1,-1,0,1,0
1528442880625484,1,2,-5,0,0,0,0,0
1528442880639467,2,1,1,0,0,-1,-2,0
1528442880639467,1,1,1,0,0,-1,0,-1
1528442880645495,-1,-1,0,0,-1,-1,-2,-1
1528442880645495,-3,-3,-3,-1,-2,1,-2,-2
1528442880662480,-1,-4,-1,-1,-1,-1,0,0
1528442880662480,-1,-2,-2,0,-2,0,0,0
1528442880663462,-1,5,3,0,0,-1,0,-1
1528442880663462,1,-3,-1,-1,0,0,0,2
1528442880675414,1,0,0,1,-1,-1,-1,-1
1528442880675414,-1,0,0,-2,-1,-1,-1,-2
1528442880685412,-2,-4,-3,-1,1,-1,-1,0
1528442880685412,-1,2,6,0,0,1,1,0
1528442880707790,-2,0,-3,-3,-1,-1,1,0
1528442880707790,0,0,0,1,-1,1,-1,-1
1528442880708797,-1,-1,-3,-2,-1,-1,1,0
1528442880708797,0,-2,-2,-1,-1,0,0,0
1528442880721994,-2,0,-1,-2,0,-2,1,-2
1528442880721994,-1,0,1,-1,-2,0,-1,0
1528442880723749,2,-7,-2,0,-1,0,1,1
1528442880723749,1,5,2,-2,-1,-2,1,-2
1528442880735956,1,5,1,1,1,0,0,0
1528442880735956,0,-2,-1,-1,-1,-2,0,-3
1528442880744765,-1,-2,-1,0,-1,-1,-2,0
1528442880744765,-3,-4,-3,-3,-1,-2,-3,-2
1528442880766635,-2,-6,-6,-1,-1,-1,0,0
1528442880766635,-2,4,1,-1,0,-2,-2,-1
1528442880768629,0,-1,2,0,1,0,1,1
1528442880768629,-1,-1,-1,-2,-1,1,-2,-1
1528442880781595,-1,1,1,0,0,0,1,0
1528442880781595,0,-3,-1,0,-1,1,-1,0
1528442880783590,-3,1,-2,0,-1,0,-1,0
1528442880783590,1,-1,-1,-1,0,-3,0,0
1528442880795558,-2,-3,-2,-1,-1,1,-1,-1
1528442880795558,-1,-3,-3,0,0,-3,0,-1
1528442880804688,-2,3,-1,-2,-2,0,0,-1
1528442880804688,1,1,1,1,1,0,0,1
1528442880819812,1,0,0,1,-2,-1,-1,1
1528442880819812,0,-2,-1,-2,-1,1,0,-1
1528442880825879,1,-2,-3,-1,-2,-3,-2,-2
1528442880825879,-1,-1,0,-1,-1,-1,0,-1
1528442880842695,-1,1,1,0,-1,0,-1,-1
1528442880842695,-2,0,-1,2,0,-1,0,-1
1528442880843616,0,2,1,-1,1,0,1,1
1528442880843616,0,-2,-1,-1,-1,-1,-2,-1
1528442880855434,0,5,0,1,0,1,-1,-1
1528442880855434,-2,-2,-2,-2,0,-1,0,0
1528442880864624,0,0,0,2,0,0,0,0
1528442880864624,-1,-3,-3,-1,-2,-1,0,-1
1528442880879365,1,-1,-1,-2,-2,-1,0,-1
1528442880879365,-2,1,-1,-1,-2,1,-2,-2
1528442880885858,1,3,5,-1,0,0,-2,0
1528442880885858,-2,-3,-3,-1,0,0,0,0
1528442880902164,0,1,4,1,0,-1,-2,-1
1528442880902164,-2,0,-2,-2,-2,-1,0,-1
1528442880903882,-2,-4,-5,-4,-1,-1,-1,-1
1528442880903882,0,-3,-2,-2,-1,-1,-1,-2
1528442880925090,-2,-1,-2,2,0,0,-2,1
1528442880925090,-1,1,1,-2,-1,0,0,0
1528442880927050,0,4,3,2,0,-2,1,-2
1528442880927050,-1,-1,0,-2,0,-4,-2,-1
1528442880939038,-2,-2,-3,1,0,0,0,-1
1528442880939038,1,-6,-2,0,0,-1,-3,-2
1528442880953961,0,3,0,-1,0,0,0,0
1528442880953961,-1,1,-1,0,-1,0,-1,0
1528442880962831,0,-2,1,0,0,0,-1,-1
1528442880962831,-1,0,-2,-1,0,-2,0,0
1528442880963754,0,-2,-2,0,0,-2,-1,0
1528442880963754,-1,0,-3,-1,-1,0,0,0
1528442880975956,1,1,-1,-1,-1,-1,0,-1
1528442880975956,0,3,1,-2,0,-1,1,-1
1528442880984957,-2,-3,-2,1,0,0,0,1
1528442880984957,0,2,1,-1,0,0,0,-1
1528442880999186,-1,-2,-2,-2,0,0,-2,0
1528442880999186,-1,-2,-1,-1,0,-1,-2,0
1528442881005901,-3,-1,-3,-1,1,0,-1,-1
1528442881005901,1,0,5,1,0,0,-1,0
1528442881022471,0,-2,-2,0,-1,-1,0,0
1528442881022471,-1,0,-1,2,-1,0,0,0
1528442881024114,0,-2,-1,-4,-2,-3,-2,-2
1528442881024114,-3,-3,-3,-1,-2,0,1,-2
1528442881036451,1,2,-1,0,1,-1,0,2
1528442881036451,-2,-1,-3,0,-1,0,0,-1
1528442881045060,-1,0,0,-1,-1,-2,-1,-1
1528442881045060,1,5,0,0,1,-1,-2,-1
1528442881059017,0,-4,1,-3,-1,0,-1,0
1528442881059017,2,1,1,-1,2,-1,1,1
1528442881066260,-3,-2,-2,-1,-2,1,0,0
1528442881066260,-2,-2,-5,-1,0,-1,0,1
1528442881083219,-2,-1,-2,-3,-1,-2,1,-4
1528442881083219,0,-1,1,-2,0,0,-3,0
1528442881084957,-1,-2,0,1,-2,1,0,1
1528442881084957,1,1,0,-1,-2,-3,0,2
1528442881105158,-1,0,2,0,-1,-1,0,0
1528442881105158,0,0,2,1,-1,1,-1,0
1528442881106955,0,-3,0,-2,1,-1,-3,-1
1528442881106955,-1,0,-2,0,-1,1,-1,-1
1528442881119157,-1,-2,-1,-3,-1,-2,-1,-1
1528442881119157,-1,0,-1,-1,-2,-1,0,-1
1528442881126412,0,-1,0,-1,0,-1,1,-1
1528442881126412,-1,-2,-3,-2,-1,-1,-1,-1
1528442881142364,-2,0,-3,-2,1,0,0,1
1528442881142364,0,0,-1,-1,-1,-1,1,2
1528442881144093,1,-2,-2,2,-1,0,-1,0
1528442881144093,-1,-2,-1,-1,0,0,-1,-1
1528442881156327,0,0,0,1,-1,-1,-1,-2
1528442881156327,-2,-1,-2,-2,-2,-1,-1,-1
1528442881172563,-2,-2,0,-1,-1,-2,-1,-1
1528442881172563,-1,2,3,-2,1,0,0,0
1528442881179625,0,-1,-2,0,0,-2,-1,-1
1528442881179625,-1,-4,-1,-1,-1,1,0,-1
1528442881185531,1,1,-1,0,-3,0,-1,-2
1528442881185531,-1,-2,0,2,0,0,0,0
1528442881201293,-2,-1,-1,-1,-1,1,-1,0
1528442881201293,0,-1,0,-2,0,0,-1,-1
1528442881208270,0,0,1,-1,0,0,0,0
1528442881208270,0,-2,0,-3,-2,0,-1,1
1528442881216017,0,-2,-1,-2,-1,1,0,-1
1528442881216017,1,1,0,0,-1,-1,-1,0
1528442881232249,0,-1,-3,0,1,0,0,0
1528442881232249,-2,-1,4,1,-1,0,0,1
1528442881239544,-2,-1,-1,2,-2,0,-1,-1
1528442881239544,0,-2,-2,0,-2,0,-1,0
1528442881246394,-1,0,-2,-1,0,-1,1,-2
1528442881246394,0,-3,-3,0,-1,0,-1,-1
1528442881261608,1,5,6,0,0,0,0,0
1528442881261608,-2,0,-3,-2,0,-1,-1,1
1528442881268979,0,-2,0,-2,-1,-1,-3,1
1528442881268979,-2,0,-3,0,-1,-1,-1,-3
1528442881275695,-1,-5,-4,-1,-1,-1,-1,-2
1528442881275695,0,5,3,1,-1,-1,-2,-1
1528442881284666,-2,0,-1,-3,-2,0,0,0
1528442881284666,-2,-2,-4,-3,-1,1,-1,0
1528442881298629,-1,0,2,-1,-1,-1,1,-2
1528442881298629,1,-1,0,0,0,-1,-1,-1
1528442881305851,-1,-2,1,0,-1,-1,-1,-3
1528442881305851,1,0,-2,1,0,-2,-2,-1
1528442881321846,-2,-3,-3,0,0,-1,0,0
