timestamp,emg1,emg2,emg3,emg4,emg5,emg6,emg7,emg8
1528442609413590,0,-2,-2,1,1,-1,-2,-2
1528442609413590,0,0,-2,-1,-1,0,-1,0
1528442609420570,-1,-1,-1,-1,0,-1,0,-2
1528442609420570,-1,-2,-1,-1,-1,-2,-1,-3
1528442609429547,0,-2,-1,-2,-1,0,-2,2
1528442609429547,-2,0,1,-1,-1,-1,-1,0
1528442609435532,0,0,-2,-1,0,0,0,0
1528442609435532,0,-1,-4,-1,-2,-1,-2,0
1528442609451488,-1,0,2,-1,0,-1,0,-1
1528442609451488,-2,-2,0,0,-2,-1,-2,-2
1528442609458471,-2,-2,-1,-2,0,-1,-2,0
1528442609458471,-1,-1,-1,-1,0,-1,-1,0
1528442609473441,0,-2,-1,0,0,0,0,-2
1528442609473441,1,1,-3,-2,-1,0,2,0
1528442609484401,1,0,-2,-1,0,-3,-2,-1
1528442609484401,-1,0,-1,-1,-1,-1,-1,-1
1528442609495371,-1,-1,-2,-1,-3,0,-1,-2
1528442609495371,-1,-1,-3,0,0,-1,0,-1
1528442609503350,-1,0,-1,0,-1,-1,-2,-2
1528442609503350,-2,-2,-1,-2,0,-2,0,-2
1528442609521303,-2,-2,0,0,-1,-2,-1,-1
1528442609521303,0,-1,0,-2,-2,0,-2,1
1528442609533270,-1,-1,-2,-3,-2,0,0,0
1528442609533270,0,-2,0,-2,-1,-1,-2,-1
1528442609548230,-2,-1,-1,0,-2,-2,0,-1
1528442609548230,-2,0,-1,0,0,1,1,-1
1528442609563199,-2,-1,-1,0,-1,-2,0,-1
1528442609563199,0,-1,-2,-1,0,0,-2,-1
1528442609574161,0,-2,-2,0,-3,0,-1,-1
1528442609574161,0,-1,-1,-1,-2,-2,0,-1
1528442609586130,0,-1,-2,0,0,-1,-1,0
1528442609586130,-2,-2,-2,-1,-1,-2,-1,-1
1528442609593111,-1,1,-3,-3,-1,-1,-1,0
1528442609593111,-2,-2,-1,-1,-2,1,-2,-1
1528442609601089,0,0,0,0,-2,-1,-2,-1
1528442609601089,1,0,-1,1,-1,-2,-2,0
1528442609623031,-1,0,0,-1,-1,1,-1,-1
1528442609623031,-1,-1,-2,-1,0,-1,1,-2
1528442609634002,-1,0,1,-2,-1,-1,0,-2
1528442609634002,-1,-1,0,-2,0,-2,-1,-2
1528442609645969,-2,-1,-2,0,-1,0,-3,0
1528442609645969,-1,0,-2,0,-2,-1,0,0
1528442609652952,-1,-3,-3,-1,-1,-2,-1,-2
1528442609652952,-1,-1,0,-1,-2,-2,-1,-2
1528442609667912,-2,-2,-2,-1,-2,1,0,0
1528442609667912,0,-1,-2,0,0,-1,-2,0
1528442609697832,-1,-1,0,0,-2,-1,-1,1
1528442609697832,1,-1,-1,-1,-1,-2,-2,0
1528442609705810,-1,-2,-1,-1,-1,0,-1,-1
1528442609705810,-1,-1,0,-1,-1,1,-1,-3
1528442609712792,-1,-2,-1,-2,-1,0,-1,-1
1528442609712792,-1,-2,-2,-1,-1,1,1,-2
1528442609720770,0,-1,0,0,-3,0,-2,-3
1528442609720770,1,-1,-1,-1,-3,-1,-2,-1
1528442609735729,-1,0,-1,-1,0,0,-2,1
1528442609735729,-1,1,-2,-2,-3,-2,1,-1
1528442609742710,-1,-1,-2,-1,1,-3,1,-2
1528442609742710,-3,-1,-3,0,-1,-1,-2,0
1528442609758669,-2,-1,-2,-3,-1,1,0,0
1528442609758669,-1,0,-1,-2,0,-1,-2,0
1528442609773630,-1,0,-2,-1,-1,-2,-2,-3
1528442609773630,-3,-9,-9,-2,-1,0,-3,-1
1528442609780612,3,6,1,-2,-1,-1,-1,3
1528442609780612,-3,3,13,2,-1,-2,2,-2
1528442609795570,-2,-9,-20,-13,-3,-1,-1,-3
1528442609795570,0,10,20,11,-2,-8,-8,-3
1528442609803548,-3,-8,-8,1,3,0,2,0
1528442609803548,0,-4,-9,-3,-9,-3,4,2
1528442609818507,-3,-5,1,-10,-42,-13,-6,-6
1528442609818507,0,-1,-18,-10,-14,-12,-3,0
1528442609833487,-4,-12,-14,9,49,30,4,-2
1528442609833487,-1,5,45,10,2,-4,-7,-2
1528442609840449,5,-1,-24,-8,0,-4,3,6
1528442609840449,-1,8,24,5,-20,16,9,1
1528442609855410,0,-3,-19,-8,-1,-14,-4,-2
1528442609855410,-6,-4,-32,-7,-4,4,-5,1
1528442609870370,10,16,53,32,37,17,18,3
1528442609870370,8,-12,-34,-6,2,2,3,8
1528442609885331,-7,6,16,-4,-12,-7,-9,-7
1528442609885331,-5,-7,-8,-11,-24,-18,-9,-5
1528442609893309,-10,-8,-13,-8,-13,-18,-8,-5
1528442609893309,0,-6,-11,5,37,21,3,-1
1528442609908268,-1,-6,-5,-1,8,15,11,7
1528442609908268,-7,-11,0,-5,-13,-17,-8,-11
1528442609923229,6,0,8,9,29,18,-1,-1
1528442609923229,-4,11,10,5,28,20,3,6
1528442609938190,1,-5,-1,-1,-25,3,5,3
1528442609938190,0,-6,-13,2,41,20,3,1
1528442609946171,-4,-19,-9,-11,-21,-4,-2,2
1528442609946171,-6,5,23,-2,-24,-20,-17,-15
1528442609961128,-4,-17,-3,-1,4,-2,-2,2
1528442609961128,3,7,-1,-6,-26,-8,1,3
1528442609976090,-5,-22,-45,-5,-30,-4,2,-4
1528442609976090,1,9,-76,6,27,-11,-4,1
1528442609983070,4,14,-60,-1,5,32,9,2
1528442609983070,4,5,-62,-2,-8,-4,3,7
1528442609998028,-6,-1,-23,2,-10,16,-1,-6
1528442609998028,0,1,-2,-2,-9,-12,3,5
1528442610006006,11,5,25,6,21,3,-9,2
1528442610006006,-14,-22,7,-6,3,4,-3,-9
1528442610020967,-3,-1,10,-17,-63,-31,-17,-6
1528442610020967,11,29,22,15,52,22,12,2
1528442610035963,-2,-8,1,10,35,37,13,1
1528442610035963,1,9,-1,-5,-3,8,2,2
1528442610042945,-13,-17,-8,-1,-28,-20,-7,-6
1528442610042945,10,3,4,2,-8,-14,0,5
1528442610057906,-7,-27,-1,-10,7,-14,-9,-5
1528442610057906,2,0,-6,-18,12,11,9,6
1528442610065924,-6,-2,-3,-10,2,-19,-16,-11
1528442610065924,-8,-7,0,0,-14,-8,-10,-6
1528442610088899,4,-7,5,-5,-2,-32,-18,2
1528442610088899,-7,-9,-1,-3,7,40,18,-2
1528442610111185,6,-2,3,2,0,10,21,9
1528442610111185,1,-5,2,-1,16,22,-4,-3
1528442610117746,1,18,5,7,2,-13,-5,-4
1528442610117746,-4,-16,7,0,-5,-38,-18,-1
1528442610133007,-6,10,4,-3,29,6,-3,-4
1528442610133007,-5,-25,1,2,-4,-9,-6,-5
1528442610147982,4,5,7,-2,-16,-21,-8,2
1528442610147982,-6,6,-5,0,27,41,23,0
1528442610162896,-11,0,0,-9,-7,-1,-2,-8
1528442610162896,3,0,4,-9,-12,-21,-11,-3
1528442610178200,-3,1,-5,0,-10,-21,-11,-5
1528442610178200,-2,-24,-8,6,12,17,11,0
1528442610186105,-2,6,-5,-4,2,-5,0,-5
1528442610186105,3,-8,-1,-2,-9,-4,-5,0
1528442610201094,0,6,0,-6,-29,-1,3,0
1528442610201094,1,13,4,-4,-11,-14,-8,-1
1528442610215756,7,14,2,0,-14,-2,0,2
1528442610215756,-7,-26,-14,4,21,11,5,-2
1528442610223587,1,-10,-2,7,4,14,8,1
1528442610223587,2,5,1,-5,7,-2,-2,2
1528442610238573,-1,2,4,3,0,-5,-4,-3
1528442610238573,2,18,3,0,-4,-7,-4,-2
1528442610245203,0,3,2,-5,-3,21,10,3
1528442610245203,-3,-20,5,12,37,7,-1,1
1528442610260434,-4,-7,0,1,8,8,1,-1
1528442610260434,0,-3,-15,-10,-19,-14,-7,-3
1528442610283371,-4,-8,-4,-3,-5,-11,-9,-7
1528442610283371,0,-8,-5,-5,-15,-9,-3,-2
1528442610291402,-3,-20,0,-3,4,2,7,0
1528442610291402,-3,-19,0,3,6,3,-4,-1
1528442610306425,-2,-15,-4,8,28,13,3,2
1528442610306425,4,7,-3,2,4,0,-1,2
1528442610312767,-6,1,-10,-4,-1,-7,-8,-4
1528442610312767,-2,11,-9,-8,-29,-12,-3,-6
1528442610328295,-1,5,-11,2,-10,-6,-2,-2
1528442610328295,3,3,12,2,24,22,10,4
1528442610351261,4,4,18,1,15,6,6,8
1528442610351261,-1,8,2,7,-26,-15,-5,-3
1528442610366216,-3,9,-7,-11,16,1,-7,-5
1528442610366216,7,5,0,-1,16,11,13,13
1528442610381177,-3,-21,-8,-3,-13,2,-3,-1
1528442610381177,-4,2,-7,-7,-6,-15,-12,-3
1528442610395979,0,5,-3,-2,2,0,0,-2
1528442610395979,-3,-6,4,-3,-2,1,3,1
1528442610411411,-5,2,8,4,-1,6,5,-10
1528442610411411,-1,-1,2,6,5,-10,-5,-6
1528442610433423,-3,1,-12,-4,-1,4,-5,-3
1528442610433423,1,4,-11,-6,-30,2,0,-1
1528442610441402,0,-9,-10,6,27,10,-2,3
1528442610441402,-2,-5,-11,-5,-10,-5,2,1
1528442610448848,1,4,5,-1,-7,-5,1,0
1528442610448848,1,2,-3,-4,0,3,-6,2
1528442610463814,2,1,15,5,-2,5,12,1
1528442610463814,-1,0,-11,3,5,-4,8,2
1528442610471074,1,4,-8,9,8,5,0,-2
1528442610471074,2,5,-1,0,6,1,-4,-2
1528442610485992,-3,3,5,-6,1,-2,-9,-7
1528442610485992,1,3,-4,-1,-8,3,16,10
1528442610508828,-4,-3,-4,-8,-5,-15,-33,-11
1528442610508828,2,7,9,-4,-5,1,15,-7
1528442610523134,1,-7,-8,12,14,8,4,9
1528442610523134,6,0,34,20,0,-10,-42,-11
1528442610530854,-6,9,-22,-50,-30,-3,37,21
1528442610530854,-15,-10,-30,27,21,-2,-26,-28
1528442610546080,-5,14,20,-10,-7,11,36,25
1528442610546080,37,14,3,-7,-10,-24,-32,-24
1528442610553973,5,0,10,22,19,7,6,6
1528442610553973,9,-35,-9,-28,-30,-19,-47,-30
1528442610560904,13,11,-10,-2,-11,0,30,4
1528442610560904,38,23,10,-7,7,35,119,113
1528442610575784,-16,-25,-35,36,16,-2,-55,-51
1528442610575784,-9,-9,4,-34,-21,-4,11,14
1528442610583854,13,25,-4,30,20,4,0,5
1528442610583854,-15,-71,-11,-42,-22,-3,-18,-9
1528442610597789,12,21,31,14,11,-6,7,-10
1528442610597789,-12,-24,5,-21,-26,-17,-7,-5
1528442610605767,-16,-1,56,24,21,4,-19,-9
1528442610605767,-10,13,-38,-5,-14,-3,-1,-35
1528442610620727,29,26,23,26,8,10,21,19
1528442610620727,8,25,8,-17,-2,2,11,47
1528442610635741,-47,-18,41,27,17,-4,-32,-71
1528442610635741,-13,2,-19,-20,-20,-6,18,6
1528442610643665,17,-34,-51,11,9,0,-2,21
1528442610643665,4,23,3,21,5,-10,-41,-41
1528442610665662,25,20,18,3,1,3,18,50
1528442610665662,-5,-28,-62,-63,-25,-6,7,-8
1528442610673640,-93,22,8,13,12,3,-16,-60
1528442610673640,23,10,20,51,2,-24,-60,-11
1528442610688603,34,-9,10,-26,-4,20,34,61
1528442610688603,-25,-7,-21,-4,23,11,1,-13
1528442610703558,4,9,-60,-17,-24,-21,-41,-35
1528442610703558,69,-1,-12,15,7,6,23,104
1528442610710487,-43,4,80,-9,-14,-3,1,-69
1528442610710487,-83,-5,42,2,8,7,-23,-68
1528442610725446,9,-33,-70,-34,-22,-24,-37,-10
1528442610725446,41,48,14,-21,-42,-11,6,16
1528442610748385,-16,-16,-51,-3,20,0,-22,-42
1528442610748385,-26,-25,-43,23,15,5,1,-33
1528442610755366,45,-12,-5,15,0,11,19,55
1528442610755366,-58,-11,-43,-20,6,-4,-51,-93
1528442610770327,-20,-35,11,-23,-11,-3,-13,5
1528442610770327,26,12,56,27,11,11,30,44
1528442610779315,20,2,-37,-24,-32,-17,-50,-8
1528442610779315,17,-23,17,9,15,8,38,25
1528442610793265,-37,0,-14,-17,-33,-15,4,-20
1528442610793265,25,1,16,-11,-22,-21,-4,42
1528442610808225,-11,-37,-37,-23,2,-24,-44,-32
1528442610808225,-28,-7,-34,12,-11,16,38,-8
1528442610823185,-6,15,10,-59,-40,-31,-17,-15
1528442610823185,-27,-13,27,34,45,41,6,-17
1528442610830167,31,3,-8,-7,12,-10,-81,-9
1528442610830167,36,4,71,46,33,35,99,110
1528442610846131,-32,-16,1,-7,-4,8,26,-26
1528442610846131,-19,4,12,-7,24,1,-28,-34
1528442610861084,58,21,18,0,-13,-7,-11,46
1528442610861084,-42,-5,-5,-14,-14,-9,0,-41
1528442610868065,1,4,-6,-3,3,10,24,21
1528442610868065,2,-2,9,4,-7,-15,-15,-13
1528442610883025,10,0,18,17,-2,7,11,36
1528442610883025,18,19,-14,-11,2,3,-2,-4
1528442610897986,16,18,2,28,13,2,25,-1
1528442610897986,-6,-27,-31,-21,-31,-20,-26,17
1528442610920487,-5,1,16,-22,-4,-1,36,60
1528442610920487,31,8,11,21,13,6,-5,17
1528442610935448,6,-2,3,-1,11,-6,-21,-6
1528442610935448,-28,-22,-25,-17,-12,-1,19,-18
1528442610943465,-60,-10,-30,-3,-7,-5,-20,-46
1528442610943465,6,2,-17,-22,-11,-6,-7,5
1528442610958844,40,14,23,28,8,8,20,25
1528442610958844,-2,-2,-14,-13,-10,-13,-22,-18
1528442610965904,14,2,-6,-9,-3,-6,-6,15
1528442610965904,-22,-2,17,22,13,-1,-26,-58
1528442610981060,14,18,11,17,7,26,57,40
1528442610981060,-26,-10,-46,-20,-5,-14,-12,-31
1528442610988951,8,13,16,25,5,-1,-25,-13
1528442610988951,0,5,-11,-5,0,2,10,19
1528442611003819,13,-1,-7,-7,1,4,-4,6
1528442611003819,1,-1,-12,-12,-16,-6,14,3
1528442611010556,-22,-6,30,15,12,12,-8,-25
1528442611010556,11,7,-10,7,12,6,-1,-11
1528442611033475,2,-5,13,-24,-4,-4,-8,-8
1528442611033475,-4,1,-11,26,35,18,14,4
1528442611048814,-9,-11,-1,-6,-8,0,-1,5
1528442611048814,18,11,-13,-9,1,-5,-11,-1
1528442611055764,23,2,0,6,2,4,8,31
1528442611055764,-32,-4,-5,-26,-24,-15,-6,-25
1528442611071436,1,10,3,-4,7,15,18,5
1528442611071436,1,-4,-3,17,8,-3,-19,-9
1528442611078360,5,5,21,-5,-1,8,18,28
1528442611078360,18,-12,-4,5,-2,-7,9,4
1528442611086338,-10,-11,-4,-17,-9,-7,-6,-23
1528442611086338,2,-3,-23,5,5,-4,-11,8
1528442611101523,-2,3,16,-2,-12,-1,13,14
1528442611101523,6,-2,19,-1,5,0,3,0
1528442611108310,-3,0,7,17,8,-4,-3,-3
1528442611108310,3,1,-12,-32,-19,-2,-4,5
1528442611123236,-10,-4,6,11,11,-4,-8,-13
1528442611123236,9,2,-12,-1,3,8,3,12
1528442611131439,-6,-6,-10,-4,-4,-4,-2,-17
1528442611131439,-3,-1,4,-3,-10,-2,2,1
1528442611145667,-1,-2,-4,-10,-4,-3,-7,-1
1528442611145667,-2,-3,-3,-1,0,-3,-5,-7
1528442611153631,-5,-4,-1,9,8,3,-1,-9
1528442611153631,7,5,6,-4,-9,-1,4,12
1528442611175625,-3,-1,-1,4,-1,0,3,0
1528442611175625,3,-1,0,-3,0,0,-2,5
1528442611190842,-2,-1,5,-1,-1,1,0,-3
1528442611190842,-4,-3,-5,3,-3,-6,-5,-4
1528442611198835,3,-1,0,-7,-6,-4,-1,3
1528442611198835,-1,-3,-3,0,5,3,2,0
1528442611220769,-2,-1,-7,-3,-4,-5,-2,-4
1528442611220769,-1,1,-1,5,5,4,0,0
1528442611236462,-3,-2,-40,-1,1,2,2,-1
1528442611236462,0,-2,-30,0,-2,-2,-1,0
1528442611258667,-2,-1,-8,0,2,4,1,0
1528442611258667,0,-1,-19,-3,-2,-4,-5,-1
1528442611267379,-2,-2,-12,-2,-3,-3,0,-1
1528442611267379,-3,-1,17,-2,-2,-7,-8,0
1528442611273600,-2,-1,-4,0,-3,-2,1,0
1528442611273600,1,3,12,1,3,7,5,1
1528442611280596,0,0,-4,1,1,4,4,1
1528442611280596,0,1,4,-2,-2,-4,-2,0
1528442611295305,-3,-1,-37,-1,-1,-2,-6,-3
1528442611295305,0,-2,4,1,1,1,4,-1
1528442611318748,-3,-1,-15,-1,2,4,0,-2
1528442611318748,-2,0,-2,-1,-1,-4,-4,-2
1528442611333868,0,-1,17,0,-1,2,1,-1
1528442611333868,0,-2,-17,-2,-1,-3,-1,0
1528442611340938,-1,-1,14,-2,-4,-8,-4,-3
1528442611340938,-3,1,32,-1,-1,-1,-6,-2
1528442611363630,0,-3,53,1,5,20,18,3
1528442611363630,3,0,10,4,8,16,16,7
1528442611378836,-2,-2,24,-2,-5,-5,-6,-3
1528442611378836,0,-1,-23,-3,-4,-5,-2,-2
1528442611393826,-1,1,-16,-1,-2,-2,-2,-2
1528442611393826,-1,-1,7,-2,-3,-13,-8,-3
1528442611400789,-2,-1,-27,-1,-3,-1,-4,-2
1528442611400789,1,3,-12,2,1,11,8,1
1528442611415492,-1,-1,-5,1,-1,-5,-3,0
1528442611415492,-3,-3,-9,-5,-10,-18,-16,-5
1528442611423732,-1,0,-1,0,-3,-8,1,-1
1528442611423732,1,-3,-9,6,8,22,17,5
1528442611438692,2,4,5,-1,5,7,5,3
1528442611438692,-2,6,20,6,1,3,-1,-4
1528442611445678,-2,-1,-2,-11,-8,-17,-15,-5
1528442611445678,-1,-2,3,-1,-3,2,2,-2
1528442611453653,2,1,11,-2,-3,-3,-2,0
1528442611453653,-1,5,6,0,4,5,4,1
1528442611461405,0,4,-11,3,2,2,-1,-2
1528442611461405,-1,9,-5,-4,-5,-7,-3,-1
1528442611476413,-4,12,4,-1,-2,-10,-14,-8
1528442611476413,0,8,-7,-4,-4,-4,1,-1
1528442611483563,1,4,4,3,8,19,12,4
1528442611483563,3,0,9,-2,3,4,0,-1
1528442611498535,-2,-12,-10,-3,-6,-8,-5,-3
1528442611498535,-3,-19,-12,-5,-8,-17,-14,-4
1528442611506406,-2,-13,-3,-1,-3,0,0,-3
1528442611506406,-2,-8,-7,1,6,4,-4,-1
1528442611513231,3,-6,-9,4,8,20,18,6
1528442611513231,1,-7,-5,1,1,3,2,2
1528442611521209,-1,-5,-5,-2,-2,-1,-3,-1
1528442611521209,-3,-5,-12,-3,-9,-22,-9,-4
1528442611543203,-2,0,-3,-2,-10,-19,-12,-5
1528442611543203,-2,-2,-1,0,5,16,6,1
1528442611558154,1,2,-4,8,3,3,2,1
1528442611558154,1,0,-5,1,1,4,-2,-1
1528442611581414,0,1,-6,-19,-3,-5,-1,-1
1528442611581414,-1,0,-2,-3,-5,-10,-8,-2
1528442611588349,-2,-1,-2,-4,-3,-4,-8,-3
1528442611588349,-1,0,0,0,2,2,5,1
1528442611595578,-1,-1,5,10,4,5,3,2
1528442611595578,-2,-1,2,-2,3,6,4,1
1528442611611387,1,-1,-1,-2,-2,-2,1,-1
1528442611611387,-1,-2,1,-1,-1,-2,0,0
1528442611618527,-1,0,0,2,2,10,6,1
1528442611618527,3,-1,2,4,3,4,1,1
1528442611626366,0,0,2,-4,-2,-2,0,0
1528442611626366,0,0,-3,-3,-3,-8,-2,-2
1528442611633491,-3,-3,-3,0,-2,-7,-7,-3
1528442611633491,-1,-1,3,-1,-5,-8,-4,-3
1528442611641388,-2,-2,0,-2,-2,-2,0,-1
1528442611641388,0,-1,-1,-1,4,14,5,0
1528442611656416,0,1,-1,3,1,-4,-4,-2
1528442611656416,-3,0,-2,-2,-2,-4,-2,-2
1528442611663435,-1,1,-4,-2,-2,-2,1,0
1528442611663435,-1,2,-1,1,-2,-2,-1,0
1528442611678943,-1,1,0,-2,0,0,-1,0
1528442611678943,-1,4,-2,0,-2,-5,-4,-4
1528442611685615,-1,4,0,2,-1,1,-1,-2
1528442611685615,0,2,3,-10,-1,5,4,0
1528442611693546,-2,3,3,4,1,-5,-3,-3
1528442611693546,-1,3,5,-8,-3,-3,-3,-1
1528442611701386,-1,3,6,4,1,1,0,0
1528442611701386,-1,6,2,0,0,-4,-2,-2
1528442611716131,0,5,-2,-2,-2,-2,-2,0
1528442611716131,0,1,-5,1,1,-1,-1,-1
1528442611723687,-2,3,-6,-4,0,2,1,0
1528442611723687,0,1,-7,0,0,-1,-1,1
1528442611738427,-1,-1,-7,-1,-3,-3,-1,-3
1528442611738427,-3,-3,-2,6,3,1,2,0
1528442611745597,0,-7,-3,-3,0,0,0,0
1528442611745597,-1,-6,1,1,-1,-2,-2,-3
1528442611753660,-2,-4,4,-1,-1,-1,-1,-1
1528442611753660,-1,2,0,-3,-2,0,0,1
1528442611761102,0,-2,1,-1,-2,0,1,-2
1528442611761102,-2,1,1,0,-1,-2,0,-1
1528442611776011,-2,0,1,-2,-2,-2,-2,0
1528442611776011,0,-2,1,-1,-2,-1,-3,-2
1528442611783910,-2,-2,-4,0,0,1,1,-1
1528442611783910,-1,-1,1,4,1,0,0,1
1528442611798867,0,-6,7,-8,-2,1,-1,-2
1528442611798867,-1,-7,14,0,-1,0,-2,-3
1528442611813883,-2,-10,-8,1,-1,-1,-3,-4
1528442611813883,-1,-8,-21,-1,-2,-1,0,-1
1528442611820621,-2,-7,-28,-2,0,0,-1,0
1528442611820621,-3,-5,-24,-1,0,0,-3,1
1528442611835730,0,-3,-18,-1,1,-3,1,0
1528442611835730,-1,-2,-16,-3,-2,-4,0,-1
1528442611843777,-1,-4,-12,0,-1,-4,-1,0
1528442611843777,0,-4,-8,-2,-1,-3,1,-2
1528442611858755,0,-3,-5,1,-1,-5,0,0
1528442611858755,-1,-4,-4,-1,-1,-2,-2,-1
1528442611873480,0,0,-5,0,-1,-1,-1,-1
1528442611873480,-1,-2,-4,-1,-2,0,1,-1
1528442611881462,0,0,-2,-2,0,-1,0,-2
1528442611881462,0,0,-4,-2,-1,-1,-1,1
1528442611895707,-1,-1,-3,0,-1,2,-3,0
1528442611895707,-1,0,-1,-1,0,1,-5,1
1528442611902688,-2,2,1,0,-1,0,-2,0
1528442611902688,-2,0,-1,0,-3,-2,0,0
1528442611918650,-3,0,2,-1,-1,0,0,-2
1528442611918650,-1,1,0,-1,-2,-2,-2,-2
1528442611933605,-1,0,0,-1,0,-2,-2,0
1528442611933605,-1,2,2,-1,-1,-2,-1,-2
1528442611940587,-2,-2,0,-1,-1,-2,-1,-1
1528442611940587,0,0,0,-2,0,-2,-1,-1
1528442611955548,-1,0,1,-3,-1,-2,-2,0
1528442611955548,0,-1,1,-1,-1,0,-3,-1
1528442611963526,-1,0,0,0,-1,-1,-1,-2
1528442611963526,-2,-1,0,-2,-1,-2,-1,-1
1528442611978486,-1,-2,0,0,-1,-1,0,-1
1528442611978486,-1,-2,0,-1,-2,-1,0,-1
1528442611993714,0,0,-1,0,-2,1,-1,-1
1528442611993714,0,-2,0,0,-1,-2,0,-1
1528442612001425,-2,-1,-1,-1,-1,1,-1,-2
1528442612001425,-1,-1,-1,-1,-1,-1,-1,-1
1528442612016491,-2,-2,-1,-2,0,-1,-1,-2
1528442612016491,-1,-2,1,-2,-2,-2,0,0
1528442612023721,-1,-1,0,-2,1,-1,0,-2
1528442612023721,0,1,0,-2,-1,-1,-1,-3
1528442612038586,1,-2,0,-2,-2,-3,-3,-1
1528442612038586,0,0,1,-1,0,-1,-1,-1
1528442612045565,1,-2,-1,-2,-3,-4,-2,0
1528442612045565,-2,-1,-1,0,-2,-1,-1,1
1528442612053868,1,0,-1,0,-1,0,0,0
1528442612053868,0,0,-1,-4,-2,0,-1,0
1528442612061613,0,-2,-2,-2,-2,-2,-1,0
1528442612061613,-1,0,-1,-1,-1,0,-2,-1
1528442612075537,-2,-1,-2,-2,1,-1,-1,-2
1528442612075537,-2,-2,-1,-1,1,-1,-1,-2
1528442612083516,0,0,-1,-1,0,-1,-2,-2
1528442612083516,-2,-3,-1,0,-1,0,0,-1
1528442612098078,-1,-1,0,0,-1,-1,-3,-2
1528442612098078,-2,-2,-2,-1,-2,-1,0,-1
1528442612105994,-1,-1,0,-1,-2,-2,-1,-1
1528442612105994,0,-1,1,-1,1,-2,-2,0
1528442612113018,-1,0,0,0,-2,0,-1,0
1528442612113018,-2,-1,0,-1,-2,-1,-2,1
1528442612128245,-3,-2,0,-3,-3,0,1,0
1528442612128245,0,-1,-1,-1,-1,-1,-1,-3
1528442612143456,-3,-1,0,-3,0,-1,1,-1
1528442612143456,-1,0,-2,-1,-1,2,-1,-1
1528442612150730,-1,-1,-2,-2,0,-1,-1,-1
1528442612150730,-1,0,0,-2,-1,-1,-1,-1
1528442612165444,0,-1,0,0,-1,0,-1,0
1528442612165444,1,0,-1,-2,-1,-3,-1,-3
1528442612173986,-1,0,-1,0,-1,0,0,0
1528442612173986,-2,-2,-2,0,-1,0,-1,0
1528442612181064,0,-1,-2,1,-1,-2,-1,-1
1528442612181064,0,-1,-1,-1,-2,-2,-1,-2
1528442612195749,0,-2,-1,0,-2,0,-1,-2
1528442612195749,-1,-1,-2,-1,-2,-1,-1,1
1528442612203829,-2,-1,0,-2,-1,-1,1,-3
1528442612203829,-2,-1,-1,0,-2,-1,-1,-3
1528442612218790,0,-1,0,-2,-1,1,2,-1
1528442612218790,-1,-1,0,-1,0,-1,-1,-2
1528442612225770,-1,-1,1,-2,0,-1,-1,0
1528442612225770,-1,0,-2,-1,-1,-1,-1,1
1528442612233748,0,-1,-1,0,0,-1,-2,-1
1528442612233748,-3,-2,0,0,-1,-1,2,-1
1528442612240736,0,-1,-1,-1,-2,0,-1,-1
1528442612240736,0,-3,-1,-2,-2,0,-2,-1
1528442612256107,-2,0,-1,-1,-1,-2,-2,0
1528442612256107,-3,-1,-1,0,0,0,-2,-1
1528442612263015,-1,0,-1,1,0,-1,-1,-2
1528442612263015,-1,-1,-1,-1,-1,1,0,-1
1528442612279001,-1,-1,-2,-2,0,0,1,0
1528442612279001,-1,0,-1,-2,-3,-2,0,0
1528442612286219,-1,0,-1,-2,-1,-1,0,-2
1528442612286219,0,-2,0,-1,0,-2,0,-1
1528442612293954,1,-1,0,0,-2,-2,-2,-1
1528442612293954,1,0,0,0,0,-1,-2,0
1528442612301175,0,-2,0,-2,-1,-1,-1,0
1528442612301175,-2,0,-1,-2,-1,-1,1,-1
1528442612316135,-1,2,-1,0,-1,1,-2,0
1528442612316135,-1,-1,-1,-3,-1,-1,0,-4
1528442612322899,-1,-1,-2,-2,-2,0,-1,-2
1528442612322899,-2,-1,-1,-1,-1,-2,0,-3
1528442612338931,-2,-2,-1,-1,0,0,0,-2
1528442612338931,0,-2,-1,-1,-1,-1,-1,-1
1528442612345794,-1,-1,1,1,0,-1,-2,-2
1528442612345794,-2,0,-2,0,-1,0,-1,0
1528442612353024,-2,-1,-2,-1,-3,-2,-1,-2
1528442612353024,-1,-1,-1,-1,-1,-1,-2,-2
1528442612361021,-1,-1,-2,-3,-2,-1,0,-1
1528442612361021,0,-2,-1,0,-1,-3,-1,-1
1528442612376017,-2,-2,0,-2,-1,0,-2,0
1528442612376017,0,-1,-2,-1,-2,-2,-1,0
1528442612383984,-3,-1,-2,-1,-1,-1,-2,0
1528442612383984,-1,-2,-1,-1,-1,0,-1,-2
1528442612398370,-1,0,-2,-2,-2,-1,-2,-2
1528442612398370,0,-2,-1,-3,-1,-2,-2,0
1528442612406510,-1,2,-1,-1,-1,-1,-2,-2
1528442612406510,-2,-1,-1,-1,-1,-1,-1,0
1528442612413641,-1,-2,0,-1,-1,-2,-2,0
1528442612413641,-1,0,-2,1,-1,-1,1,-1
1528442612421429,-1,-2,0,-1,0,0,-1,1
1528442612421429,-1,-2,0,-1,0,0,0,0
1528442612436391,-1,-2,1,-2,0,0,0,-1
1528442612436391,-1,-1,-2,-1,-2,-2,1,-2
1528442612443833,0,1,0,0,-2,0,-1,0
1528442612443833,-1,0,-1,-2,-1,-2,0,-1
1528442612450542,-1,-2,-2,-2,0,1,-1,-2
1528442612450542,-2,-1,0,-1,-2,0,-3,-2
1528442612458544,-2,-1,-2,-1,-1,-2,-2,-2
1528442612458544,-1,-2,-2,-1,0,-1,-2,-2
1528442612480923,-1,2,-2,-1,-1,-2,0,-2
1528442612480923,-1,0,-3,-1,0,-1,-3,0
1528442612488441,-1,-1,0,-1,0,-1,0,1
1528442612488441,0,-1,0,0,-2,-2,-1,-1
1528442612503749,-1,-2,0,0,-1,-1,-1,-1
1528442612503749,0,0,1,0,0,-1,-1,1
1528442612511579,-1,0,1,1,-2,-2,0,-1
1528442612511579,-1,-2,-1,-2,-1,-2,1,-1
1528442612518359,-1,-1,-2,-1,0,-1,-1,-1
1528442612518359,0,-1,-1,0,0,0,-1,0
1528442612526075,-2,-1,-2,-2,-1,-1,1,-1
1528442612526075,-1,-1,-2,-2,-2,0,-1,0
1528442612533823,0,-1,0,-1,0,-1,-1,-1
1528442612533823,0,-1,0,0,0,0,-2,-1
1528442612540787,-1,-2,-1,0,-2,-2,-1,-1
1528442612540787,0,0,-1,0,-2,0,-1,-3
1528442612556087,-2,0,-2,-1,-1,-2,-1,1
1528442612556087,-1,-2,0,-2,0,0,-1,-2
1528442612562835,-1,-1,0,0,0,-1,0,0
1528442612562835,-2,0,-2,-1,1,-1,-3,-1
1528442612571067,-2,-2,-2,1,-2,-2,-2,0
1528442612571067,0,-3,-2,-1,-2,-1,1,-2
1528442612578042,-1,-1,-1,-2,-2,-2,-1,-1
1528442612578042,0,0,-1,-1,0,-1,1,1
1528442612593913,1,0,-1,0,-2,-1,1,0
1528442612593913,-2,0,-2,-1,0,-1,-1,-1
1528442612600976,0,-1,0,-2,-1,0,-1,-1
1528442612600976,-3,0,0,-1,0,1,-1,-1
1528442612615948,0,-1,1,-1,-1,-3,-3,-1
1528442612615948,-1,-1,-1,0,-2,-1,-2,-1
1528442612623868,-1,-2,-2,-1,0,1,-3,-2
1528442612623868,0,-2,0,-3,-1,-1,-1,-1
1528442612630913,-1,-2,-1,-2,0,-1,-2,-1
1528442612630913,0,-1,-1,-1,-2,0,-1,-2
1528442612638897,0,0,-1,-1,-1,-2,-2,-2
1528442612638897,0,-1,-3,0,-2,-2,-1,-2
1528442612653858,-1,0,-1,-1,0,-2,0,-1
1528442612653858,0,0,0,0,1,0,-1,-1
1528442612660570,-2,-2,-1,1,-1,1,1,-1
1528442612660570,-2,0,0,1,-1,-2,-1,-2
1528442612675792,-1,-1,0,1,-1,-2,0,-1
1528442612675792,-1,-1,-1,-2,0,-1,-1,-1
1528442612683764,0,0,-1,0,0,-1,1,-1
1528442612683764,-1,-2,-1,-1,-1,-3,-3,0
1528442612690490,0,-1,-2,0,0,1,0,-1
1528442612690490,-2,0,1,0,-1,-1,-1,0
1528442612698730,0,-3,0,-1,-1,-1,-2,-1
1528442612698730,-1,0,0,-1,-1,-2,-1,-1
1528442612712723,-1,-2,-2,-1,-1,1,-2,-1
1528442612712723,0,-1,-2,-2,-2,-1,1,-1
1528442612720968,-1,0,-1,-1,-2,0,-1,-3
1528442612720968,0,0,-1,1,0,-2,-2,-2
1528442612735926,0,-1,0,0,-2,0,0,-1
1528442612735926,-1,-2,1,-2,-2,-1,-2,0
