timestamp,emg1,emg2,emg3,emg4,emg5,emg6,emg7,emg8
1528277505508663,-1,0,0,-1,-1,0,-1,-1
1528277505508663,-1,-1,0,-1,0,-2,-2,-2
1528277505508663,-1,0,-1,-2,-1,0,0,-1
1528277505508663,-1,-2,0,-1,-1,-1,-2,-1
1528277505512652,-1,-3,0,1,-1,-1,-1,-2
1528277505512652,0,-2,-1,-1,-1,-1,-1,-1
1528277505513649,0,0,0,0,-1,-2,-1,-3
1528277505513649,-2,1,-2,-2,-1,-2,0,-2
1528277505520630,-1,0,-2,-1,-1,-2,0,1
1528277505520630,0,-1,-1,-1,-2,-1,-1,0
1528277505528612,0,-1,-1,-1,-1,-1,-1,0
1528277505528612,0,-1,-1,-2,0,0,-2,-1
1528277505535591,-1,-1,-2,-2,-2,-1,-1,0
1528277505535591,-2,-2,-1,-2,-1,-1,-2,0
1528277505549555,-1,-2,-1,-2,-1,-2,-2,-2
1528277505549555,-1,-1,-3,-2,-1,1,0,-3
1528277505560524,-1,-2,-2,-1,1,0,0,-1
1528277505560524,-1,0,-2,-1,-1,-1,-1,-2
1528277505580504,-1,-3,-1,-1,-1,0,-1,0
1528277505580504,-2,-1,-1,0,-2,-3,-1,-1
1528277505582466,-1,0,-2,-1,0,-2,-1,-2
1528277505582466,-2,-1,0,0,-2,-1,-1,-1
1528277505594433,0,0,-1,-2,0,-1,-1,-1
1528277505594433,-1,-1,-1,0,-2,0,-2,-1
1528277505635360,0,-2,-1,-2,0,0,0,-1
1528277505635360,-2,-2,-1,-1,-2,-1,-2,-2
1528277505636323,-2,-2,0,0,0,0,-1,-2
1528277505636323,-1,-2,-1,1,0,-3,-2,-1
1528277505640337,-2,-1,-1,-3,-1,-2,-3,0
1528277505640337,1,-1,-2,0,0,0,0,-1
1528277505641336,-1,0,-3,-1,-1,-1,-1,-3
1528277505641336,0,0,-1,0,-1,0,0,-2
1528277505646321,-1,0,0,-1,0,-2,0,-2
1528277505646321,-1,-1,0,-2,-1,0,0,0
1528277505654306,-1,-2,-2,-1,-2,-2,1,-3
1528277505654306,-1,-1,-1,-3,-1,-1,-1,1
1528277505661255,1,1,0,-2,0,-2,-1,-1
1528277505661255,-2,0,-2,-1,0,0,-1,-2
1528277505677238,0,0,-2,1,-2,0,-1,0
1528277505677238,-1,-1,-2,-1,0,0,0,-1
1528277505684193,-2,0,-1,0,-2,-2,-1,-1
1528277505684193,1,-2,-1,0,-1,-1,-2,-1
1528277505708131,-1,0,-1,0,-2,-1,0,-1
1528277505708131,0,0,-1,-2,-1,-2,-1,1
1528277505709127,-1,-3,0,-1,-1,-1,-2,-1
1528277505709127,1,-1,0,-2,0,-2,-2,-3
1528277505721094,-1,0,-1,-2,-1,-2,-2,-1
1528277505721094,-1,-1,-2,-3,-1,-1,-2,0
1528277505730099,-1,-2,0,-2,-1,-1,0,-1
1528277505730099,0,0,1,-2,-2,1,-1,-1
1528277505745073,-1,1,0,-1,-3,-2,-2,0
1528277505745073,0,0,0,1,0,-1,0,0
1528277505747025,-1,-1,-1,-2,-1,-2,-2,-1
1528277505747025,-1,-1,-1,0,-3,-1,-1,-1
1528277505767995,-1,-2,-4,-3,1,-1,0,-1
1528277505767995,-1,1,0,-2,-2,-1,0,1
1528277505768966,-1,-1,-1,-1,-1,-1,1,-1
1528277505768966,0,-1,-2,-1,-1,-2,-1,-2
1528277505780961,-1,-2,0,-2,-2,-1,-1,-1
1528277505780961,0,-1,-2,0,0,-1,-2,-1
1528277505789911,-1,-2,-1,0,0,-1,-1,-1
1528277505789911,-2,-1,-2,0,-2,-2,-1,0
1528277505804871,-2,0,-1,0,-1,-1,-2,0
1528277505804871,-1,0,0,-1,0,0,-1,-1
1528277505806868,-1,-1,-1,1,-1,-2,-1,-1
1528277505806868,-2,0,0,-1,-3,-2,-1,0
1528277505827838,0,0,-3,0,-2,0,-1,-1
1528277505827838,-2,0,0,-1,-2,0,0,-2
1528277505829849,0,-3,-1,-2,-1,0,1,-1
1528277505829849,0,-2,-2,-1,0,-1,0,-2
1528277505849782,0,-1,-1,-2,1,1,-1,-1
1528277505849782,-1,-1,0,-1,-1,-1,-2,-2
1528277505851746,-1,-1,-2,-2,-2,0,-1,-1
1528277505851746,-1,-1,-1,0,-1,-1,0,0
1528277505864710,-1,-2,-1,0,0,-1,-1,0
1528277505864710,-1,-2,-2,-1,-2,0,-1,0
1528277505865708,-1,1,-1,-2,0,-2,-1,-2
1528277505865708,0,-1,-1,-2,-1,-1,0,0
1528277505886653,0,0,-1,0,-1,0,-1,-2
1528277505886653,0,0,-2,-1,-2,-1,-1,0
1528277505887649,-1,-1,-2,-2,-1,-1,-1,0
1528277505887649,-3,-1,-1,-1,-1,0,-1,-1
1528277505909590,-2,0,0,-1,-1,-1,0,-1
1528277505909590,-1,-1,-1,-2,0,0,0,-1
1528277505910588,0,-2,-1,-1,-3,-3,-1,-1
1528277505910588,0,-1,-1,-2,0,-2,-1,-2
1528277505924550,-1,0,0,0,-2,-2,0,-1
1528277505924550,0,0,-2,0,-3,-2,-2,0
1528277505925552,-1,-1,0,0,-1,-1,-2,-2
1528277505925552,-2,-2,1,-1,0,0,0,0
1528277505947496,-1,-1,0,-2,1,-1,0,0
1528277505947496,-1,-1,-1,-1,-1,-1,-2,-2
1528277505947496,0,0,-2,-1,0,0,-2,-2
1528277505947496,-2,0,-1,-1,-1,-2,0,0
1528277505969430,0,0,-2,-2,-1,0,0,-1
1528277505969430,-1,-3,-1,-2,0,-1,-2,-2
1528277505970428,-2,-3,0,0,-1,0,-1,-1
1528277505970428,-1,-1,-2,0,-2,1,-1,0
1528277505984426,-1,-3,-1,-2,-3,-1,-1,-4
1528277505984426,0,-1,-2,-1,-2,-1,-2,0
1528277505985389,-2,-1,-1,-1,-2,0,-1,-2
1528277505985389,-3,0,-2,-1,0,-1,-1,-2
1528277506007329,-2,-2,-1,0,-2,-2,-3,-2
1528277506007329,1,-2,0,-1,-1,-1,-2,-1
1528277506007329,-1,-1,-1,-1,-2,-1,1,-1
1528277506007329,-3,-1,0,-1,-2,0,-1,-1
1528277506029271,-2,1,-2,0,-1,-2,-1,0
1528277506029271,1,-4,-2,-2,-1,0,0,-1
1528277506030268,-2,-1,-1,-1,-1,0,-1,-1
1528277506030268,-2,0,-1,-1,-2,-2,-2,-1
1528277506046226,-1,-1,-1,1,-1,0,0,-2
1528277506046226,-4,0,-1,0,-1,0,-2,-1
1528277506047224,0,-2,-1,-3,0,-2,-1,-1
1528277506047224,-1,-1,-1,-1,0,-3,-1,-2
1528277506067169,0,-1,0,-1,0,-2,0,0
1528277506067169,-4,1,-1,0,-1,1,0,-1
1528277506068167,0,0,-1,0,-1,-1,0,-2
1528277506068167,-2,-1,-1,-3,-3,-1,0,-1
1528277506089112,0,-2,-1,-1,-1,-1,0,-1
1528277506089112,-1,0,0,-1,0,-1,-1,-2
1528277506090108,0,-1,-1,-1,-1,0,-3,-2
1528277506090108,-1,-1,-1,1,-1,-1,-1,-2
1528277506104070,0,0,0,0,-1,-3,-1,-1
1528277506104070,-1,-1,-1,-1,0,-1,-1,-1
1528277506105069,-1,-1,0,-1,-3,-1,0,0
1528277506105069,0,-1,-2,-1,0,-1,-1,-1
1528277506127009,-1,1,0,0,0,0,0,0
1528277506127009,1,0,-1,-2,-2,-1,-1,-1
1528277506134996,-1,0,-2,-2,0,-3,-2,0
1528277506134996,-1,-1,0,-1,-2,0,0,-2
1528277506149948,0,0,-1,-1,-1,-1,0,-1
1528277506149948,-1,-1,-1,-1,-1,-2,0,0
1528277506149948,-2,-1,0,1,0,1,-1,-1
1528277506149948,1,-1,0,0,-1,-2,-1,-1
1528277506164909,0,-2,0,0,1,-1,-1,-2
1528277506164909,-2,-2,-2,-2,0,0,-1,-1
1528277506164909,-2,-1,-1,-1,-1,-1,1,-1
1528277506164909,1,0,-2,0,-2,-2,-1,-1
1528277506186887,-2,0,-1,-1,-1,-1,-1,-1
1528277506186887,0,0,-1,0,-1,-2,0,-1
1528277506187855,-2,-2,-2,-1,-3,-1,-1,1
1528277506187855,0,-1,-1,-1,-1,-1,-1,-1
1528277506209814,0,-1,-1,-2,0,0,-2,0
1528277506209814,1,0,-1,0,-1,0,-1,-1
1528277506210832,-1,-2,-2,-1,-2,-1,0,1
1528277506210832,1,-1,0,-1,-1,-2,-2,0
1528277506224749,-1,-2,-2,-3,-1,0,-3,-1
1528277506224749,-3,-2,-1,0,-1,-1,-1,-2
1528277506225746,0,-1,-2,-1,-1,-1,-1,-4
1528277506225746,-1,0,0,0,-2,-1,0,-2
1528277506246725,-1,0,1,0,-1,-2,1,1
1528277506246725,0,-1,-1,-1,-1,0,0,0
1528277506247703,-1,-1,-1,-1,0,-1,0,0
1528277506247703,-1,-2,-2,-2,-1,-1,-2,1
1528277506269639,0,-1,1,0,-2,0,-1,-1
1528277506269639,-2,-1,0,-1,-1,-1,0,-2
1528277506270625,-1,-1,-5,-1,-1,-2,0,-2
1528277506270625,-2,-3,-3,-3,-1,0,-1,-2
1528277506284588,0,-2,-2,-2,-1,0,0,-2
1528277506284588,-1,-2,-2,-2,-2,-1,-1,-2
1528277506285585,-1,0,-1,-1,-2,-1,-1,-1
1528277506285585,0,-3,-1,0,-1,-1,0,0
1528277506307527,-1,-1,0,-1,-1,-2,0,-1
1528277506307527,-1,0,0,-1,0,0,-1,-1
1528277506307527,-2,-1,-2,-1,-2,0,-1,0
1528277506307527,0,-2,-3,0,-1,-2,-1,-1
1528277506329468,0,-2,-1,-2,-1,-1,0,-1
1528277506329468,0,-2,1,-1,0,0,-1,-1
1528277506330466,0,0,-1,-1,0,-2,-3,-1
1528277506330466,-2,-1,-1,-2,-1,0,-1,0
1528277506344432,0,0,0,0,0,0,0,-1
1528277506344432,-1,-1,-1,-1,-1,-1,-2,-1
1528277506345425,0,1,-1,-1,-1,0,-1,-2
1528277506345425,-1,-1,-3,0,-2,-1,-1,-2
1528277506368365,-1,1,-1,-1,-2,-3,-1,0
1528277506368365,-1,-2,1,-2,0,-2,-1,-1
1528277506369362,-1,-1,-1,-1,0,-2,0,-1
1528277506369362,-1,-1,-2,-1,-3,-2,-2,-3
1528277506389309,-2,-1,0,-2,-1,-1,-2,-1
1528277506389309,0,-2,0,-2,-1,0,-1,-1
1528277506390305,0,-3,0,-1,-2,0,0,-1
1528277506390305,1,0,0,-1,-1,0,-3,-1
1528277506404319,0,-1,0,-1,-2,-1,0,-1
1528277506404319,-1,-1,-2,-1,-1,-1,-2,0
1528277506405266,-1,-1,-2,0,-1,-1,-3,-1
1528277506405266,-1,-2,-2,1,0,1,-1,-2
1528277506427208,-1,0,-2,-1,0,0,0,0
1528277506427208,-1,-1,-1,0,-4,-1,-2,-1
1528277506428207,-1,-1,0,-1,1,1,-1,-1
1528277506428207,-3,-1,1,-1,-1,-2,0,-1
1528277506449182,-1,-1,0,-2,-1,-2,-1,0
1528277506449182,0,0,1,1,1,0,-1,-2
1528277506450199,0,0,-3,-1,-2,-1,-1,-2
1528277506450199,-1,-1,-2,0,-1,-1,0,-2
1528277506464143,-1,-1,0,-1,-1,-1,-1,-1
1528277506464143,0,-1,-1,-2,-1,0,-1,-2
1528277506465149,-1,-1,-1,-2,0,-4,-2,0
1528277506465149,-1,-1,0,-1,-1,-1,-2,0
1528277506487103,-1,-2,-1,-1,-3,-1,-1,-1
1528277506487103,-1,-1,1,-1,-3,-2,1,-1
1528277506488050,-1,-1,-1,0,-2,-2,-2,-1
1528277506488050,0,1,-1,0,1,1,0,-1
1528277506509986,-3,-1,-1,-2,-1,-4,-2,-2
1528277506509986,1,-1,1,1,1,-1,-1,-1
1528277506509986,-1,0,1,0,0,-1,-1,-1
1528277506509986,-1,-2,-2,-2,-1,-1,-2,0
1528277506524946,-1,-3,-2,-1,-3,0,0,-1
1528277506524946,-1,-1,-1,0,0,0,-2,-1
1528277506524946,0,-3,-2,0,0,-2,-2,-1
1528277506524946,-3,-2,0,-1,-3,-1,-2,-1
1528277506554900,0,-2,0,1,-1,1,-1,-1
1528277506554900,-1,-1,-1,-3,-2,1,-2,0
1528277506556861,0,-1,-3,-2,-1,1,-1,-1
1528277506556861,0,-2,0,-2,-1,-3,2,-3
1528277506570095,-1,-1,-2,-2,1,-1,0,-1
1528277506570095,-1,-2,-1,-1,-1,0,-3,0
1528277506570824,0,-2,0,-1,0,-1,0,0
1528277506570824,0,0,-1,-1,0,0,0,0
1528277506585051,-1,-1,0,-1,0,1,-1,-1
1528277506585051,0,-2,-1,-3,-2,-1,-1,0
1528277506586054,-1,-2,-1,1,-2,-2,0,-1
1528277506586054,-1,1,0,-2,0,0,-1,-1
1528277506606993,0,0,-2,0,0,-1,0,-2
1528277506606993,-2,1,-2,-1,-1,-2,0,0
1528277506614726,-1,-2,-1,-1,1,-1,-1,-2
1528277506614726,-2,-1,-4,-1,-1,-2,-2,0
1528277506630017,-1,1,0,-1,-1,0,-1,-1
1528277506630017,-1,-3,-2,-2,-1,-1,-1,0
1528277506630664,-1,-2,-2,-2,-1,-3,-1,-1
1528277506630664,0,0,1,0,-1,-2,-3,0
1528277506652804,0,0,0,-1,0,-1,-1,0
1528277506652804,-1,-1,-1,1,-1,0,-2,-2
1528277506652804,-2,1,-3,-1,0,-1,-2,1
1528277506652804,-1,-2,-1,0,-1,-1,-2,0
1528277506675544,-1,-3,-2,-2,0,0,0,-1
1528277506675544,-2,0,-2,-2,0,0,0,-1
1528277506675544,-1,0,-1,0,-1,0,-2,-1
1528277506675544,-1,0,-2,-1,-1,-1,-2,-2
1528277506689889,-1,-2,-1,-1,-2,-3,-1,0
1528277506689889,-2,-2,-1,-2,0,-1,-2,0
1528277506690509,-1,-2,-1,-2,-1,-1,-1,-1
1528277506690509,0,-2,-1,-2,-2,-2,0,-1
1528277506712448,-4,-1,-2,-1,0,-2,-1,0
1528277506712448,-1,1,-1,-1,0,-3,0,-1
1528277506712448,-1,-1,-2,-2,-2,0,0,-1
1528277506712448,-2,-1,0,-1,0,-1,0,0
1528277506735632,-2,-2,-1,-2,-2,0,-2,-1
1528277506735632,-2,-2,-1,-3,-1,-1,0,0
1528277506736644,-3,-1,0,0,-2,0,-1,-1
1528277506736644,-2,-1,-3,-2,-1,-2,-2,-1
1528277506750368,0,0,-2,-1,-1,-1,-1,0
1528277506750368,-1,-2,-1,-1,-1,0,0,-1
1528277506750368,-1,0,-2,-1,-1,-2,-1,-2
1528277506750368,0,-1,-1,-1,-3,0,-1,-1
1528277506772549,-1,0,0,-1,-1,0,0,0
1528277506772549,-1,-2,-1,-2,-2,-1,0,-2
1528277506773574,0,-1,-1,-1,0,0,0,-1
1528277506773574,-1,1,-1,0,-1,0,-1,-1
1528277506795565,-2,-2,-2,0,-1,-1,-2,-1
1528277506795565,-2,-1,-3,-1,0,-1,0,-2
1528277506796221,-1,-1,1,0,-1,-2,-1,0
1528277506796221,0,-1,-1,-2,-1,-2,-1,-1
1528277506810322,-2,-1,-1,-2,-2,1,-2,-2
1528277506810322,-1,-2,-1,0,1,1,-1,-2
1528277506810322,-1,-3,-1,-1,1,0,0,-1
1528277506810322,-1,-2,-2,0,-3,-2,0,-2
1528277506833122,-1,-1,-1,0,0,0,0,-1
1528277506833122,-1,-2,-2,0,-1,-1,-1,-2
1528277506834123,-2,1,-2,-2,0,-1,-2,-1
1528277506834123,-2,-3,1,-2,-2,0,-2,-2
1528277506855064,-1,0,-1,-1,-2,-1,-2,-1
1528277506855064,-2,0,0,0,-1,-1,-2,-2
1528277506856061,-2,-2,0,-1,-3,-1,0,-1
1528277506856061,0,-1,-2,-2,-2,0,-1,-1
1528277506869062,-1,0,0,-1,-2,-1,-1,0
1528277506869062,-2,-1,0,-1,-1,-1,-3,0
1528277506870042,-2,-1,-2,0,0,0,0,-3
1528277506870042,-4,-3,-1,-1,0,-3,-1,-1
1528277506891998,-1,-2,-2,-1,-2,-1,0,0
1528277506891998,0,-1,-1,-1,0,-1,-2,-1
1528277506892963,-2,-1,-1,-1,-2,-1,-1,-1
1528277506892963,0,-2,-1,-1,-1,-1,-2,0
1528277506914952,0,-2,-1,0,-1,-1,0,0
1528277506914952,0,-1,-2,-1,-2,-1,-1,0
1528277506915941,1,-2,-3,-2,-2,-2,-1,-1
1528277506915941,-1,-1,-1,0,-2,-1,0,0
1528277506929902,-1,-1,-1,-2,0,0,-3,-1
1528277506929902,-2,-1,1,-2,-1,-1,0,-1
1528277506930861,0,-2,-3,-2,-2,-1,-1,-1
1528277506930861,0,-1,-2,-2,0,-1,-1,-1
1528277506952829,-2,-1,0,0,0,-2,-2,-1
1528277506952829,-1,1,-1,0,-2,-1,-1,-2
1528277506952829,-2,-2,-1,-2,-1,-1,-1,1
1528277506952829,-2,-3,-2,-2,1,-1,0,0
1528277506975045,0,-1,0,-1,0,-1,-2,-1
1528277506975045,-1,0,-1,0,0,-1,-2,1
1528277506976043,1,0,-1,0,1,-1,-1,-2
1528277506976043,1,-2,-2,0,-2,-2,-1,-1
1528277506990272,-1,-2,-1,-2,-1,0,0,-2
1528277506990272,-1,-1,0,-2,-2,-1,-1,-1
1528277506991119,-1,-2,-1,-1,0,-1,-1,0
1528277506991119,-1,0,0,-1,-1,-1,-1,-1
1528277507012201,1,-1,0,0,0,0,-1,-1
1528277507012201,2,-1,-1,-1,-2,-1,-2,0
1528277507012962,-1,0,-3,-1,-1,1,1,-1
1528277507012962,0,-1,-1,-1,-2,0,-1,-1
1528277507035708,0,-2,-1,0,-1,-1,1,-1
1528277507035708,0,0,-1,0,-1,-1,0,1
1528277507036700,1,0,-1,-2,1,0,-1,-2
1528277507036700,-1,-1,0,-2,0,-1,1,-2
1528277507049665,-1,0,-1,-2,-2,-2,-1,-1
1528277507049665,-1,-1,-1,0,0,-2,-2,-1
1528277507050402,-1,-1,-1,-1,0,-2,-2,-2
1528277507050402,-1,-1,-1,0,0,0,0,-2
1528277507072608,-1,0,0,-1,-1,2,-1,0
1528277507072608,-1,-2,-2,-2,-3,-1,-1,-1
1528277507073583,-1,-1,-2,0,0,-1,-2,-3
1528277507073583,0,-2,-2,0,-1,-2,-2,-2
1528277507095939,-2,-2,0,-1,-2,-1,0,-2
1528277507095939,-1,-2,-1,-1,0,-1,-1,0
1528277507095939,-1,1,-3,-1,0,-1,0,0
1528277507095939,-1,1,-3,-2,-2,-2,-2,-1
1528277507109898,-1,-1,-2,-2,-2,-2,-1,1
1528277507109898,-2,-1,-1,-3,-1,-1,-1,-1
1528277507110546,-3,-2,-1,-1,-1,-2,-1,-1
1528277507110546,-1,-1,-1,1,-1,-1,0,0
1528277507132486,-2,-1,-2,0,-2,-1,-2,-2
1528277507132486,-1,-2,-1,-2,1,-2,-1,-2
1528277507132486,0,-1,0,0,-2,-2,0,-2
1528277507132486,-1,-1,-1,-2,-1,-2,-1,0
1528277507155760,-1,0,-1,-2,0,-2,-1,0
1528277507155760,0,-1,0,0,-2,0,-1,-2
1528277507156424,0,-1,-1,-1,-2,-3,-2,-2
1528277507156424,1,-1,-2,-1,0,0,-3,-2
1528277507169729,-1,0,0,-2,0,-1,-1,-1
1528277507169729,-1,-2,0,-2,0,-1,0,-1
1528277507170386,-1,0,-2,0,0,0,0,-1
1528277507170386,0,0,-1,-1,0,-1,0,-1
1528277507192327,-1,-2,-2,-1,-1,-1,-2,0
1528277507192327,-1,-1,0,-2,-1,0,-1,-1
1528277507193324,-1,-2,0,-1,-2,-2,0,-1
1528277507193324,0,-1,-1,-1,-1,0,1,-2
1528277507215461,0,0,-3,1,-2,1,-1,-1
1528277507215461,0,0,-1,0,-1,-3,0,-2
1528277507216302,0,-1,-1,-1,-1,-1,-2,0
1528277507216302,0,-1,0,-1,-2,0,-2,0
1528277507229527,-1,-1,0,-1,0,-3,-1,-2
1528277507229527,-1,-1,-2,0,1,-1,0,-1
1528277507237506,1,0,0,-1,-1,0,0,-3
1528277507237506,-3,-1,-2,-2,0,-2,-2,0
1528277507253204,-1,-2,0,0,-1,-1,-1,-1
1528277507253204,-1,-3,0,-2,0,-1,-1,-1
1528277507254355,0,0,1,-2,-1,-2,-3,-1
1528277507254355,0,-2,-1,-2,0,-1,0,-1
1528277507275144,-1,0,-1,-2,-1,-1,-1,-2
1528277507275144,0,0,-1,-1,-1,-3,-1,-2
1528277507276140,-2,-2,0,-1,-1,-1,1,0
1528277507276140,-1,-1,-1,-2,-1,-1,0,0
1528277507289386,-1,-2,-2,0,-2,-3,-1,0
1528277507289386,0,-1,0,-1,-1,0,-1,1
1528277507297357,-1,-1,-1,1,-2,-1,-3,-2
1528277507297357,-2,-2,0,-1,-1,-1,-2,0
1528277507313419,0,0,-1,0,1,0,-2,-2
1528277507313419,-2,0,-1,-1,0,0,-1,-2
1528277507313419,0,-2,-1,-1,-2,-2,0,-2
1528277507313419,-2,0,-1,0,-1,-2,0,0
1528277507335923,-1,-1,0,-2,-1,-1,-2,0
1528277507335923,0,0,0,0,-2,0,0,-3
1528277507335923,-2,-1,-3,-1,0,1,-1,-1
1528277507335923,0,0,1,0,-1,-1,0,-1
1528277507349151,0,0,-1,-1,-1,-1,0,-1
1528277507349151,-1,-1,-1,-1,-3,-1,-2,0
1528277507356879,1,-2,-1,0,-1,-2,-1,0
1528277507356879,-1,-1,-1,-1,-1,-1,-2,-2
1528277507373404,-2,-1,-2,-1,-1,0,0,-2
1528277507373404,0,-1,0,-1,-3,2,0,-2
1528277507374350,-1,-1,0,0,-2,-2,-1,-1
1528277507374350,-2,-2,-2,-1,-1,-2,-2,1
1528277507395501,-1,-1,-1,-1,-2,1,-2,0
1528277507395501,-1,-2,0,-2,-3,-2,0,-2
1528277507396077,-1,-1,0,-2,-2,-1,-1,-3
1528277507396077,-2,-2,-2,-2,0,0,0,0
1528277507409042,0,-1,1,-1,0,0,-1,-1
1528277507409042,-3,1,-1,-1,-2,-2,-1,-1
1528277507417280,-1,0,-1,-1,0,0,0,0
1528277507417280,0,0,0,1,-3,-2,-1,-1
1528277507433551,-1,-1,-1,-2,0,-1,-1,-1
1528277507433551,-1,-1,-1,-2,0,0,-1,0
1528277507433551,0,-1,-2,0,-2,-1,-2,-2
1528277507433551,-1,-1,-2,1,-2,-1,-1,-1
1528277507455420,0,0,-1,-1,0,0,-1,-1
1528277507455420,0,-1,-2,0,-1,-2,-1,-1
1528277507456154,-1,0,-1,-1,-1,1,-2,-1
1528277507456154,0,-2,-2,-3,0,-1,-2,-1
1528277507469418,0,-1,1,-1,0,-2,-2,0
1528277507469418,0,-2,-2,-2,0,0,-3,0
1528277507477392,0,-3,-1,-2,-1,-2,0,-1
1528277507477392,-1,1,-4,-1,-2,0,0,-2
1528277507492059,0,0,-1,-1,-2,-2,0,-1
1528277507492059,0,-1,-1,-1,0,0,-2,-2
1528277507493056,-1,-1,-1,-1,-1,0,-3,-1
1528277507493056,-1,-1,-1,-2,0,-2,-2,0
1528277507516026,-1,-1,-1,-1,-1,-2,-2,-1
1528277507516026,0,0,-2,-1,-3,-1,-1,-2
1528277507516026,-2,-1,-1,-2,-1,-2,-2,-2
1528277507516026,-3,-2,-1,-1,0,0,0,-1
1528277507529227,-1,0,-1,0,-2,0,0,-3
1528277507529227,-1,0,-1,-1,-1,-2,-2,-2
1528277507537936,-2,-1,0,0,-1,1,-3,-1
1528277507537936,0,-1,-1,1,-1,-1,-1,-1
1528277507551902,0,-2,-3,0,-1,-1,-2,-1
1528277507551902,-1,-1,-2,-1,-2,1,-1,-1
1528277507560875,0,-2,-1,0,-3,-1,1,-1
1528277507560875,-1,-1,-2,1,0,-1,0,-2
1528277507574837,-4,-2,-2,0,-2,1,-2,-1
1528277507574837,-1,-2,0,-1,-2,-3,0,-1
1528277507576831,0,1,-1,-2,0,-1,0,2
1528277507576831,-1,-3,-1,-2,-3,-2,-2,-1
1528277507597807,-2,0,0,-1,-1,-2,0,-1
1528277507597807,-1,0,-1,-2,-2,0,-1,0
1528277507599808,-2,-1,-2,1,0,-1,-1,-2
1528277507599808,-1,-1,0,-1,-1,0,0,-2
1528277507611792,-1,-2,0,-1,0,-1,-1,-1
1528277507611792,-1,0,-1,0,-1,1,0,0
1528277507620769,-2,-2,-1,0,-3,-2,-1,-1
1528277507620769,1,-1,-2,-1,-2,-1,-1,-1
1528277507635700,0,-1,0,0,-1,-1,0,-2
1528277507635700,1,-1,0,-2,-1,-1,0,-1
1528277507636676,0,-3,-1,-1,0,-2,-3,-1
1528277507636676,-2,0,-1,0,-1,-1,-2,-2
1528277507657670,-1,0,-2,-2,0,-1,0,1
1528277507657670,-2,1,-1,0,-1,-1,0,-1
1528277507659641,-1,-1,-1,-1,2,-1,-1,1
1528277507659641,-2,-1,-1,-1,0,-1,-1,-2
1528277507671633,0,0,-2,-1,-1,-1,-2,0
1528277507671633,-2,-1,0,-1,-1,-1,-1,-2
1528277507680581,-1,0,-1,-1,-2,0,1,0
1528277507680581,-1,-1,0,-2,-1,1,-1,-1
1528277507695569,-1,-1,1,-3,-3,-3,0,-2
1528277507695569,1,1,-1,1,-2,-2,0,-1
1528277507696590,-2,1,-2,0,-1,-1,-1,-1
1528277507696590,-1,-2,-1,-1,-1,-2,-1,-1
1528277507717513,-2,0,0,-1,0,-2,0,-1
1528277507717513,-1,-2,-1,-1,-1,-1,-2,1
1528277507719477,0,-1,-1,-2,-1,0,-2,-2
1528277507719477,-1,-1,-1,-2,-1,-1,-1,-3
1528277507731472,-1,-1,-3,-2,-1,-1,0,-1
1528277507731472,0,-2,0,-1,-1,0,-1,0
1528277507740395,-1,0,-2,1,-2,-1,-1,-1
1528277507740395,-2,-1,-1,-2,-1,-1,-1,0
1528277507755409,0,-1,0,-2,0,-1,-2,-1
1528277507755409,-1,0,-1,-1,-2,-2,1,-3
1528277507757404,-1,-4,-1,0,0,1,0,-1
1528277507757404,-2,-1,-1,-2,-1,-2,-2,-1
1528277507777348,-1,-2,0,-1,-1,-2,-2,0
1528277507777348,0,-2,-1,-2,-1,0,-2,0
1528277507779291,-1,0,-1,-1,-1,-2,0,0
1528277507779291,-1,-1,-1,0,-2,-2,0,-1
1528277507800289,0,-2,-1,-1,0,0,-1,-1
1528277507800289,-1,-1,-1,0,-2,-2,-1,1
1528277507802230,1,0,-2,0,-1,0,0,-1
1528277507802230,-2,-2,-1,0,-1,-2,-1,-2
1528277507815250,-1,-1,-1,-1,-1,-1,0,-1
1528277507815250,-2,-1,-2,0,-1,-1,0,0
1528277507817245,-1,-2,-2,-2,-1,0,-2,-1
1528277507817245,1,-1,-1,-1,0,-2,-2,1
1528277507838189,-1,0,-1,0,-1,-1,-1,1
1528277507838189,-1,-1,-2,-1,-2,-2,-1,-2
1528277507839142,-3,0,-1,-2,-4,-1,-1,-2
1528277507839142,1,0,-1,-1,0,1,0,-1
1528277507851145,-1,-3,-3,-2,-2,-1,-2,-1
1528277507851145,0,0,-1,-1,0,0,0,0
1528277507860123,-1,-1,1,-2,-1,-2,-1,-2
1528277507860123,0,-2,-1,-1,-2,-2,0,0
1528277507875036,-1,-1,-2,0,-1,0,-1,-1
1528277507875036,-2,-1,-1,-2,0,-2,0,-2
1528277507877029,-2,-1,-1,0,0,-2,0,-1
1528277507877029,-1,-1,-1,-1,0,1,-2,-1
1528277507897983,-1,-3,-1,-1,-1,-2,-2,-2
1528277507897983,1,-2,-1,-1,-1,-2,-2,0
1528277507899997,-1,-1,-2,-1,0,0,-2,-1
1528277507899997,-1,-1,-2,-2,-1,-1,-2,-1
1528277507912078,-2,-1,-1,-2,-2,-2,-1,0
1528277507912078,-2,-3,-3,-1,-1,-1,-1,-1
1528277507919946,-1,0,0,-2,-1,-1,0,-2
1528277507919946,-1,-1,-2,0,-2,0,0,-2
1528277507935873,-1,-1,-3,-1,0,-1,0,0
1528277507935873,-2,0,0,-1,-3,-1,-1,-2
1528277507936871,-3,-1,-2,-1,-2,-2,0,0
1528277507936871,-1,-1,-1,-1,-2,-2,-2,-1
1528277507958111,0,0,0,0,0,-1,0,-1
1528277507958111,-1,0,0,-1,0,0,0,-1
1528277507959107,1,-2,0,-2,-1,0,0,-2
1528277507959107,-2,0,0,-1,1,-1,-1,0
1528277507972175,0,-2,-2,-1,-2,-1,-1,-1
1528277507972175,0,0,-1,1,1,-3,1,-1
1528277507980052,-1,-1,-2,0,-2,1,-2,-1
1528277507980052,-2,-2,-1,-3,-1,0,-1,1
1528277507995011,-2,1,-3,1,-1,-2,-2,-1
1528277507995011,-1,-1,-1,0,-1,-2,0,-1
1528277507997006,0,0,0,0,-1,0,-1,0
1528277507997006,-2,-2,0,-3,-2,0,-1,0
1528277508018109,1,-1,0,0,-2,-1,0,0
1528277508018109,-1,-2,-2,-2,-1,-1,-1,-1
1528277508024477,-1,-1,1,-1,1,0,0,-1
1528277508024477,0,0,-2,0,-2,0,-1,-1
1528277508031218,-1,-2,-1,-2,-3,-2,-2,0
1528277508031218,0,-2,0,0,-1,-1,-1,-1
1528277508041263,-2,-1,-1,-2,-2,1,-1,-2
1528277508041263,-1,0,0,0,-1,0,-1,-1
1528277508055151,-2,-4,-1,0,0,-2,-2,-1
1528277508055151,-1,-2,0,-1,-2,-2,-2,0
1528277508057142,0,0,-1,-1,-2,0,-1,-1
1528277508057142,-1,0,0,-1,0,0,-1,-2
1528277508078401,0,0,-1,-2,-1,-1,0,-1
1528277508078401,-1,-1,-2,-2,-1,-1,0,-1
1528277508079095,-1,-1,-1,0,-1,1,0,-1
1528277508079095,-2,-1,-2,0,-1,-1,-1,-1
1528277508091052,-2,-1,-2,-1,-1,-2,-1,-1
1528277508091052,-2,-2,-1,0,-1,-1,-1,-1
1528277508100284,-2,-2,-1,0,-3,0,-2,0
1528277508100284,-1,-2,0,-1,0,0,-1,-2
1528277508114998,-1,-2,-1,-1,0,-2,-2,0
1528277508114998,0,-1,-1,1,-1,-1,-1,-3
1528277508116751,0,-1,-1,-1,0,-2,-1,-2
1528277508116751,-1,0,-1,-1,-2,1,0,-1
1528277508137702,-1,-1,0,1,-2,0,0,0
1528277508137702,-1,-1,-3,-2,-2,-2,-2,-1
1528277508137702,-1,-1,-3,-2,-2,-2,-2,-1
1528277508137702,-1,-1,-3,-2,-2,-2,-2,-1
1528277508137702,-1,-1,-3,-2,-2,-2,-2,-1
1528277508137702,-1,-1,-3,-2,-2,-2,-2,-1
1528277508137702,-1,-1,-3,-2,-2,-2,-2,-1
1528277508137702,-1,-1,-3,-2,-2,-2,-2,-1
1528277508137702,-1,-1,-3,-2,-2,-2,-2,-1
1528277508137702,-1,-1,-3,-2,-2,-2,-2,-1
1528277508137702,-1,-1,-3,-2,-2,-2,-2,-1
1528277508137702,-1,-1,-3,-2,-2,-2,-2,-1
1528277508137702,-1,-1,-3,-2,-2,-2,-2,-1
1528277508137702,-1,-1,-3,-2,-2,-2,-2,-1
1528277508137702,-1,-1,-3,-2,-2,-2,-2,-1
1528277508137702,-1,-1,-3,-2,-2,-2,-2,-1
1528277508137702,-1,-1,-3,-2,-2,-2,-2,-1
1528277508137702,-1,-1,-3,-2,-2,-2,-2,-1
1528277508137702,-1,-1,-3,-2,-2,-2,-2,-1
1528277508137702,-1,-1,-3,-2,-2,-2,-2,-1
1528277508137702,-1,-1,-3,-2,-2,-2,-2,-1
1528277508137702,-1,-1,-3,-2,-2,-2,-2,-1
1528277508137702,-1,-1,-3,-2,-2,-2,-2,-1
1528277508137702,-1,-1,-3,-2,-2,-2,-2,-1
1528277508137702,-1,-1,-3,-2,-2,-2,-2,-1
1528277508137702,-1,-1,-3,-2,-2,-2,-2,-1
1528277508137702,-1,-1,-3,-2,-2,-2,-2,-1
1528277508137702,-1,-1,-3,-2,-2,-2,-2,-1
1528277508137702,-1,-1,-3,-2,-2,-2,-2,-1
1528277508137702,-1,-1,-3,-2,-2,-2,-2,-1
1528277508137702,-1,-1,-3,-2,-2,-2,-2,-1
1528277508137702,-1,-1,-3,-2,-2,-2,-2,-1
1528277508137702,-1,-1,-3,-2,-2,-2,-2,-1
1528277508137702,-1,-1,-3,-2,-2,-2,-2,-1
1528277508137702,-1,-1,-3,-2,-2,-2,-2,-1
1528277508137702,-1,-1,-3,-2,-2,-2,-2,-1
1528277508137702,-1,-1,-3,-2,-2,-2,-2,-1
1528277508137702,-1,-1,-3,-2,-2,-2,-2,-1
1528277508137702,-1,-1,-3,-2,-2,-2,-2,-1
1528277508137702,-1,-1,-3,-2,-2,-2,-2,-1
1528277508137702,-1,-1,-3,-2,-2,-2,-2,-1
1528277508137702,-1,-1,-3,-2,-2,-2,-2,-1
1528277508137702,-1,-1,-3,-2,-2,-2,-2,-1
1528277508137702,-1,-1,-3,-2,-2,-2,-2,-1
1528277508137702,-1,-1,-3,-2,-2,-2,-2,-1
1528277508137702,-1,-1,-3,-2,-2,-2,-2,-1
1528277508137702,-1,-1,-3,-2,-2,-2,-2,-1
1528277508137702,-1,-1,-3,-2,-2,-2,-2,-1
1528277508137702,-1,-1,-3,-2,-2,-2,-2,-1
1528277508137702,-1,-1,-3,-2,-2,-2,-2,-1
1528277508137702,-1,-1,-3,-2,-2,-2,-2,-1
1528277508137702,-1,-1,-3,-2,-2,-2,-2,-1
1528277508137702,-1,-1,-3,-2,-2,-2,-2,-1
1528277508137702,-1,-1,-3,-2,-2,-2,-2,-1
1528277508137702,-1,-1,-3,-2,-2,-2,-2,-1
1528277508137702,-1,-1,-3,-2,-2,-2,-2,-1
