timestamp,emg1,emg2,emg3,emg4,emg5,emg6,emg7,emg8
1528882586595053,-1,-2,0,1,-1,-3,-1,0
1528882586595053,-1,0,-2,-1,-3,0,-2,-1
1528882586599040,-1,0,2,-1,-1,-1,-1,0
1528882586599040,-2,-2,-1,-1,0,-1,-1,-2
1528882586600039,-2,0,0,0,3,2,1,1
1528882586600039,0,-5,0,1,0,-1,0,0
1528882586601035,-1,-2,0,0,-1,-1,0,-2
1528882586601035,-1,-1,-3,-1,-3,0,-1,0
1528882586614001,0,-2,-1,-2,-4,-2,-1,-1
1528882586614001,-1,-5,-8,-7,0,-1,-1,0
1528882586620982,0,0,4,5,-1,-2,-1,0
1528882586620982,2,2,7,6,3,1,0,0
1528882586627962,-1,-1,-1,1,0,1,1,4
1528882586627962,-2,3,5,-2,-1,-2,-4,-5
1528882586642922,-2,-5,-7,-7,-4,0,-3,-5
1528882586642922,-2,-4,-7,-11,-2,-2,0,1
1528882586653894,-4,-4,-6,-6,-6,-5,-2,-4
1528882586653894,-2,-2,-5,-1,17,0,2,2
1528882586657882,0,2,6,2,-17,-4,-1,0
1528882586657882,-1,-4,-5,-4,-15,-1,-1,-2
1528882586673841,-1,1,-2,-8,4,2,-1,-1
1528882586673841,0,2,16,17,7,1,-1,1
1528882586681820,-2,-2,-1,-3,2,3,-1,-1
1528882586681820,-1,-2,2,-1,-2,-2,0,2
1528882586720715,-1,-6,-11,-2,27,4,3,0
1528882586720715,2,-1,-8,-14,-43,-9,-1,1
1528882586722709,-4,2,2,0,16,5,0,-2
1528882586722709,-2,3,0,0,-6,-2,-2,-2
1528882586722709,3,6,8,9,16,5,0,-2
1528882586722709,-6,-5,-3,0,3,-2,4,-2
1528882586724704,0,-2,-11,-3,-6,-2,3,9
1528882586724704,1,-1,-1,1,-2,-5,-4,-8
1528882586733680,0,6,23,-2,-17,-5,0,18
1528882586733680,-12,-4,-1,-4,-2,-5,-14,-33
1528882586739666,5,-6,-8,4,-1,1,-2,-2
1528882586739666,-2,-8,-24,-9,-5,0,0,3
1528882586747643,0,6,8,-1,-17,-1,-3,-5
1528882586747643,4,15,16,7,6,2,2,8
1528882586762603,-5,-1,-4,-6,-15,-3,1,-3
1528882586762603,0,0,9,17,27,5,7,-1
1528882586770581,-4,-3,-10,-9,-3,-7,-10,-4
1528882586770581,3,6,17,8,10,7,0,5
1528882586777563,0,-4,-1,3,-8,-1,3,-1
1528882586777563,-1,-10,-17,-16,-17,-4,-1,4
1528882586793521,-4,3,8,10,-6,-5,0,-8
1528882586793521,1,-6,-11,-5,7,-2,-1,6
1528882586800501,-1,1,-5,-6,1,0,-4,2
1528882586800501,-6,-9,-10,0,6,6,-1,-6
1528882586807482,-9,-11,-5,-5,0,-2,3,7
1528882586807482,14,3,-5,-4,-21,1,-1,-6
1528882586822443,2,8,26,4,1,-8,-1,2
1528882586822443,-1,0,7,7,-3,-3,-6,-8
1528882586830422,10,6,-13,-7,1,3,1,2
1528882586830422,0,4,9,15,42,4,3,14
1528882586839399,-6,-6,-6,-10,-4,1,-8,-16
1528882586839399,0,4,6,0,-2,-12,-1,5
1528882586853362,0,0,-2,3,-2,16,3,-2
1528882586853362,-2,-6,-5,-5,3,4,1,2
1528882586860343,2,0,-2,1,-11,-2,7,6
1528882586860343,-2,1,-5,-2,-10,-3,-6,0
1528882586867322,-1,-3,-21,-5,-2,0,1,-5
1528882586867322,-5,8,11,-7,-12,-10,-9,-1
1528882586882285,-2,5,20,18,22,-1,-4,-5
1528882586882285,0,1,2,4,-9,-2,1,2
1528882586890262,1,-4,-14,-7,1,-9,1,-1
1528882586890262,0,1,1,4,16,22,6,3
1528882586897243,3,5,1,4,14,12,2,-2
1528882586897243,1,5,7,-9,-17,-16,-2,-3
1528882586913201,-1,-5,0,1,-1,-4,-2,0
1528882586913201,-3,-2,-9,-1,2,1,2,0
1528882586928162,-9,-10,-12,-15,-19,-6,-6,8
1528882586928162,3,9,5,-8,-62,-6,3,-9
1528882586929215,1,0,4,2,11,0,-2,-10
1528882586929215,-4,-9,-7,-3,3,-16,-3,-1
1528882586942160,1,-2,-1,4,17,17,4,-4
1528882586942160,-2,-5,-1,1,8,4,1,2
1528882586951138,-3,-1,4,-8,-45,-16,-3,-7
1528882586951138,1,-4,-5,-5,-10,0,1,9
1528882586957093,2,5,0,5,-1,-8,-5,-3
1528882586957093,-3,-1,-3,-3,30,9,2,6
1528882586973093,-2,-1,7,11,-18,-8,-5,-5
1528882586973093,0,-1,-3,1,-22,-8,0,-1
1528882586980025,-2,2,-2,1,24,19,2,4
1528882586980025,2,2,0,-15,-59,-12,-9,-9
1528882586988027,-3,3,2,1,20,17,4,7
1528882586988027,-1,-6,-11,1,22,-15,1,-7
1528882587002961,4,1,4,4,-27,-15,0,-1
1528882587002961,-1,-4,-4,-5,-6,-9,-2,1
1528882587010939,2,-3,-1,-3,31,14,1,-1
1528882587010939,-6,-6,-7,-4,-5,33,6,-11
1528882587017922,0,-2,1,1,12,-17,-10,2
1528882587017922,-1,2,6,6,12,-9,-3,-1
1528882587041858,-5,-5,-6,-9,0,10,12,2
1528882587041858,-2,-5,-4,1,11,0,-7,-5
1528882587042853,4,8,8,-3,-19,-29,-14,13
1528882587042853,-1,-1,4,10,55,19,7,4
1528882587047842,5,3,-2,-5,-40,-28,-1,3
1528882587047842,4,-1,-4,0,16,37,20,25
1528882587062803,5,0,-3,-14,-54,-32,-4,-17
1528882587062803,2,1,8,14,63,28,5,3
1528882587070781,-7,-9,-11,-18,-14,-30,-12,-10
1528882587070781,-2,3,12,17,-1,-11,-3,1
1528882587084744,-7,-7,-11,-14,-12,3,-2,-7
1528882587084744,-2,0,-6,-12,-12,-7,2,4
1528882587093718,0,0,1,7,-5,5,0,-2
1528882587093718,6,5,13,2,-17,-7,-6,-2
1528882587099704,0,1,0,7,42,14,4,0
1528882587099704,-3,-3,-6,1,-12,25,7,-3
1528882587107682,-1,0,11,1,-19,-1,-5,-1
1528882587107682,-4,-1,-9,-8,17,5,0,-3
1528882587122640,-3,-1,1,7,23,16,3,-1
1528882587122640,-4,-7,-12,-12,34,-11,4,1
1528882587130618,3,2,1,14,29,8,-1,1
1528882587130618,1,4,10,11,-4,-22,-2,-6
1528882587144584,0,-2,-8,-10,-6,19,8,2
1528882587144584,-7,-3,1,5,-12,-18,-10,-14
1528882587153560,2,2,4,3,18,3,5,29
1528882587153560,-1,2,0,-5,-32,-8,-13,-26
1528882587160539,1,-6,-8,-4,39,9,6,0
1528882587160539,3,5,2,-4,-27,-2,4,2
1528882587176524,1,2,7,3,18,7,7,4
1528882587176524,-5,-3,-8,-8,-26,6,-15,-4
1528882587182480,-2,1,5,0,-25,-13,-7,-1
1528882587182480,0,1,0,0,-15,-7,-6,-2
1528882587191457,-1,-4,-5,0,36,13,9,-5
1528882587191457,3,-4,-7,-9,14,-2,14,8
1528882587205419,-3,-3,3,2,1,-1,-11,-9
1528882587205419,4,7,15,12,-39,-1,0,6
1528882587214414,-3,0,-2,-2,-16,-24,-13,-14
1528882587214414,4,0,2,7,7,6,4,12
1528882587220380,1,3,0,-6,1,2,1,0
1528882587220380,-1,0,-4,-12,-56,-15,-2,-2
1528882587236338,-1,-1,1,8,6,11,-6,-4
1528882587236338,-3,-2,-1,-4,9,-24,-13,-4
1528882587242322,-1,-2,1,6,19,46,30,5
1528882587242322,4,3,2,2,5,-24,-14,16
1528882587251297,3,2,1,0,-1,-1,-9,-21
1528882587251297,-2,0,-3,-7,-14,-8,-2,4
1528882587265261,-1,-3,-5,-4,-10,5,4,-1
1528882587265261,1,-1,6,7,14,5,7,9
1528882587282215,-1,-1,-3,-3,-5,2,-2,2
1528882587282215,-1,2,3,4,9,0,-3,-4
1528882587283216,-2,0,-8,-3,-17,-14,-6,3
1528882587283216,-2,0,3,2,23,13,1,-9
1528882587296620,-2,-2,-9,-18,-34,-10,-3,1
1528882587296620,-1,2,-3,13,20,4,3,-3
1528882587302580,0,3,5,-2,-17,-8,3,0
1528882587302580,-3,-2,-2,-7,3,8,-2,-7
1528882587317576,-1,-1,-3,4,35,9,-2,0
1528882587317576,-3,-6,-14,-11,-22,-9,2,3
1528882587325777,0,2,0,2,3,-6,-7,-1
1528882587325777,0,4,9,13,21,6,-2,-4
1528882587334527,-1,-1,-2,-11,-5,4,6,6
1528882587334527,-2,-5,-3,2,-7,-4,-10,-8
1528882587340465,-3,-5,-4,2,8,-5,-5,-7
1528882587340465,1,-3,-1,0,21,3,12,5
1528882587356422,-1,-2,-8,-8,-43,5,-1,1
1528882587356422,-1,-1,4,-3,-5,14,-1,-7
1528882587362838,1,0,3,9,32,-3,-4,0
1528882587362838,-9,-6,-10,-7,-7,-8,-4,-6
1528882587371382,10,6,7,9,-14,-2,0,5
1528882587371382,1,1,1,-5,4,1,-3,-5
1528882587385345,-4,-1,1,2,-8,-1,-1,4
1528882587385345,1,0,-5,-2,19,7,5,-9
1528882587394322,-4,-3,3,2,10,-16,-13,4
1528882587394322,1,4,2,-5,-8,3,4,3
1528882587400358,0,2,13,3,-17,-7,2,13
1528882587400358,6,-1,-4,1,7,5,-1,1
1528882587424678,1,2,1,0,1,2,5,-1
1528882587424678,6,-1,0,-4,-6,-2,12,7
1528882587425558,-2,0,-5,-2,3,13,-1,-3
1528882587425558,-5,-3,1,3,-1,-14,-7,-2
1528882587431542,2,5,5,-1,-6,19,1,0
1528882587431542,3,4,0,12,57,3,-1,5
1528882587444521,-4,-2,3,-13,-57,-24,-2,-11
1528882587444521,-3,-1,-3,6,-3,6,2,-2
1528882587454510,4,4,10,4,8,0,-2,-6
1528882587454510,2,0,-3,2,-8,4,1,5
1528882587460496,2,-4,-6,-4,18,-5,0,-6
1528882587460496,2,1,0,-9,15,16,-1,4
1528882587476422,-6,-9,-13,-3,6,-8,-3,-7
1528882587476422,-9,-6,6,1,-21,-3,-3,1
1528882587491382,-7,-3,-3,6,5,-1,0,1
1528882587491382,7,2,-2,-9,-12,5,-2,-4
1528882587493376,4,6,6,6,20,-1,3,5
1528882587493376,-1,1,5,-3,-4,-9,-4,-5
1528882587505628,-1,-4,-8,-2,1,0,-3,-2
1528882587505628,-1,2,-4,6,34,1,-1,-2
1528882587514321,-1,-4,-2,-12,-57,-13,-5,-4
1528882587514321,7,2,-3,5,29,12,10,2
1528882587520626,0,0,9,0,-15,-3,5,0
1528882587520626,-3,-3,-3,2,-4,-2,-3,1
1528882587536429,-4,-7,-10,-10,7,-4,-4,0
1528882587536429,-5,-1,6,8,26,-2,0,-5
1528882587543276,7,4,2,1,-2,1,4,3
1528882587543276,1,0,0,-4,-15,1,4,1
1528882587551487,-6,-3,-6,3,13,2,-7,-10
1528882587551487,-3,-6,-12,-10,-9,-6,3,3
1528882587565193,-1,-1,-3,1,5,-4,-9,-2
1528882587565193,3,4,7,-2,-5,-1,-2,0
1528882587574467,-7,-5,-7,-4,2,3,4,1
1528882587574467,0,-2,-1,-4,-12,0,-5,2
1528882587580690,1,0,0,3,-3,3,-5,-8
1528882587580690,-2,-2,-4,-2,22,1,-2,-2
1528882587596699,-2,1,4,0,-19,-5,2,1
1528882587596699,2,1,4,6,13,0,-1,0
1528882587602930,0,-2,-6,-11,-33,-8,-4,1
1528882587602930,-4,-4,-6,-7,-6,0,-6,-2
1528882587611657,1,2,4,1,22,2,-2,-3
1528882587611657,-1,1,-6,-9,-6,-7,-3,-5
1528882587625622,0,-4,-7,0,44,-7,1,-1
1528882587625622,-3,-3,6,-3,-34,8,-4,-3
1528882587634595,-2,-5,-7,-5,-2,-9,-2,0
1528882587634595,0,1,1,0,-2,4,2,0
1528882587640157,-2,2,8,13,12,2,4,0
1528882587640157,1,1,1,-3,4,3,-1,0
1528882587656116,0,0,4,7,7,-6,0,-3
1528882587656116,-3,-1,-5,-8,-12,10,5,0
1528882587662100,-2,-3,-10,-8,2,-4,-4,-2
1528882587662100,-1,-1,0,9,20,-1,4,1
1528882587672074,-1,-2,-5,-6,-10,2,1,0
1528882587672074,1,3,3,1,-39,-12,-3,1
1528882587685039,3,7,9,6,10,15,-2,-3
1528882587685039,-1,-1,-3,-6,-7,-12,-6,-1
1528882587694071,-2,-1,0,3,3,-5,4,1
1528882587694071,0,-3,-6,-5,2,2,-1,-3
1528882587708279,-1,-2,-3,2,-13,-8,-1,3
1528882587708279,0,2,-2,3,1,18,3,-2
1528882587716998,0,1,2,5,-19,-3,2,-1
1528882587716998,-1,0,3,-1,6,-4,-1,-3
1528882587731935,1,2,6,1,-13,1,-1,-1
1528882587731935,-1,3,0,1,16,-2,-1,-1
1528882587732922,1,-1,-5,-5,-8,1,0,2
1528882587732922,-2,0,1,-9,-20,-5,-3,-1
1528882587744917,0,-1,-5,1,31,8,0,2
1528882587744917,1,2,11,8,-9,-4,3,1
1528882587753856,1,0,3,9,10,15,4,1
1528882587753856,0,0,0,4,12,-2,-6,-3
1528882587767856,-2,0,1,-2,-5,-1,-1,-1
1528882587767856,-2,-3,-4,-8,-7,-4,1,-1
1528882587776795,2,0,0,-1,4,0,2,0
1528882587776795,-1,-4,-7,-5,-2,-5,-2,-1
1528882587791755,0,-2,-7,-15,-20,0,-1,1
1528882587791755,0,-1,-1,6,-10,-4,1,1
1528882587792752,2,2,5,8,24,4,0,1
1528882587792752,-6,-3,-3,-7,-22,-5,-3,-2
1528882587804720,-1,-1,-3,-2,-5,1,1,-1
1528882587804720,-3,-1,-3,-5,3,-7,-2,-1
1528882587813722,0,0,-3,1,5,-6,-2,-1
1528882587813722,2,1,-3,4,24,2,1,0
1528882587827683,0,-1,3,1,-1,0,0,0
1528882587827683,-1,-1,-3,-2,-3,2,0,0
1528882587836659,-3,0,1,-4,-11,-9,-5,0
1528882587836659,0,-1,-1,1,6,1,0,1
1528882587851677,0,0,2,3,1,0,-1,-2
1528882587851677,0,-2,0,1,-7,-2,0,-2
1528882587852759,0,0,-5,-10,-8,2,0,0
1528882587852759,-1,-3,3,-8,-3,-2,-3,-4
1528882587864624,-1,-2,-3,6,-5,-1,-1,0
1528882587864624,-2,-3,0,-2,2,-4,-4,0
1528882587874565,0,0,3,5,4,4,4,0
1528882587874565,-2,-1,-5,2,4,-1,1,-1
1528882587887522,0,-1,-3,-2,12,-1,-2,-3
1528882587887522,-2,-1,-4,-4,-11,-4,-2,-1
1528882587896500,0,0,-4,-3,-2,0,-2,1
1528882587896500,-3,-3,-1,-1,6,1,-2,-1
1528882587911458,0,-1,1,0,1,-1,-1,1
1528882587911458,0,1,1,-3,-4,-2,0,-2
1528882587913488,0,3,9,4,1,-2,0,-4
1528882587913488,2,1,3,3,-8,-1,1,1
1528882587925455,-1,-2,-2,5,-6,-1,-1,-1
1528882587925455,0,-2,-4,0,2,0,-2,1
1528882587940433,0,0,-1,-5,-4,0,1,0
1528882587940433,-1,-4,-2,0,7,1,-1,-2
1528882587947362,-2,-2,-6,-4,2,1,0,0
1528882587947362,0,1,-1,3,-2,-1,0,-1
1528882587956339,-1,-1,-3,-6,-3,0,-2,-1
1528882587956339,0,1,2,0,-6,-2,-1,1
1528882587971334,0,-2,-1,-2,-2,-2,1,1
1528882587971334,3,1,3,5,1,-1,-3,3
1528882587973294,-1,-1,-3,-1,-2,0,-3,-1
1528882587973294,-1,0,-3,-2,7,-1,0,-1
1528882587985314,-1,-2,-2,-4,-11,0,4,1
1528882587985314,-2,-1,-1,-3,-1,-1,-1,-3
1528882587994247,0,0,-3,-1,2,-1,1,-1
1528882587994247,1,1,1,2,3,1,1,-1
1528882588007255,-1,0,1,3,4,1,-1,-3
1528882588007255,-1,-4,-5,-4,2,0,0,-1
1528882588016178,-1,-4,-5,-2,-13,-3,-2,-2
1528882588016178,1,3,6,0,-10,-2,-1,0
1528882588031139,-1,2,1,-2,3,-2,-2,1
1528882588031139,-2,2,4,5,1,-1,-1,0
1528882588033133,-1,-2,0,0,8,0,-3,-1
1528882588033133,-2,-2,-3,1,-9,-2,-2,-1
1528882588045101,-2,-2,-2,-3,-4,-1,-3,0
1528882588045101,-1,-2,-3,-3,0,-2,-1,0
1528882588054077,-1,-2,1,7,7,7,7,3
1528882588054077,-1,3,5,-9,-16,-12,-8,-4
1528882588068039,0,0,0,-2,2,-5,0,-2
1528882588068039,1,-1,-3,-3,-2,-1,-2,-1
1528882588077016,2,-1,3,8,1,1,-1,-1
1528882588077016,-3,-2,-3,2,2,1,0,-1
1528882588090978,-2,-1,1,-2,1,1,-2,-2
1528882588090978,0,0,0,-3,-1,-3,-1,-1
1528882588092974,-2,-2,-3,-4,0,-1,0,-2
1528882588092974,-1,-3,-2,3,2,1,0,0
1528882588113917,-1,-2,-4,-2,-3,-1,4,-2
1528882588113917,2,1,2,3,-2,4,4,1
1528882588115912,1,3,0,-1,-1,-3,0,0
1528882588115912,2,1,-1,2,1,3,5,2
1528882588127879,-1,0,2,-1,1,3,-3,-1
1528882588127879,0,-4,-2,-3,-3,-2,-5,-2
1528882588136855,-2,1,1,-1,-2,-3,-3,-1
1528882588136855,0,-2,2,0,-2,2,-2,1
1528882588151815,0,-3,0,-2,-1,-2,-1,-1
1528882588151815,0,-1,-1,0,2,-2,-4,0
1528882588152817,0,-2,-1,-3,1,-2,-5,0
1528882588152817,1,-2,-4,-1,-2,0,0,1
1528882588164782,-1,2,0,0,-1,0,0,2
1528882588164782,-2,1,2,2,-2,0,1,-2
1528882588173757,1,1,1,1,0,1,2,-1
1528882588173757,-2,-2,-2,-1,1,-1,2,0
1528882588187721,0,-4,-3,-3,1,0,0,0
1528882588187721,0,-1,-4,-5,-8,-1,2,0
1528882588197277,0,0,3,4,0,0,-1,-1
1528882588197277,2,0,1,5,2,1,2,1
1528882588219165,1,-4,0,0,1,-1,-2,0
1528882588219165,-1,-3,-2,-2,0,0,-1,0
1528882588220933,-4,-5,-4,-4,0,3,-2,-1
1528882588220933,-3,0,-4,2,0,-1,-2,-1
1528882588225142,-5,0,1,0,-2,-3,-2,-4
1528882588225142,1,5,1,1,3,-2,-2,1
1528882588233899,-1,-1,2,-1,1,-4,-5,-2
1528882588233899,0,-1,0,-1,0,3,0,-1
1528882588247895,-1,-2,-1,-2,3,5,3,2
1528882588247895,2,3,4,0,-4,-6,-2,-2
1528882588256372,0,-1,0,1,-1,0,2,1
1528882588256372,-1,0,0,-1,-1,0,1,-2
1528882588271446,0,2,-3,-1,-1,-2,-1,-3
1528882588271446,-2,-4,-2,-2,-1,2,5,1
1528882588277354,0,-1,0,-1,-2,-4,0,-1
1528882588277354,-1,0,2,1,-1,-2,-1,1
1528882588285332,0,1,-1,-1,-1,0,-2,-1
1528882588285332,-1,-1,-1,-2,1,2,-1,-1
1528882588294309,-1,-2,-3,-5,-2,-4,-4,-1
1528882588294309,1,-2,-4,-3,1,0,0,0
1528882588307675,-1,1,3,0,-5,-4,0,-2
1528882588307675,-3,-2,-2,1,0,-1,-1,0
1528882588316634,-2,1,-2,-1,0,2,4,-1
1528882588316634,0,1,4,1,-4,-5,0,-1
1528882588331284,0,0,-1,-1,2,0,0,0
1528882588331284,0,-4,-2,-1,-3,-2,0,0
1528882588338065,0,1,2,4,2,3,2,2
1528882588338065,0,0,0,-2,-1,0,1,-1
1528882588345477,2,-1,0,-1,-3,-1,0,2
1528882588345477,0,-3,-3,-2,-1,0,-2,-1
1528882588354459,-3,-5,-6,0,3,5,2,-1
1528882588354459,-2,-2,-2,-1,1,-1,-2,-2
1528882588368071,-1,4,0,0,-1,1,-2,0
1528882588368071,-2,3,3,4,3,2,-2,-1
1528882588376714,1,1,-2,-5,-6,-2,-6,-1
1528882588376714,-3,-5,-6,-6,-3,-1,-3,-1
1528882588391222,2,-1,3,2,1,-4,-5,-2
1528882588391222,0,-4,-1,-3,-2,1,4,-1
1528882588397956,-1,1,3,1,3,0,2,-1
1528882588397956,0,0,-1,0,0,0,-1,-1
1528882588404938,4,6,-1,-6,-5,-6,-4,-2
1528882588404938,1,2,-2,-4,-1,3,0,-1
1528882588414245,0,2,3,1,-1,-5,-2,-1
1528882588414245,0,1,3,0,1,1,0,-1
1528882588428387,-4,-5,-6,-2,0,2,2,2
1528882588428387,-4,-2,-1,0,-1,0,1,-1
1528882588436194,2,2,1,-1,1,4,-1,0
1528882588436194,0,-1,-1,-1,0,-2,0,-2
1528882588451157,0,-3,-1,2,0,0,0,-3
1528882588451157,-1,-1,-2,-2,-1,-3,1,1
1528882588458258,-1,0,-1,1,0,-2,1,-1
1528882588458258,0,3,1,0,1,-2,-1,0
1528882588465168,0,1,0,-2,1,0,0,1
1528882588465168,-2,2,3,1,-1,-3,-3,-1
1528882588474139,-2,-1,-3,-4,-4,-3,0,-1
1528882588474139,0,2,0,-1,-1,-4,-7,-4
1528882588487766,-2,2,1,-1,1,-3,-1,-1
1528882588487766,-1,0,1,1,1,0,-3,-2
1528882588496504,0,-2,-4,-2,0,0,0,-1
1528882588496504,0,-2,-1,-1,-3,-1,4,-1
1528882588511446,0,-4,-1,2,0,0,-1,-1
1528882588511446,-2,-3,-4,-2,0,-3,-2,0
1528882588518332,-3,-5,1,-1,-4,-1,7,2
1528882588518332,-2,-1,0,-2,-1,3,2,1
1528882588534518,-2,-1,-2,-2,-3,-1,-2,-3
1528882588534518,0,2,-1,-1,-1,7,4,0
1528882588535472,-1,-3,-2,-1,-4,-6,-1,-1
1528882588535472,0,-3,-1,-1,2,1,-4,0
1528882588547485,-2,-3,-1,1,1,-2,-1,-1
1528882588547485,0,-3,0,1,-1,1,0,-2
1528882588564188,-1,-1,-1,-1,0,0,-1,-1
1528882588564188,-1,-2,2,0,-1,-1,2,0
1528882588571434,-2,-4,-2,-2,-1,-1,2,0
1528882588571434,-1,1,0,2,1,2,2,0
1528882588577153,1,-2,1,1,-1,0,-3,-3
1528882588577153,-1,-1,-3,0,0,-1,-2,-1
1528882588594413,-1,0,1,1,0,-1,0,1
1528882588594413,1,-1,-1,-1,0,-3,-2,-2
1528882588596376,2,-1,1,0,2,-1,-2,-1
1528882588596376,0,-3,0,-2,1,2,-2,0
1528882588608354,1,-1,-1,1,2,1,-6,-2
1528882588608354,0,-3,-1,-2,-2,-3,0,-1
1528882588617047,-3,0,0,-1,1,1,0,-1
1528882588617047,-1,-2,-4,-2,-6,3,8,1
1528882588631115,-1,-2,1,0,-3,-15,2,1
1528882588631115,-4,0,-1,0,1,0,-4,-1
1528882588637992,-3,1,-2,-1,1,2,-1,-3
1528882588637992,-1,-1,0,1,0,-2,-1,-1
1528882588653959,2,1,-2,-3,-1,3,3,3
1528882588653959,1,-1,-3,-3,-4,-1,2,4
1528882588655972,0,-3,-1,0,-2,0,-1,-1
1528882588655972,0,-2,-2,-4,-2,0,-2,-1
1528882588668178,-1,-1,-2,0,0,6,2,0
1528882588668178,-1,-1,1,-1,-4,-5,-5,-3
1528882588677135,0,1,-1,-1,0,1,1,2
1528882588677135,1,0,0,1,0,-3,0,-1
1528882588691192,1,0,0,-1,0,1,-2,1
1528882588691192,-1,0,-3,1,0,0,0,0
1528882588697141,1,-2,1,0,-1,-3,1,0
1528882588697141,-2,2,1,1,-1,-1,-3,1
1528882588714329,-3,0,-1,0,0,-1,-2,1
1528882588714329,-2,1,2,0,-1,-1,0,1
1528882588715090,2,0,-1,-1,-1,-1,-2,0
1528882588715090,-1,-1,1,1,1,-1,0,-1
1528882588727633,0,1,-1,0,-3,0,-2,0
1528882588727633,0,-1,-1,0,2,2,1,-1
1528882588736448,0,-1,-1,-3,-2,-2,-2,-3
1528882588736448,1,-1,-2,-1,-2,2,1,0
1528882588751362,-1,-2,-4,-3,-1,1,0,-1
1528882588751362,-2,-3,-1,2,0,-1,0,-1
1528882588758338,-3,-3,-2,-2,-1,-1,2,1
1528882588758338,2,1,-2,-2,-1,1,0,1
1528882588774232,-1,-2,1,0,2,1,1,0
1528882588774232,-1,-1,-2,-2,-2,-1,-3,0
1528882588775966,0,0,-1,-2,-1,1,-1,1
1528882588775966,-3,0,-1,-3,-2,-5,-5,-4
1528882588787504,0,1,-1,-2,-1,-1,0,-3
1528882588787504,0,0,-1,0,-1,-2,2,-2
1528882588796508,-2,-1,-1,-2,1,4,0,-1
1528882588796508,0,2,0,1,1,0,-1,-1
1528882588810707,-1,-3,1,1,-2,-1,-1,0
1528882588810707,0,-2,0,-2,0,0,-1,-1
1528882588817689,-1,0,1,2,1,-3,-4,0
1528882588817689,-2,-1,1,-1,0,0,-1,0
1528882588834765,-2,0,0,2,-1,-6,3,-3
1528882588834765,-1,-1,-2,-1,2,0,1,1
1528882588835377,-1,-2,-1,-2,-2,-1,1,-1
1528882588835377,-2,-3,-2,0,-1,-1,4,-2
1528882588847590,-1,0,0,-3,-1,1,0,-1
1528882588847590,1,-1,1,2,0,1,-3,0
1528882588856536,1,1,0,-1,-1,-2,-3,-2
1528882588856536,-2,-2,-1,0,-1,0,-1,0
1528882588870858,2,0,-1,0,1,2,-2,1
1528882588870858,0,1,-1,0,0,-2,-4,0
1528882588878206,-1,-1,-4,-1,0,0,-2,-1
1528882588878206,1,1,0,1,-1,-2,-2,-1
1528882588894145,-2,-1,-2,-3,-2,-2,-2,-1
1528882588894145,1,-3,0,-1,0,0,-1,-2
1528882588895834,1,2,1,2,-2,1,0,-1
1528882588895834,0,0,-2,-2,0,-1,-2,-2
1528882588908062,0,0,0,-2,1,0,-1,-1
1528882588908062,-1,-1,-1,-2,-1,0,1,2
1528882588916508,-2,0,-1,0,0,-2,-2,1
1528882588916508,-2,-2,0,1,-1,-1,-2,-1
1528882588930516,-1,-2,0,2,0,1,1,-1
1528882588930516,-2,0,-1,-1,0,-2,-1,-1
1528882588938233,-1,-2,0,-1,0,0,-1,1
1528882588938233,1,0,1,0,1,-1,-1,2
1528882588954454,0,-1,1,1,0,0,1,0
1528882588954454,1,-1,1,1,0,0,-3,-2
1528882588956277,1,-2,-1,-2,-2,-1,0,0
1528882588956277,0,-1,-1,-1,-1,1,-2,0
1528882588968245,2,1,-1,0,-1,0,-1,-2
1528882588968245,1,-1,1,0,0,-5,2,-1
1528882588977312,-1,-4,-1,-1,-2,-1,2,1
1528882588977312,0,-4,-4,-1,0,-1,1,-1
1528882588991483,-1,-1,-2,0,-2,-1,-1,-1
1528882588991483,-2,-1,-5,-5,0,1,1,0
1528882588997755,-2,3,1,-1,2,-2,0,-2
1528882588997755,-1,0,0,-2,0,0,1,0
1528882589014359,1,0,-1,0,1,0,-1,-2
1528882589014359,-2,0,-1,-1,-2,2,1,-1
1528882589015058,0,-3,-1,0,-3,-1,0,-1
1528882589015058,-2,-2,-1,1,-1,-1,-1,-1
1528882589027400,0,0,1,-2,1,-5,-5,-2
1528882589027400,1,-2,-2,0,0,-1,-2,-2
1528882589036985,2,0,-2,-1,-3,2,-2,-1
1528882589036985,-1,0,1,1,-2,0,0,-1
1528882589051193,-2,-1,-1,0,-2,0,1,0
1528882589051193,-3,0,0,3,-1,0,0,-1
1528882589057432,-2,0,-1,0,-1,-3,-2,0
1528882589057432,-1,0,-1,-1,0,-3,-1,1
1528882589074420,-1,0,-1,-1,1,1,0,0
1528882589074420,0,1,-2,-1,1,2,-2,1
1528882589076242,-1,-6,-3,1,-2,-1,-2,-1
1528882589076242,-1,-3,1,-1,-2,1,-1,-2
1528882589087425,0,-3,0,-1,1,-1,-1,2
1528882589087425,-1,0,-1,-1,-2,-4,-1,0
1528882589096542,-1,1,-1,-2,1,-1,1,-1
1528882589096542,0,1,0,0,-2,1,0,-1
1528882589110935,-2,0,-1,0,-2,-1,-2,-1
1528882589110935,2,1,3,1,1,-1,-1,-2
1528882589118437,-1,-1,-1,0,0,-1,1,-2
1528882589118437,1,0,-1,1,1,1,1,0
1528882589134452,-3,0,0,1,-1,2,2,0
1528882589134452,-1,-2,-3,-1,-3,0,-2,0
1528882589135434,1,-2,-1,3,-1,-2,-3,0
1528882589135434,0,0,0,-1,-1,-3,-3,-1
1528882589147962,0,0,-1,-1,-3,-1,-1,-1
1528882589147962,0,0,1,-1,0,0,1,-1
1528882589156935,2,2,-1,-1,1,1,1,-1
1528882589156935,1,-2,-4,1,3,-1,-1,-1
1528882589171193,0,0,-1,0,-1,-1,-2,-1
1528882589171193,0,-1,-1,0,1,-2,-1,1
1528882589178245,-4,1,1,0,-1,1,-1,-2
1528882589178245,-2,0,1,-1,1,0,-1,-1
1528882589194408,0,-1,-2,-1,-3,1,0,-3
1528882589194408,-1,-1,-2,-3,-1,-1,-1,-1
1528882589195397,0,0,2,2,0,0,1,1
1528882589195397,0,0,-4,-1,-2,-4,-3,-2
1528882589207674,1,0,-2,1,0,0,-1,-2
1528882589207674,-1,1,3,-1,-2,0,-2,-1
1528882589217048,-1,0,0,-3,-1,1,-2,-1
1528882589217048,-2,0,-1,0,0,0,1,-1
1528882589231097,-1,-1,-2,-1,-2,-1,0,0
1528882589231097,-2,-1,-1,1,-2,-5,-1,-1
1528882589237595,-1,-2,0,-1,1,-1,1,-1
1528882589237595,0,-2,2,-1,0,-1,-1,-2
1528882589253556,-1,-3,-1,-2,3,-1,2,-1
1528882589253556,-2,-13,-1,1,0,-1,0,-3
1528882589260788,-2,-2,-3,-1,-2,-1,0,0
1528882589260788,0,1,-2,0,-1,1,0,1
1528882589267780,-3,4,-1,1,-1,2,-3,0
1528882589267780,-1,5,0,2,-3,0,-2,1
