timestamp,emg1,emg2,emg3,emg4,emg5,emg6,emg7,emg8
1528441618868822,-2,-2,1,0,-13,-12,0,0
1528441618868822,0,1,3,7,3,5,2,2
1528441618873810,-1,1,2,11,31,12,-1,1
1528441618873810,0,1,4,2,0,0,-2,1
1528441618887772,-4,-5,-11,1,-3,1,-1,-4
1528441618887772,-1,-2,-8,-19,-18,-13,-6,-1
1528441618902733,-3,-2,1,-1,-4,0,2,-3
1528441618902733,-1,0,2,-1,-16,-11,-1,-3
1528441618913702,1,0,-1,5,26,18,-1,-2
1528441618913702,-1,0,1,4,5,-1,1,0
1528441618925670,1,0,0,1,2,7,-1,0
1528441618925670,0,1,-1,-9,0,-3,3,1
1528441618933648,0,0,5,0,-7,-15,0,0
1528441618933648,-2,0,2,1,-22,-4,-3,-4
1528441618948609,1,1,0,12,22,14,2,1
1528441618948609,-5,-4,-5,-9,-10,-11,-11,-6
1528441618956588,-1,-3,-8,-5,-8,2,1,0
1528441618956588,-4,-5,-9,-34,-8,-22,-11,-3
1528441618970551,2,2,5,10,-10,-2,1,3
1528441618970551,1,2,6,8,17,34,16,4
1528441618978530,3,3,8,26,27,21,8,4
1528441618978530,-5,-3,-7,-25,-13,-4,-11,-12
1528441618993490,-13,-9,-5,4,-18,-31,-29,-25
1528441618993490,10,5,5,6,7,5,38,24
1528441619011442,-10,-5,-9,-33,-17,-6,-15,-24
1528441619011442,-3,-1,7,30,10,0,-14,-9
1528441619015431,2,-1,5,-5,-14,-13,9,18
1528441619015431,-1,-2,-11,-2,16,3,4,-2
1528441619030391,3,6,15,20,-9,-4,-1,6
1528441619030391,0,-5,-16,-3,-9,-2,-4,5
1528441619038369,-2,-1,-4,-27,-7,9,9,0
1528441619038369,-4,-4,1,9,4,-5,-16,-8
1528441619053329,2,-2,-12,-47,-7,-3,11,14
1528441619053329,-6,-2,1,16,5,8,-7,-14
1528441619068290,2,-1,-2,-1,-11,-10,1,3
1528441619068290,-10,-7,-6,-15,-8,-22,-31,-21
1528441619075271,7,5,6,8,5,12,40,21
1528441619075271,3,5,12,20,20,26,3,4
1528441619090231,6,4,-5,-28,-5,7,11,7
1528441619090231,-10,-6,2,31,6,-4,-14,-19
1528441619098210,-3,-4,-5,6,-4,-11,-15,-7
1528441619098210,2,0,12,-2,-8,-14,-3,4
1528441619114167,-2,-4,-17,-27,-9,1,0,-2
1528441619114167,1,0,-8,-5,-1,-1,0,2
1528441619128129,0,-1,-6,37,8,4,-10,-7
1528441619128129,0,-4,-18,-44,-16,-9,9,6
1528441619136109,-5,-4,-8,3,1,-3,-8,-5
1528441619136109,-1,-1,4,25,9,14,-2,-6
1528441619151068,0,0,8,8,9,6,7,3
1528441619151068,-1,-3,1,-3,3,7,-6,-7
1528441619158050,-3,0,5,-8,-10,-22,-19,-11
1528441619158050,-2,0,8,3,0,5,1,-1
1528441619173009,1,1,1,-14,1,2,6,6
1528441619173009,3,1,5,3,-8,-2,7,10
1528441619195948,-2,2,4,13,5,5,-1,-7
1528441619195948,2,3,2,3,4,6,9,14
1528441619202977,-1,-1,-3,-11,-4,2,2,0
1528441619202977,-4,0,-2,8,-5,-8,-9,-8
1528441619210934,3,-1,-1,3,2,2,12,9
1528441619210934,-4,-4,-8,-7,-4,-6,-9,-11
1528441619225899,-1,-1,6,20,1,-1,-4,-2
1528441619225899,-3,-2,0,-32,-4,-2,5,-6
1528441619232881,0,-3,-3,6,3,5,3,4
1528441619232881,1,1,2,1,0,-3,-2,-3
1528441619247844,0,1,1,-2,0,4,-4,2
1528441619247844,-1,-1,-1,7,-4,-2,4,0
1528441619255790,-3,-3,-7,-4,-8,-8,-6,-3
1528441619255790,-3,0,-3,-8,-2,-3,-3,-4
1528441619270806,-2,0,-1,1,-3,-1,0,-4
1528441619270806,-2,-3,-3,2,-1,-5,8,-3
1528441619285710,-2,0,8,-8,-12,-16,-14,-6
1528441619285710,-4,-3,2,7,3,7,-1,-9
1528441619292690,3,4,11,8,3,7,7,1
1528441619292690,4,1,-2,-10,4,6,1,8
1528441619307688,-2,-1,-6,-24,-8,-11,0,1
1528441619307688,-4,-2,2,10,-1,-6,-11,-5
1528441619315665,-1,-2,-6,-4,-3,1,5,5
1528441619315665,-4,-5,-3,-4,-3,-3,-7,-4
1528441619330625,1,1,2,7,2,-1,-3,0
1528441619330625,-3,-1,-6,-9,-4,0,1,2
1528441619345550,0,-2,-4,-10,-2,2,0,-1
1528441619345550,-2,2,2,17,-6,-10,-10,-8
1528441619353528,-2,-4,-9,-14,-7,-2,-5,-5
1528441619353528,2,-1,1,1,8,4,-1,8
1528441619375507,-2,-2,-3,8,-3,-9,-3,0
1528441619375507,-1,0,-1,-2,-2,4,1,-1
1528441619383500,0,1,3,8,26,12,8,2
1528441619383500,-1,-1,-2,1,-9,-9,-2,0
1528441619398409,0,-2,-4,-9,-18,-18,-9,-4
1528441619398409,-1,-2,-1,0,-3,-2,0,-2
1528441619413381,0,0,0,3,3,-1,-4,-3
1528441619413381,-1,1,1,-13,-14,-4,2,1
1528441619420348,0,-5,-5,5,10,10,6,1
1528441619420348,-1,-1,2,-1,-17,-11,-5,-2
1528441619435311,0,0,4,5,20,12,4,0
1528441619435311,0,2,0,5,12,9,2,-3
1528441619450269,-1,-8,-1,-1,-13,-1,1,4
1528441619450269,-5,-2,-3,-11,-6,5,4,-9
1528441619465265,5,11,0,-1,9,5,5,10
1528441619465265,-4,-16,-11,-7,6,1,-5,-7
1528441619473252,-11,-7,2,5,-8,-13,-11,-14
1528441619473252,17,14,-2,1,-1,-6,0,25
1528441619488167,4,-2,0,-2,-20,-4,9,13
1528441619488167,-5,-7,-4,-3,9,-5,-3,-19
1528441619495149,-3,-1,0,8,19,7,-2,2
1528441619495149,-14,-6,-4,-8,-3,0,-5,-2
1528441619511144,-8,4,-1,0,8,-4,-15,-38
1528441619511144,7,-4,-8,6,7,6,10,-2
1528441619525121,-34,-21,-9,-5,6,-1,-21,-67
1528441619525121,16,32,16,7,9,11,25,25
1528441619533098,9,-9,2,-5,-13,-6,-4,-6
1528441619533098,-12,0,2,-1,-4,-6,-6,0
1528441619548046,5,11,-3,1,8,5,2,12
1528441619548046,4,-24,-1,-1,-3,-1,9,0
1528441619555987,-4,17,9,-3,-10,-10,-29,-15
1528441619555987,5,-3,12,7,15,28,87,40
1528441619570982,2,0,0,-2,-7,-5,7,17
1528441619570982,0,-8,1,2,-1,7,11,-2
1528441619585906,4,3,-6,0,6,3,6,9
1528441619585906,-13,-6,-4,0,-3,-9,-30,-31
1528441619592898,-8,-10,-17,-6,-6,4,29,6
1528441619592898,-4,3,0,2,-1,-5,-26,-13
1528441619615826,1,-5,-7,-5,-5,-10,-13,9
1528441619615826,-26,3,2,2,4,7,-8,-57
1528441619622812,15,3,-11,-10,-12,-22,-62,-15
1528441619622812,-12,-11,-4,1,-1,1,19,-29
1528441619637833,9,-15,-2,1,5,11,27,92
1528441619637833,-10,-2,-7,-3,-2,-6,-4,-27
1528441619645798,11,11,1,-1,-5,1,15,19
1528441619645798,-5,-20,-4,0,1,-15,-54,-39
1528441619661283,-69,-33,-20,-14,-18,-19,-27,-39
1528441619661283,90,37,12,17,10,10,37,76
1528441619676001,66,24,52,13,15,39,111,121
1528441619676001,-62,-22,3,-43,-17,-20,-54,-62
1528441619690267,-3,18,5,18,7,5,6,-11
1528441619690267,6,5,-1,10,11,10,19,19
1528441619698194,-9,-6,-23,28,0,-18,-50,-47
1528441619698194,-2,-4,-34,-2,5,7,10,8
1528441619713192,14,7,-5,21,18,7,12,5
1528441619713192,-2,2,3,12,-5,13,6,15
1528441619728847,0,-3,-2,-12,-11,-7,-7,-18
1528441619728847,-12,-4,12,15,-7,-16,-5,-4
1528441619735577,-5,-4,1,-14,-5,-1,9,2
1528441619735577,4,2,4,-6,7,0,-18,-7
1528441619750784,-11,-16,-7,-44,-67,-32,-17,-21
1528441619750784,3,11,47,71,95,91,46,24
1528441619758785,-2,0,-10,-70,-43,-31,-17,-5
1528441619758785,-11,-2,7,21,41,8,-14,-9
1528441619773473,-16,-6,-16,5,15,22,-6,-26
1528441619773473,-2,0,-9,25,41,15,-1,-4
1528441619795416,13,-5,-5,-8,-36,-23,9,35
1528441619795416,2,-5,-17,-2,41,29,3,-10
1528441619803393,11,29,22,23,74,25,8,18
1528441619803393,-13,-8,3,-12,-35,-34,-4,-14
1528441619818601,-18,-7,1,20,7,-11,-11,-24
1528441619818601,6,-3,-5,-25,-29,0,-2,13
1528441619825576,-3,2,-12,-19,-38,-14,-2,-8
1528441619825576,-8,-4,5,-2,-5,-13,-3,5
1528441619841058,13,-4,10,5,11,20,8,13
1528441619841058,2,3,-4,-3,-21,-14,-6,13
1528441619855760,4,7,-3,15,10,7,-2,0
1528441619855760,-2,6,13,0,-18,-7,-1,2
1528441619871304,1,-24,-9,-1,19,15,4,6
1528441619871304,5,13,-3,5,21,11,-9,0
1528441619880012,-26,-19,-13,-3,-17,-19,-20,-42
1528441619880012,5,-1,-8,-11,-17,-8,-22,1
1528441619892995,4,-5,32,-4,-23,-17,-15,-17
1528441619892995,-4,-7,12,-11,-11,-2,8,7
1528441619908193,5,13,13,5,14,-3,-30,-21
1528441619908193,1,-15,5,-2,-6,-8,-12,2
1528441619916410,-47,-22,-14,-6,-16,-17,-35,-14
1528441619916410,23,16,-5,0,7,15,28,-48
1528441619931190,-5,7,-14,5,14,11,12,17
1528441619931190,-25,-3,-21,-8,-10,-12,-17,-25
1528441619938461,6,-1,-13,3,1,6,49,42
1528441619938461,-26,-14,-13,3,-3,-9,-48,-34
1528441619953449,11,20,-4,8,-1,9,15,-1
1528441619953449,1,-12,-17,-17,-4,8,34,40
1528441619976514,-8,1,5,14,0,-3,-4,-15
1528441619976514,-10,-4,-12,-15,-1,-6,-28,-21
1528441619983698,18,2,6,12,12,4,1,5
1528441619983698,0,-1,5,13,-23,-13,-9,2
1528441619998399,2,4,4,-4,0,1,7,-1
1528441619998399,1,1,20,8,-27,-19,-14,-18
1528441620005382,3,-5,0,-33,40,38,11,12
1528441620005382,5,3,8,5,12,22,7,8
1528441620020884,-1,-6,4,-17,-43,-16,-6,-7
1528441620020884,-3,-2,-15,-20,0,-8,-10,-4
1528441620036135,1,0,-2,30,13,-7,-4,-3
1528441620036135,-6,-4,-11,0,-4,-8,-10,-7
1528441620051097,-12,-12,-13,-15,-36,-19,0,-7
1528441620051097,35,22,9,-5,14,1,13,47
1528441620058415,-24,-13,-1,-3,-2,-1,-15,-40
1528441620058415,31,5,2,9,-7,-2,11,60
1528441620073108,9,10,1,1,8,1,-1,13
1528441620073108,-4,-11,6,4,4,1,-6,-2
1528441620088418,10,-7,-18,-15,9,5,7,27
1528441620088418,7,-3,7,0,2,4,-13,-6
1528441620096522,-21,-7,-5,-7,-21,-41,-102,-36
1528441620096522,0,12,9,6,15,38,70,25
1528441620111043,16,-2,3,-4,19,7,-33,45
1528441620111043,21,20,-2,-8,-14,-5,0,14
1528441620118920,-5,-17,11,21,-5,-8,-29,-29
1528441620118920,37,2,20,5,5,9,60,58
1528441620133961,57,23,-2,6,-5,-7,-4,56
1528441620133961,-82,-24,-9,-9,-2,-17,-61,-85
1528441620148955,24,4,9,0,5,9,39,25
1528441620148955,-32,-31,-22,-19,-12,-13,-49,-54
1528441620156154,-22,5,-3,11,3,-7,-16,-46
1528441620156154,20,30,4,-6,0,18,45,41
1528441620170865,-44,-37,19,3,21,3,-24,-22
1528441620170865,6,-1,17,2,-11,-1,-2,-11
1528441620177845,16,41,-18,-16,-12,-1,41,-5
1528441620177845,22,-39,-35,13,2,-2,-27,55
1528441620192851,-43,-8,-36,-23,-5,-7,-26,-50
1528441620192851,33,-5,-8,29,17,19,55,44
1528441620200786,-24,-25,-27,-42,-17,-8,8,31
1528441620200786,-4,24,-9,3,-4,-17,-50,-70
1528441620215800,29,15,11,11,6,17,71,38
1528441620215800,-21,-20,0,-18,-8,-12,-49,-12
1528441620222726,-2,6,18,36,7,14,42,23
1528441620222726,4,6,3,-58,-19,-14,-17,-28
1528441620237741,-31,-19,19,41,12,0,-10,-29
1528441620237741,-10,3,9,-43,-9,-6,-7,-9
1528441620253655,1,5,-10,-7,-7,1,-3,-4
1528441620253655,-7,-14,-12,-23,-18,-13,-2,0
1528441620268603,6,-9,3,-1,1,-7,-10,-6
1528441620268603,-4,0,6,36,11,7,-2,-8
1528441620283563,9,9,-7,5,1,4,13,9
1528441620283563,-10,-3,-1,12,4,-5,-20,-16
1528441620290544,0,-10,-10,0,3,9,7,5
1528441620290544,-5,6,-4,13,-4,-16,-16,-17
1528441620313482,5,-3,0,0,7,1,4,9
1528441620313482,-1,-2,19,63,10,9,5,4
1528441620328442,3,1,2,-20,-8,-1,7,2
1528441620328442,-6,-8,-10,-7,-6,-9,-8,-9
1528441620358363,-1,2,7,10,-4,0,6,4
1528441620358363,-2,4,9,23,10,-3,-8,-11
1528441620365344,3,-3,-2,-3,1,5,10,7
1528441620365344,1,1,3,-15,2,1,0,-1
1528441620373323,5,0,1,8,2,8,9,7
1528441620373323,-4,-2,0,3,-1,-5,-17,-12
1528441620388290,4,4,7,8,12,4,10,12
1528441620388290,-8,-5,-2,3,-6,-7,-18,-23
1528441620395264,10,3,0,-2,7,16,49,40
1528441620395264,-3,-1,-6,-14,-7,-9,-13,-14
1528441620403244,-1,0,6,0,6,3,-8,-7
1528441620403244,-3,-3,-9,-35,-5,4,-2,-1
1528441620418204,-3,-4,-1,-3,1,-6,-16,-12
1528441620418204,-1,0,-4,12,8,-1,3,4
1528441620441189,-3,0,0,4,-5,-3,-6,-9
1528441620441189,2,2,-1,1,5,12,3,4
1528441620448175,-3,-2,-2,-11,-13,-10,-4,-2
1528441620448175,0,0,2,13,-4,-3,-1,-3
1528441620463139,-2,-3,-11,-23,-1,-1,-2,-1
1528441620463139,-1,-1,1,1,-3,-6,-2,2
1528441620471118,-3,-1,-6,-16,-11,-5,-6,-4
1528441620471118,-1,-3,-2,5,3,-1,2,1
1528441620486275,-3,-4,-7,-10,-5,-2,-4,-2
1528441620486275,3,-1,-5,-7,0,0,15,14
1528441620501236,0,-2,0,2,-5,-3,-7,-6
1528441620501236,0,0,4,-4,-7,-5,-6,-5
1528441620523501,0,-2,-2,-9,-4,-1,1,3
1528441620523501,-1,1,5,7,5,2,-3,-5
1528441620531394,-2,-1,8,24,4,-2,0,-3
1528441620531394,-2,-2,-5,-16,-9,-2,-1,-2
1528441620546333,-2,-2,-2,-12,-3,1,2,2
1528441620546333,-2,-1,-1,6,-4,-2,-9,-5
1528441620560699,-2,-1,-5,-3,-6,-4,1,0
1528441620560699,-1,0,-2,3,-2,-4,0,0
1528441620568677,1,1,-4,-8,-2,-2,4,-2
1528441620568677,-1,-2,-4,0,-9,-3,-3,-3
1528441620590357,-1,-3,-7,1,0,3,-4,-4
1528441620590357,-2,0,-3,-10,-4,-3,-3,-4
1528441620607309,-1,0,-1,-6,-4,-2,-1,0
1528441620607309,-2,-1,4,0,1,1,1,0
1528441620620276,-2,-3,-4,-6,-2,1,0,-2
1528441620620276,-2,0,1,1,2,1,-2,-1
1528441620628255,-2,-3,-3,-5,-3,-1,0,-2
1528441620628255,-1,-2,-2,-1,2,-1,-1,-2
1528441620643215,-3,-1,-1,-13,-5,-2,-4,0
1528441620643215,-2,-1,4,3,3,-1,-2,-3
1528441620658521,-1,1,1,-2,-3,-2,0,-1
1528441620658521,-2,-2,-4,-2,3,1,-1,-2
1528441620673134,-3,-1,1,1,-3,-1,-2,-2
1528441620673134,-3,-3,-5,-10,-3,-1,-2,-1
1528441620681114,-1,-1,-2,6,2,1,-3,0
1528441620681114,-2,-1,-3,-1,-1,0,-2,-2
1528441620696074,2,0,0,-4,0,0,-1,1
1528441620696074,-2,-1,-7,0,0,0,-2,-2
1528441620703055,1,-1,-1,-2,-3,0,0,-2
1528441620703055,-1,0,-4,2,2,0,-2,0
1528441620718043,-2,-1,-2,0,0,-1,-1,0
1528441620718043,0,1,-2,3,1,1,-1,-3
1528441620733540,-1,-3,-1,-3,-2,-3,-1,-2
1528441620733540,-2,-1,-4,-4,-4,-1,-2,-2
1528441620741329,-1,-1,-3,1,2,2,0,-1
1528441620741329,0,-1,-1,-3,0,-2,0,1
1528441620755925,-2,0,-1,0,2,0,-2,-3
1528441620755925,1,1,0,5,0,-2,-1,0
1528441620763660,-1,-2,-3,-3,-2,-2,0,0
1528441620763660,0,-2,-5,-4,-2,-1,1,0
1528441620778617,-2,-2,1,0,-4,-4,-2,-1
1528441620778617,-2,-3,1,1,1,1,-1,-2
1528441620793577,0,0,3,-1,-1,-2,-1,-1
1528441620793577,-1,-2,-1,3,2,3,-1,-2
1528441620800561,1,0,1,-6,-3,-3,-2,-2
1528441620800561,-2,-2,2,1,-1,-3,0,0
1528441620815521,-2,-3,-4,-2,1,2,-2,-2
1528441620815521,-1,0,1,2,0,-3,0,-1
1528441620823558,-1,-1,1,0,0,1,0,-3
1528441620823558,-1,-1,1,-2,1,0,-1,0
1528441620838518,-1,-1,-2,-3,-2,1,0,-1
1528441620838518,-2,0,0,-1,-2,-2,-3,-1
1528441620860680,-1,-2,-2,-2,-1,0,-2,-1
1528441620860680,1,0,2,-2,-3,-1,-2,-1
1528441620868437,-1,-1,5,-1,-1,-2,-1,-1
1528441620868437,0,-1,3,1,-2,-1,-1,-2
1528441620883643,-2,-1,-4,-2,-1,-2,0,-2
1528441620883643,-1,1,-1,-4,0,-1,-1,-1
1528441620891380,0,-2,-5,1,-1,-2,-1,0
1528441620891380,0,-2,-1,-1,-1,0,-2,-2
1528441620906381,-1,-3,-3,1,-1,-1,-2,0
1528441620906381,-1,-1,-4,-1,0,-1,-2,0
1528441620920847,0,-2,-2,0,-2,-2,-1,-2
1528441620920847,1,0,5,2,-1,-2,0,0
1528441620936065,-1,0,-1,-3,-1,1,0,0
1528441620936065,-2,-1,1,1,1,-1,-1,-2
1528441620943900,-3,2,0,-1,-2,0,-3,-2
1528441620943900,-1,1,-1,-1,-1,-1,-4,-1
1528441620957745,0,-1,-4,-1,0,-1,1,-1
1528441620957745,0,-1,-2,-1,0,0,0,1
1528441620973252,-2,-2,-4,0,-1,-3,-3,-2
1528441620973252,-1,-1,-3,-3,-2,1,-2,-1
1528441620981018,-2,-2,-1,-1,0,0,-2,0
1528441620981018,-1,-2,-2,0,-2,-1,-2,-2
1528441620996224,-1,-3,-4,-2,-1,-1,-1,-1
1528441620996224,0,-2,-2,-2,-2,-1,-1,0
1528441621003964,-2,1,-2,-1,-2,-1,-3,0
1528441621003964,-1,-2,-2,-2,-2,-1,0,-1
1528441621017919,-2,0,-1,-3,0,-4,0,-2
1528441621017919,1,-2,0,-2,-1,-1,0,-2
1528441621025951,-3,-3,-1,-2,-1,0,-1,-1
1528441621025951,-1,-2,-2,-1,-2,-1,-2,-1
1528441621041100,0,-3,-1,-1,-2,-1,-2,-1
1528441621041100,1,0,-1,-3,-1,0,0,-2
1528441621056065,-3,-1,-1,-1,0,-1,1,-2
1528441621056065,-2,-1,-1,-1,0,-1,2,-2
1528441621063796,-1,0,2,-1,0,-1,0,0
1528441621063796,-1,-2,-1,-3,1,1,-2,-2
1528441621078003,1,0,-2,-2,-1,-1,-2,-1
1528441621078003,-1,-2,-1,1,-1,-2,-2,-1
1528441621086202,-2,0,-2,0,-1,-1,0,-1
1528441621086202,-2,0,-3,0,-3,-1,0,-2
1528441621100942,0,-1,-1,-3,-2,-2,2,-1
1528441621100942,-1,0,-4,-1,1,0,-2,0
1528441621116211,-2,-2,-1,0,-1,-1,-2,-1
1528441621116211,-1,1,-3,0,-2,-2,-2,-1
1528441621122938,-2,-1,-3,-1,0,-1,-1,-2
1528441621122938,-1,0,-2,0,-2,-1,1,-1
1528441621146127,0,-1,-3,-1,-1,-1,-1,0
1528441621146127,1,-2,0,-1,-2,-1,-1,-3
1528441621153095,1,-3,-2,-1,-1,-1,-2,-2
1528441621153095,-2,-2,1,-1,-1,1,-2,0
1528441621175800,-3,-2,-1,-1,-1,-1,0,0
1528441621175800,-3,-1,1,-2,0,-1,-2,-1
1528441621191030,1,-3,-1,0,-1,0,-1,-1
1528441621191030,-2,-1,-1,-1,1,0,0,-2
1528441621197742,1,0,-2,0,-3,-2,-2,-1
1528441621197742,-3,-2,-1,-1,0,0,1,0
1528441621205720,-1,0,-1,-3,0,-2,0,0
1528441621205720,0,-1,-1,-1,-1,-1,-2,-1
1528441621212752,-1,0,-2,-2,0,0,1,-2
1528441621212752,-1,-1,-2,-1,-2,-2,-2,-1
1528441621228776,-2,0,0,-2,0,-2,-1,-2
1528441621228776,0,-3,-2,-1,-1,-2,-2,0
1528441621242742,-1,-1,-1,0,-1,0,-1,1
1528441621242742,-1,-1,-3,-2,-1,-1,-2,0
1528441621258385,-1,-1,0,0,-2,-1,-1,-2
1528441621258385,-1,-1,-3,-1,0,0,-3,0
1528441621265321,-1,0,-1,-1,-1,0,-1,0
1528441621265321,-1,-1,-1,-1,-2,-2,1,-2
1528441621281279,0,0,0,0,-1,-2,1,-1
1528441621281279,0,-1,-2,0,-1,1,1,0
1528441621296239,-3,-1,-2,-1,0,0,-2,-2
1528441621296239,-1,0,0,-3,-1,-2,-2,-2
1528441621303221,-2,-1,-2,-1,0,0,-2,-2
1528441621303221,-1,-1,-1,-1,-2,-2,-1,0
1528441621318646,1,-2,-2,0,-1,0,1,0
1528441621318646,-1,-1,-1,-1,-1,1,-1,-1
1528441621325630,-2,-3,-1,-2,-2,-1,-1,-1
1528441621325630,0,-2,-1,0,0,-2,0,-1
1528441621341103,0,0,-1,1,-1,1,-1,-1
1528441621341103,-2,0,-3,-2,-1,-2,-3,-2
1528441621363060,-2,-1,-2,-1,-1,-1,-1,0
1528441621363060,-1,-2,-3,-1,1,-1,-1,-1
1528441621371052,0,-2,0,-1,-2,0,-1,-1
1528441621371052,0,0,1,0,-1,-1,0,0
1528441621385999,-1,-2,-3,-1,-1,-1,0,-1
1528441621385999,-1,0,-2,0,0,-2,-2,0
1528441621392980,-1,-1,-2,-1,1,-1,-1,-2
1528441621392980,-2,-1,-2,-2,0,0,-3,0
1528441621407940,0,-1,-2,-2,-2,-2,0,-2
1528441621407940,-1,-1,-2,-1,-1,-1,-2,0
1528441621431072,-1,-2,1,0,0,-1,-1,-2
1528441621431072,-1,0,-2,0,-1,-2,1,-2
1528441621438050,-3,-2,1,-1,-2,-1,-2,0
1528441621438050,-1,0,0,-1,-3,-1,-2,-1
1528441621445300,-1,-2,-2,-3,-1,-2,-3,-1
1528441621445300,-1,1,-1,0,-2,0,-1,-2
1528441621453488,-1,-2,0,1,-1,0,-1,0
1528441621453488,-2,-3,-1,-2,-1,0,0,2
1528441621468546,0,-1,2,0,-2,-1,-1,0
1528441621468546,1,0,2,-2,0,-1,-2,0
1528441621475884,-3,0,-1,0,-1,-2,-3,-3
1528441621475884,0,-2,-2,-2,-2,0,-1,-1
1528441621491519,-3,-2,-1,-1,-2,0,-1,0
1528441621491519,-1,-2,-2,0,-2,0,0,-2
1528441621498830,1,0,0,0,-1,-1,-2,-1
1528441621498830,0,0,-2,-2,0,-2,-2,-1
1528441621505467,0,0,-2,-1,-1,-1,0,-1
1528441621505467,-1,-1,-2,-2,0,0,-2,-3
1528441621513817,-2,1,-1,-3,1,-1,1,-1
1528441621513817,-1,-1,-3,1,0,-1,0,-1
1528441621528786,-1,0,-2,-2,-1,0,-2,0
1528441621528786,-2,-1,-2,-2,-1,-1,2,-2
1528441621535961,0,-1,-2,0,-2,-2,-2,-1
1528441621535961,0,-1,0,-1,-1,-2,-1,-2
1528441621550861,-2,-2,0,0,-2,-1,-2,0
1528441621550861,-1,-1,0,-1,0,-2,-4,-1
1528441621558942,-1,-1,0,-2,0,-2,0,-2
1528441621558942,-1,-1,-1,0,-2,-2,-1,-2
1528441621565828,-1,-1,-1,0,1,-2,-1,-1
1528441621565828,-1,-2,-1,-2,-1,-2,0,-1
1528441621573544,-1,-2,-2,0,0,-1,2,0
1528441621573544,-1,-1,0,0,-1,0,1,0
1528441621588541,0,-1,0,-1,-1,-1,1,-1
1528441621588541,-2,-2,0,-1,-1,-2,0,0
1528441621595722,-2,-1,-1,0,-1,0,-3,0
1528441621595722,-1,-2,-1,-1,-1,-1,-2,-1
1528441621611463,0,-1,0,1,0,-2,-1,0
1528441621611463,-1,-1,1,-1,-2,1,-1,-2
1528441621625406,-1,-1,-1,-2,-1,-1,-1,-3
1528441621625406,-1,-1,0,-1,0,-2,-2,-2
1528441621633385,-2,-4,-2,-1,-2,-3,-1,0
1528441621633385,0,-2,-1,0,-1,-1,-2,0
1528441621641364,-1,0,2,1,-1,-1,1,-1
1528441621641364,1,0,-2,-1,0,0,-1,0
1528441621655452,0,0,-2,-1,1,1,0,-1
1528441621655452,-1,-2,-3,0,-2,-1,1,0
1528441621663673,-1,-2,-3,-2,0,-1,-2,-2
1528441621663673,-2,-1,1,-1,-1,-2,-3,-1
1528441621678610,0,0,-5,0,-1,-2,-1,0
1528441621678610,-2,0,-3,-1,-2,-1,0,-1
1528441621686380,-3,-1,0,-1,-1,0,-3,1
1528441621686380,-2,-1,0,-1,-1,-1,-1,-1
1528441621693595,0,-1,-2,1,-2,-1,-1,-2
1528441621693595,-2,0,0,0,1,-2,1,-2
1528441621708533,-1,0,0,-1,-3,-1,-1,0
1528441621708533,-1,0,-2,-1,1,0,-3,-2
1528441621716334,-2,0,-1,0,0,-1,-3,-2
1528441621716334,-1,-1,-2,-1,1,0,-2,1
1528441621731336,-1,-2,-1,-2,-1,-1,0,-1
1528441621731336,-1,-1,-1,-1,-2,-1,-1,0
1528441621738230,-1,-2,0,-1,-2,1,1,-1
1528441621738230,-1,-1,-2,-1,-3,0,0,-2
1528441621746225,-1,-2,-2,-1,-2,-1,0,-1
1528441621746225,1,-2,1,-1,0,-2,-1,-2
1528441621753194,-1,0,-2,0,-1,-2,-2,0
1528441621753194,-3,-1,0,0,-1,-1,-2,0
1528441621768153,-2,1,0,-1,0,-1,0,0
1528441621768153,1,0,-1,-1,-1,-2,-1,-2
1528441621776537,0,0,-2,-1,-1,0,-2,-1
1528441621776537,1,0,-1,-3,-2,0,-2,-1
1528441621791428,-2,-2,-2,0,-2,-2,1,-1
1528441621791428,-1,-1,-1,-1,0,-1,-1,-1
1528441621798858,-1,-2,-1,-2,-1,-1,1,0
1528441621798858,-2,-2,-2,0,0,-1,0,-3
1528441621805507,0,-3,-1,-3,-1,-2,-3,-3
1528441621805507,-1,-1,0,-1,-2,-2,-1,-1
