timestamp,emg1,emg2,emg3,emg4,emg5,emg6,emg7,emg8
1528879770577861,1,2,9,1,4,1,0,5
1528879770577861,-2,3,16,-7,1,-1,1,-1
1528879770585839,0,-3,-43,-4,3,0,-1,1
1528879770585839,-4,-2,1,4,1,1,-1,-3
1528879770594816,1,2,8,-4,-4,0,2,0
1528879770594816,8,-11,-11,1,-6,-1,-3,0
1528879770615787,-2,1,12,0,-1,-4,0,0
1528879770615787,1,1,-7,-3,-13,-4,1,5
1528879770622742,-4,-4,12,-16,2,0,-6,-9
1528879770622742,2,0,4,4,3,1,-2,1
1528879770630747,-1,-1,8,12,5,4,1,-1
1528879770630747,-1,-3,-8,6,2,-2,-1,1
1528879770645680,-1,-1,-14,-2,4,1,-2,0
1528879770645680,0,2,15,14,6,10,0,-1
1528879770652661,1,-4,-1,7,4,-4,2,1
1528879770652661,-3,1,0,0,3,2,-2,-3
1528879770668656,-3,-4,-21,0,3,4,2,-2
1528879770668656,0,0,-3,4,-6,-8,-1,-1
1528879770683580,0,-5,-2,-3,-1,-3,-5,0
1528879770683580,-2,-2,-6,-14,-14,-12,-2,-4
1528879770690561,0,3,3,7,10,15,2,3
1528879770690561,0,-2,4,12,7,-2,2,5
1528879770705520,-3,2,0,5,9,7,2,-7
1528879770705520,-2,-6,-16,-17,-5,-6,-3,-4
1528879770713538,-2,-1,7,-6,-14,6,-1,2
1528879770713538,2,6,0,3,8,-10,-1,2
1528879770728459,-2,-3,15,6,-1,1,1,1
1528879770728459,-2,-4,-21,-5,-3,9,0,0
1528879770735440,2,2,6,-17,1,-10,-4,-2
1528879770735440,-2,-5,16,20,8,0,1,1
1528879770750400,-3,-6,-12,10,-1,-8,-6,-2
1528879770750400,-2,-1,-5,-22,-15,-7,2,-3
1528879770765360,-2,-1,10,-16,-20,-4,1,1
1528879770765360,-2,-5,-19,-13,-14,-7,-5,-2
1528879770773340,-1,-1,-10,7,27,8,2,-1
1528879770773340,-1,6,11,17,15,2,-2,3
1528879770788299,-1,1,-6,4,2,9,-2,-11
1528879770788299,5,2,1,-8,-8,-3,1,11
1528879770795280,4,-1,1,-8,6,-5,9,16
1528879770795280,-9,-7,0,9,13,10,-18,-30
1528879770810241,3,4,2,-10,-28,-17,4,7
1528879770810241,-3,-8,-13,-17,-3,2,1,3
1528879770825246,-1,-2,5,2,10,5,-2,-5
1528879770825246,-2,-2,24,25,21,3,0,-1
1528879770833224,0,2,-4,10,-5,16,7,0
1528879770833224,1,-1,-14,-25,-15,-15,-6,0
1528879770848139,2,4,6,-2,-7,3,0,-3
1528879770848139,-2,-7,2,9,10,9,-2,4
1528879770856123,-5,-3,-3,-6,-13,-15,-5,-10
1528879770856123,0,0,0,-2,-5,5,-1,2
1528879770871078,-5,-3,11,8,1,6,-3,-6
1528879770871078,0,1,-7,-5,-15,-20,1,-1
1528879770886037,0,-3,-9,-24,-21,-20,-2,0
1528879770886037,-7,-13,-4,-11,-11,-8,-5,-4
1528879770893058,3,8,20,40,39,16,7,-1
1528879770893058,-1,4,11,18,15,15,7,6
1528879770908007,-3,-6,-22,-5,8,12,0,-5
1528879770908007,-5,1,-4,-34,-43,-25,-8,4
1528879770915957,-6,-5,-11,-22,-18,-22,-12,-6
1528879770915957,2,1,1,13,9,14,4,-6
1528879770930918,2,-4,-7,-12,-3,12,-3,2
1528879770930918,-4,-2,4,-5,-8,3,-3,-2
1528879770945879,2,1,-5,-9,-5,-26,-6,-1
1528879770945879,0,-5,-5,2,7,18,4,0
1528879770952859,2,4,12,9,-6,-6,-4,1
1528879770952859,2,-2,-6,-6,-2,0,-6,-3
1528879770967819,-1,0,-1,-18,-16,-17,-5,-1
1528879770967819,-1,0,-14,3,3,18,4,1
1528879770975798,-4,-1,3,3,7,-1,-3,-5
1528879770975798,3,-2,-7,-3,-4,2,0,4
1528879770990758,-1,-3,-3,-16,-14,-16,-3,-2
1528879770990758,10,-3,-12,-4,-4,12,0,1
1528879771005719,-3,1,-1,2,10,11,-1,-2
1528879771005719,0,-4,6,7,1,-7,3,2
1528879771012699,-8,-4,-6,11,8,-1,0,-5
1528879771012699,0,-2,3,-12,-13,-15,-1,2
1528879771028656,-1,-1,1,-6,-10,25,-3,1
1528879771028656,1,1,3,-3,2,0,2,3
1528879771035638,3,9,8,-4,0,-3,-15,-14
1528879771035638,1,-3,-6,0,-8,-9,0,-1
1528879771050598,-9,-8,7,-6,-7,32,-4,-5
1528879771050598,3,2,5,9,15,-3,2,6
1528879771065559,-5,-14,-6,-5,0,-3,-6,-1
1528879771065559,-2,-2,-3,12,1,4,-1,-7
1528879771073537,0,-3,-8,-14,-5,-22,-6,-1
1528879771073537,-24,-2,-1,-7,2,4,3,-9
1528879771095714,-9,3,2,3,-2,12,-4,-1
1528879771095714,8,5,-3,-23,-13,-33,-17,0
1528879771103725,-9,1,-4,14,-5,2,6,-5
1528879771103725,-2,0,0,8,15,12,10,2
1528879771118916,3,1,2,-3,12,82,25,2
1528879771118916,-2,-2,0,4,1,24,5,-2
1528879771134036,0,0,4,5,-5,-32,4,0
1528879771134036,9,-6,-12,-14,-18,-1,-10,-4
1528879771141086,3,6,9,22,23,-30,2,2
1528879771141086,-4,-6,-6,-2,-3,27,-2,0
1528879771156045,-2,-12,-14,-14,-7,5,8,8
1528879771156045,-3,1,-1,-9,-13,-31,-2,9
1528879771171056,1,1,-5,-2,-2,23,7,-1
1528879771171056,2,1,3,-4,4,13,7,2
1528879771186321,-4,-5,-6,-27,-38,-115,-40,3
1528879771186321,-8,-2,-5,11,26,92,54,0
1528879771193447,6,4,5,-1,-15,-88,-31,-3
1528879771193447,5,1,-6,-2,-2,-19,-8,1
1528879771208183,8,11,8,10,13,-16,-9,0
1528879771208183,-6,-7,-4,-18,-8,79,19,-4
1528879771216166,3,1,-1,-7,-15,-28,-13,10
1528879771216166,-1,2,3,6,-5,-45,-8,-7
1528879771231591,5,-3,2,-2,-12,1,11,-1
1528879771231591,-1,3,10,17,16,18,-16,-7
1528879771245412,-8,-7,-7,-2,4,7,6,0
1528879771245412,-6,-4,-6,-15,-28,-52,-30,-10
1528879771253609,-2,-2,-9,-16,-22,-14,-5,2
1528879771253609,-12,-9,-4,6,8,-12,6,-5
1528879771268616,1,4,5,5,-12,-68,-36,9
1528879771268616,-3,-4,3,1,-24,24,1,-5
1528879771275597,1,-1,-5,-6,2,14,14,-4
1528879771275597,4,1,-1,9,-9,-35,-6,2
1528879771290557,-8,-5,-3,2,35,67,15,-4
1528879771290557,1,-5,0,3,3,35,11,3
1528879771305521,-1,-4,-18,-25,-19,28,18,-1
1528879771305521,-1,1,5,5,-2,-33,-1,0
1528879771313734,1,-3,-1,17,25,-33,-5,-4
1528879771313734,5,-1,-5,-7,8,62,16,1
1528879771328455,1,-4,0,0,2,3,1,-1
1528879771328455,0,2,1,0,-1,-4,1,-1
1528879771336010,1,-3,-12,-16,-11,-35,-21,3
1528879771336010,-5,0,9,14,4,-11,3,-6
1528879771351057,-6,3,2,-4,-17,-19,-12,-6
1528879771351057,5,-6,-12,-11,-10,-35,-21,4
1528879771373245,2,-5,-1,-4,8,48,23,0
1528879771373245,-2,-4,-1,5,10,7,8,3
1528879771380804,1,-1,4,14,-9,-23,-5,0
1528879771380804,-7,-5,-8,-40,-39,-11,-6,-5
1528879771396579,-5,3,3,37,42,58,22,2
1528879771396579,-3,-9,-6,1,-2,-8,-8,1
1528879771403838,3,-4,-3,-2,-5,34,14,2
1528879771403838,-3,-1,-4,-3,1,-5,4,-4
1528879771420695,8,-6,-12,-11,-5,8,5,1
1528879771420695,2,4,13,-5,-3,-15,-5,-3
1528879771433926,-3,13,15,5,7,-9,-4,2
1528879771433926,8,-3,-32,-15,-20,-33,-11,1
1528879771448953,-14,11,36,34,29,46,22,-3
1528879771448953,-4,-7,-14,8,2,-12,-4,-1
1528879771456081,-3,-3,10,3,3,2,-2,-1
1528879771456081,3,-2,6,-5,3,18,2,3
1528879771471366,1,10,8,9,-1,13,4,0
1528879771471366,-6,-10,-3,21,23,8,5,-1
1528879771485307,-12,-16,-6,16,0,-17,-5,-7
1528879771485307,8,-1,5,7,3,10,1,-4
1528879771493681,-8,-17,-2,-17,-7,-2,0,0
1528879771493681,-4,-9,-25,-9,-14,-12,-5,3
1528879771508244,4,-3,8,-15,0,0,-2,-1
1528879771508244,0,9,9,5,-2,-2,-1,1
1528879771515225,-1,-5,-1,9,7,-1,-6,-6
1528879771515225,-3,6,5,-8,-7,-6,-3,0
1528879771531181,5,3,-2,3,1,12,-1,0
1528879771531181,-5,1,6,10,8,-3,0,-7
1528879771538163,12,0,-14,-12,-5,4,-5,3
1528879771538163,-2,3,1,-4,-6,0,-3,-3
1528879771553176,-4,-4,-8,0,4,0,1,-4
1528879771553176,4,7,10,1,-6,-4,0,1
1528879771568082,-3,-13,-8,-6,3,13,-1,-8
1528879771568082,-15,-6,-5,-1,-3,-9,7,-2
1528879771576060,-4,4,2,15,17,6,9,10
1528879771576060,0,-3,1,-4,-1,6,-5,-8
1528879771591022,12,8,-1,-10,-10,-14,-4,6
1528879771591022,4,-7,-5,-9,-7,-10,-2,0
1528879771598003,-4,0,-1,-3,-4,-4,-3,-1
1528879771598003,0,5,7,1,-2,-16,-3,0
1528879771612963,-4,-2,-3,5,7,11,3,0
1528879771612963,-2,2,0,1,-4,-23,-9,1
1528879771620942,-7,-6,-1,0,5,38,-1,-4
1528879771620942,2,0,-7,-12,-4,8,2,-1
1528879771635902,-4,-3,-6,-4,0,27,9,-4
1528879771635902,-4,-8,-7,1,1,-5,-1,1
1528879771657843,0,-1,-2,-4,-5,6,1,4
1528879771657843,-3,-1,8,5,-3,-11,3,-1
1528879771665841,4,2,-1,5,-2,-19,-5,-4
1528879771665841,-5,2,3,0,5,12,4,0
1528879771680782,-1,-3,-2,-6,-3,-12,-3,0
1528879771680782,0,0,-3,-7,-3,2,2,-1
1528879771687763,0,2,2,-4,-11,-21,-8,-5
1528879771687763,-2,-4,-13,5,5,15,6,-1
1528879771702723,1,-1,2,-2,-4,1,-1,2
1528879771702723,-9,-3,10,7,4,-5,-1,-6
1528879771717683,-3,-5,-1,0,-5,-17,-7,-4
1528879771717683,4,-3,-4,6,2,-1,-1,-3
1528879771733650,-1,-1,-9,-11,-5,-4,-4,-3
1528879771733650,-7,-6,6,4,4,3,1,-2
1528879771740673,-1,-2,-6,-8,-5,-16,-6,-2
1528879771740673,10,4,2,-2,-6,-8,-6,-4
1528879771755597,-2,4,5,8,8,-7,3,1
1528879771755597,5,2,9,9,2,19,0,3
1528879771770596,-1,-3,2,5,6,17,4,-3
1528879771770596,-6,-2,-6,-2,-1,-7,-5,2
1528879771778575,1,-1,-9,-17,-14,-5,-6,-5
1528879771778575,1,2,3,-2,5,-1,2,4
1528879771793533,-4,-3,6,16,3,-13,-4,-14
1528879771793533,-1,-7,-1,8,10,13,4,1
1528879771800514,-7,2,-5,-8,-4,-5,-6,-5
1528879771800514,0,-1,-5,-15,-9,-13,-1,4
1528879771815477,-2,0,1,6,9,26,8,-1
1528879771815477,-3,0,-4,-7,5,18,8,2
1528879771830436,-6,-2,0,-2,-7,7,4,12
1528879771830436,1,2,4,0,-6,-22,-20,-12
1528879771838612,3,1,-6,-3,12,-9,3,3
1528879771838612,0,-1,0,-9,6,32,2,-8
1528879771853873,-4,3,6,6,0,15,11,1
1528879771853873,12,-6,0,0,-11,5,10,12
1528879771860849,-13,-4,-4,1,0,-15,-4,-12
1528879771860849,1,-1,-7,-7,-11,-30,-11,-1
1528879771876099,4,-3,-1,-2,4,-3,-2,-1
1528879771876099,-4,-4,-6,-7,-12,-14,-2,2
1528879771891458,5,7,5,3,-3,-3,-4,-4
1528879771891458,-21,-16,-4,1,-11,-26,-3,-6
1528879771898595,4,1,5,5,5,36,13,7
1528879771898595,-9,-2,-4,-5,16,10,-8,-2
1528879771913546,0,1,-11,-23,-16,-21,-14,1
1528879771913546,6,-1,5,17,8,7,-1,-1
1528879771920327,-9,-10,-2,1,1,-2,5,-1
1528879771920327,-3,-5,-4,-7,-8,-1,-1,-3
1528879771936544,-5,-14,-14,-3,-26,-36,-12,-10
1528879771936544,5,8,15,26,14,-12,7,-2
1528879771951375,3,3,2,-8,-2,-6,-7,2
1528879771951375,3,-4,4,16,41,52,22,0
1528879771958604,4,2,-3,-9,-13,-17,-6,5
1528879771958604,-5,-1,-2,-7,-14,-17,-8,-6
1528879771973206,2,0,-1,2,3,-10,-6,0
1528879771973206,-1,1,-6,-17,0,13,9,4
1528879771981450,7,-2,-4,-15,-11,-10,0,-3
1528879771981450,1,5,14,26,21,31,11,5
1528879771995901,-9,-16,-10,-7,1,-11,-2,-7
1528879771995901,4,8,-4,-14,-9,0,-7,-1
1528879772003981,-3,7,2,-1,0,-4,-11,4
1528879772003981,-4,-7,2,-9,-29,-25,-6,-4
1528879772018913,4,6,2,1,-6,-16,-8,2
1528879772018913,4,-5,-4,0,10,1,3,-1
1528879772033937,-4,-10,-15,-12,-11,2,-8,-3
1528879772033937,-1,-2,-1,-2,-3,-7,0,3
1528879772041043,-1,5,8,4,7,20,9,0
1528879772041043,-1,-9,-6,5,-2,-2,-7,1
1528879772055782,-9,8,5,5,27,24,8,-4
1528879772055782,0,-5,-15,-36,-36,-13,-12,0
1528879772063926,2,4,9,32,18,32,14,-1
1528879772063926,1,-5,-11,-10,-16,-26,-18,-1
1528879772078678,-6,0,-1,-8,-23,-38,-22,-4
1528879772078678,-6,-3,1,5,10,22,12,-1
1528879772093642,-5,-4,-3,-3,4,7,-4,-5
1528879772093642,1,1,-3,-6,-6,-3,-1,5
1528879772100981,-1,-4,-6,-6,-7,-21,-8,0
1528879772100981,-10,3,8,14,6,3,4,-3
1528879772115828,-5,0,2,-4,-3,-4,0,0
1528879772115828,-10,-2,-5,-8,-5,-5,-3,-1
1528879772122884,-3,-5,-4,-14,5,11,-1,-2
1528879772122884,3,1,1,7,-8,26,9,2
1528879772138169,4,0,-7,-15,-13,-15,1,2
1528879772138169,-3,-3,-2,-19,-12,-5,3,-2
1528879772153880,3,4,0,1,3,7,0,0
1528879772153880,-9,0,-4,1,1,3,0,-1
1528879772161029,3,-5,4,5,3,-1,-3,0
1528879772161029,-7,-3,3,2,9,-3,0,-2
1528879772175980,3,-11,-9,4,-3,2,-2,-2
1528879772175980,-3,16,-2,-1,4,-3,1,-1
1528879772183841,4,-8,-14,-11,-6,7,-1,4
1528879772183841,-9,-14,-35,-19,-5,3,-5,-7
1528879772198665,-1,8,5,-1,5,12,1,-2
1528879772198665,5,-5,18,12,10,-2,1,2
1528879772213895,-17,10,8,-9,-6,2,1,-4
1528879772213895,6,2,12,13,5,5,0,0
1528879772220866,-9,-4,-7,4,5,2,3,-5
1528879772220866,-3,6,-25,-6,-6,-12,-6,-2
1528879772235803,9,7,-3,-18,-6,5,1,2
1528879772235803,9,5,1,-10,-3,-3,0,4
1528879772243817,2,1,5,23,5,4,0,-2
1528879772243817,-3,-17,-6,-2,1,0,-1,-1
1528879772258504,6,5,10,-2,-4,-3,-3,-2
1528879772258504,-16,15,11,-3,2,-2,1,-3
1528879772273704,-8,0,-1,-1,-4,-4,-3,0
1528879772273704,0,5,7,-10,-4,1,-5,1
1528879772280685,-11,-20,0,0,4,10,8,1
1528879772280685,2,-2,-18,-1,-2,-3,-2,2
1528879772295634,2,-7,9,-5,-4,-2,-2,-3
1528879772295634,4,-7,-30,13,5,1,1,-1
1528879772303623,3,10,-6,-9,-5,-3,-3,-3
1528879772303623,13,0,9,-7,-4,-4,-3,2
1528879772318833,1,0,2,1,7,5,1,-1
1528879772318833,5,4,15,-3,-4,-5,-3,-2
1528879772333710,7,1,-10,2,0,2,-2,0
1528879772333710,-7,1,16,5,0,1,2,0
1528879772348663,-4,-13,-29,-7,-5,-2,-2,-1
1528879772348663,-1,12,11,1,2,-3,-2,-1
1528879772363845,1,2,2,2,-1,-2,-3,2
1528879772363845,-2,-10,-14,-8,-2,-2,-2,-2
1528879772370890,7,-13,-6,-7,-3,-7,-2,1
1528879772370890,0,1,-8,-1,-4,3,-2,-3
1528879772385854,1,14,7,-10,-14,-47,-12,-3
1528879772385854,-3,-10,-3,-1,4,61,10,-4
1528879772401216,-4,10,2,7,5,11,2,0
1528879772401216,-5,-9,-27,-9,-12,-33,-9,1
1528879772416178,-4,-3,15,-5,-9,-9,-3,-2
1528879772416178,-3,0,-5,7,6,-3,-1,-3
1528879772423931,-5,2,7,13,8,23,13,7
1528879772423931,12,7,12,1,-2,-13,-12,-4
1528879772438138,-5,1,7,-1,0,3,1,0
1528879772438138,2,2,9,7,2,-6,1,4
1528879772453420,3,-2,-5,3,-1,-7,-2,-8
1528879772453420,0,4,7,3,-2,-20,0,4
1528879772468941,-12,-32,-22,-19,-13,35,-9,-9
1528879772468941,3,0,1,-4,2,-8,2,0
1528879772475834,0,10,2,5,-1,-6,-4,-3
1528879772475834,-5,1,-9,4,1,0,2,3
1528879772490867,-1,-7,-3,1,-1,-5,-2,-3
1528879772490867,-5,-1,5,-4,-5,-18,-5,-1
1528879772505525,2,24,22,5,1,-14,-25,-15
1528879772505525,-11,-5,7,-7,-7,-6,1,-3
1528879772513856,-13,-17,-29,-5,-4,9,-3,-9
1528879772513856,-8,-13,6,-1,-3,16,11,5
1528879772528447,-6,0,-2,-3,-2,-35,-1,2
1528879772528447,6,6,-4,2,6,16,-8,-3
1528879772535427,7,18,24,7,12,-12,18,5
1528879772535427,5,-14,-11,-3,-7,15,-2,-2
1528879772543406,3,5,1,11,2,9,3,0
1528879772543406,-4,-1,4,0,-2,-25,1,5
1528879772551471,-5,-11,-24,-11,-8,-17,-8,-5
1528879772551471,1,7,12,-9,-3,8,-1,2
1528879772566390,7,4,-26,-4,4,-4,5,5
1528879772566390,0,-4,10,14,8,7,1,-2
1528879772573614,-2,1,7,1,-3,7,-10,-6
1528879772573614,3,7,-9,3,0,0,4,6
1528879772588579,-2,-14,6,-15,-11,-3,-2,-6
1528879772588579,-5,-6,-11,-12,-12,-5,-1,-3
1528879772596344,1,4,7,7,7,9,-2,-2
1528879772596344,-3,-3,10,11,6,-7,-1,2
1528879772603534,1,6,6,14,10,5,7,5
1528879772603534,0,0,-8,-4,-2,3,3,-3
1528879772610514,0,8,0,-9,-9,-6,-8,-3
1528879772610514,2,-4,-12,-14,-10,-20,-1,0
1528879772625798,-4,-1,20,5,6,20,1,-2
1528879772625798,-1,-10,-23,5,-1,-3,4,4
1528879772633844,-5,9,16,3,-2,-8,-10,-4
1528879772633844,-2,1,15,-6,-2,-2,-2,-3
1528879772648821,-1,-3,-10,-8,-5,1,2,0
1528879772648821,3,4,-6,1,0,-9,2,1
1528879772655486,0,-4,0,-2,-2,-1,3,8
1528879772655486,1,-8,-20,-3,-1,2,-3,3
1528879772663795,0,6,23,6,6,3,1,-13
1528879772663795,-3,-5,-18,-5,-2,4,-1,-2
1528879772671228,3,-1,14,-2,-6,-4,-3,0
1528879772671228,-6,-6,7,-11,-7,4,-4,-6
1528879772686118,-5,-5,-27,-5,-3,-14,-4,3
1528879772686118,1,8,6,11,6,-12,-1,-1
1528879772693900,-3,0,-13,-4,-9,9,-4,-9
1528879772693900,1,1,7,-5,-1,6,-1,3
1528879772708949,3,2,15,5,3,-5,3,-2
1528879772708949,1,3,21,11,9,10,21,18
1528879772715770,-6,-17,-33,-4,0,-14,-42,-38
1528879772715770,-9,12,33,-2,-2,6,15,10
1528879772723678,-10,-14,-19,-17,-16,-11,-33,-25
1528879772723678,-1,0,-6,-13,-8,1,-2,-4
1528879772730662,4,7,21,2,-6,-2,10,9
1528879772730662,-1,-11,-17,7,8,3,1,-3
1528879772745837,2,5,-2,8,7,7,6,1
1528879772745837,0,0,1,3,0,-5,-3,-3
1528879772760826,-3,0,-7,-4,1,-1,-2,7
1528879772760826,3,8,-1,-9,-8,6,-3,-8
1528879772776114,1,-3,4,-2,-3,-19,7,16
1528879772776114,5,8,9,15,12,10,12,7
1528879772783950,-11,7,-23,5,5,4,-5,1
1528879772783950,-16,-40,8,1,-1,-6,-22,-35
1528879772791236,-18,-16,-40,-30,-20,-5,-10,-13
1528879772791236,-5,-18,-15,-12,-10,-3,-5,-7
1528879772799008,7,5,8,2,4,-1,16,12
1528879772799008,10,15,-12,9,5,-11,8,18
1528879772813815,-1,1,21,5,3,9,4,-11
1528879772813815,-1,-7,-10,-15,-13,-8,-28,-4
1528879772828729,11,0,5,4,5,-3,-4,19
1528879772828729,-4,-3,-2,-5,-1,1,-4,-10
1528879772836079,1,0,18,0,1,3,0,-6
1528879772836079,-5,-10,-35,-10,-8,-11,-4,-10
1528879772843966,1,19,11,-4,-8,-2,18,20
1528879772843966,3,-5,4,-6,-7,9,1,4
1528879772851421,-6,-16,-13,0,3,-5,-11,-10
1528879772851421,4,11,29,16,12,-1,10,18
1528879772866354,1,-2,-18,4,2,8,1,4
1528879772866354,9,1,4,5,2,-5,-10,-15
1528879772873030,-11,-19,-4,-22,-18,-2,-2,-4
1528879772873030,-4,11,4,-1,-2,0,2,-1
1528879772888351,6,1,9,5,5,0,-1,10
1528879772888351,2,15,10,3,2,-1,3,0
1528879772896233,-1,1,9,-4,-7,-9,-2,-1
1528879772896233,-5,-22,-43,-11,-6,8,-5,7
1528879772903216,-4,2,9,11,10,12,6,-20
1528879772903216,-3,-6,-4,0,-1,-6,4,1
1528879772911194,7,11,0,3,3,3,14,27
1528879772911194,0,-7,-3,-7,-5,-20,-16,-12
1528879772926112,2,11,34,-10,-10,24,-2,-9
1528879772926112,1,-10,-40,2,0,-19,8,13
1528879772933109,-2,-2,5,4,5,8,-6,-17
1528879772933109,-7,7,9,2,4,-2,2,-1
1528879772948646,-3,-1,-5,6,7,2,-1,6
1528879772948646,-13,1,16,-6,-6,-3,-3,-12
1528879772955382,0,2,22,-5,-4,2,4,7
1528879772955382,1,-7,-11,-2,-1,-2,-1,-2
1528879772963768,-5,-2,-8,-4,-5,-12,-9,-10
1528879772963768,-2,-4,10,3,4,10,0,-1
1528879772970954,6,-5,-34,2,2,-3,3,-1
1528879772970954,1,6,12,1,0,3,-11,0
1528879772985958,4,-1,-6,-1,-3,-12,2,-3
1528879772985958,2,-2,-2,-4,-3,2,20,29
1528879772993583,-4,0,-8,-3,-3,-1,-33,-43
1528879772993583,-5,-5,-1,-5,-4,-7,-2,-15
1528879773008546,0,-11,-14,2,5,4,2,6
1528879773008546,1,14,34,0,0,4,15,27
1528879773016266,-8,-2,1,-2,-5,-7,-11,-35
1528879773016266,-1,-5,-32,-6,-3,-1,4,5
1528879773023250,0,-1,2,5,2,-3,-1,-4
1528879773023250,-5,2,-1,2,4,7,15,16
1528879773038006,1,0,16,-1,-1,-5,-21,-19
1528879773038006,5,0,10,0,0,-2,3,-3
1528879773053707,7,-2,-5,4,-1,5,-8,19
1528879773053707,-2,-5,-26,-4,-3,-9,-9,-22
1528879773061449,4,3,29,0,3,15,16,24
1528879773061449,-11,-11,-11,-3,-7,-4,-7,-20
1528879773076450,5,7,4,-3,-7,-7,33,48
1528879773076450,4,-1,4,3,10,9,-2,-6
1528879773083542,-14,-14,-16,-1,-3,-7,-49,-55
1528879773083542,8,15,17,3,-4,-2,2,-4
1528879773091427,-8,-9,-4,-2,3,6,17,6
1528879773091427,0,-4,-4,-2,-3,-4,-3,7
1528879773105503,-10,-8,6,1,-3,-11,-74,-70
1528879773105503,-8,-29,-19,-8,-2,5,-13,-10
1528879773113705,6,7,1,0,-2,-8,20,15
1528879773113705,9,2,2,-1,0,-1,-1,22
1528879773128756,-7,10,-1,9,8,5,10,-19
1528879773128756,-9,-3,14,0,-1,-1,-14,-8
1528879773136372,10,-3,-23,-3,-7,-1,3,12
1528879773136372,-2,-1,11,-2,-3,-1,2,-3
1528879773143295,-2,-11,-14,-8,0,-1,8,8
1528879773143295,9,13,6,0,-4,2,4,5
1528879773151377,-8,-2,9,2,-1,2,12,17
1528879773151377,-3,-7,-9,-7,-4,-11,-4,15
1528879773166236,5,10,-4,-2,1,3,-8,-10
1528879773166236,0,17,7,6,7,-3,-9,-30
1528879773173775,-4,3,0,4,4,-1,14,14
1528879773173775,-6,0,-20,2,11,11,8,4
1528879773188552,-4,3,-4,-7,-13,-13,-9,-6
1528879773188552,20,1,-1,-2,-4,-7,3,22
1528879773195496,0,20,21,3,1,-2,-5,-5
1528879773195496,-13,-23,-10,-2,-6,0,-10,-12
1528879773203235,-2,-6,-14,-8,-3,4,1,4
1528879773203235,2,1,3,3,-2,-7,-16,-28
1528879773211264,14,-3,0,1,2,16,15,25
1528879773211264,-7,12,6,-1,-6,-17,-17,-11
1528879773226170,-2,-6,4,1,-1,3,18,8
1528879773226170,4,-4,0,-2,6,23,-19,-13
1528879773233954,4,-4,-4,2,-2,-28,12,24
1528879773233954,-13,4,7,-3,0,-1,-6,-24
1528879773248930,-1,1,-5,-2,-6,-7,-1,1
1528879773248930,-6,-9,0,-2,-1,-6,13,4
1528879773255869,0,-7,-31,-6,1,7,2,12
1528879773255869,-6,-17,-1,-7,-6,-6,-25,-29
1528879773264104,2,-5,-6,-2,-5,-8,5,6
1528879773264104,-6,8,0,2,1,6,1,-2
1528879773271126,-6,-3,9,-2,-3,0,-2,-4
1528879773271126,6,-1,-5,6,5,0,1,4
1528879773286523,3,0,7,1,-1,1,3,3
1528879773286523,-5,-11,-26,-13,-13,-11,-19,-4
1528879773293528,-4,2,11,-3,-4,-3,6,11
1528879773293528,-2,4,3,7,5,15,10,2
1528879773308440,-1,4,9,3,2,9,-10,1
1528879773308440,-6,12,3,2,-4,-4,13,8
1528879773316418,-3,-13,-2,-9,-5,-9,-16,-28
1528879773316418,-7,9,7,0,2,3,-7,-6
1528879773323400,7,-4,-3,0,-1,3,6,7
1528879773323400,-7,1,1,0,1,1,-1,-5
1528879773330923,-7,-10,-11,-2,-1,4,16,15
1528879773330923,5,-4,0,0,1,-3,-16,-18
1528879773346186,-8,-9,-3,-6,-3,-9,-23,-29
1528879773346186,0,-11,-25,-5,-9,-11,-1,2
1528879773354100,-3,-3,2,8,7,11,6,0
1528879773354100,9,7,6,9,6,4,3,8
1528879773369008,-14,18,12,7,6,-3,7,6
1528879773369008,-5,-8,3,-8,-5,-5,-10,-7
1528879773376111,1,4,0,-8,-6,-1,-3,1
1528879773376111,-3,-8,-13,-4,-5,-5,-1,-1
1528879773383861,3,-6,-6,-2,-1,0,1,12
1528879773383861,-1,6,8,-2,-4,-4,-3,-6
1528879773391077,-1,-2,-6,2,1,1,5,8
1528879773391077,-2,1,5,-5,-1,-3,-7,-15
1528879773405774,8,-3,-3,-1,-1,-3,14,13
1528879773405774,-6,0,4,-1,-4,-2,-25,-22
1528879773413886,6,-3,1,-2,-1,-1,0,0
1528879773413886,2,-9,-7,-1,-4,2,2,5
1528879773428017,-8,-5,-5,-1,3,-3,-1,-6
1528879773428017,-2,1,3,5,4,3,6,0
1528879773436261,3,3,2,1,-4,-6,-7,-3
1528879773436261,3,-3,0,-2,-2,-1,2,6
1528879773443549,-2,-4,-1,-5,-2,-1,-1,6
1528879773443549,-1,-3,-2,-3,0,1,8,2
1528879773450860,-3,3,1,-3,-2,-4,-5,-4
1528879773450860,2,-5,-5,-1,-2,-2,3,4
1528879773465798,1,-1,-7,-1,-3,-2,-4,-3
1528879773465798,2,-3,1,1,0,-4,-1,2
1528879773473528,8,4,5,1,-1,3,-1,3
1528879773473528,1,4,3,2,3,0,4,2
1528879773489485,2,-4,-9,0,-2,-1,-1,-4
1528879773489485,-3,-1,-1,-4,-1,2,10,10
1528879773496621,-3,-1,5,-2,-2,-1,-7,-11
1528879773496621,1,7,7,0,-1,0,-4,1
1528879773503791,-1,-3,3,0,-1,-2,-2,-11
1528879773503791,3,-2,-4,-1,-2,-2,7,11
1528879773510430,-2,-6,-12,0,0,1,2,-10
1528879773510430,4,11,8,-3,-5,-5,5,3
1528879773526093,-4,1,-2,0,3,4,-9,-13
1528879773526093,-3,2,-1,2,-3,-3,-5,-8
1528879773533326,-6,-2,5,0,3,3,-2,0
1528879773533326,0,-3,-5,-2,-4,-2,0,1
1528879773548278,4,-1,1,-2,-4,-3,3,4
1528879773548278,4,1,-3,0,1,3,14,14
1528879773556013,-4,-3,-12,-2,-1,-4,-25,-21
1528879773556013,4,-6,-4,-2,-1,0,3,3
1528879773563253,1,5,10,-2,-1,-1,1,2
1528879773563253,-1,-1,11,-1,0,-1,-2,1
1528879773571233,-2,-6,-14,-3,-5,0,8,7
1528879773571233,-2,-1,-5,-1,-2,-1,-5,-5
1528879773586197,-1,-2,-3,-2,1,0,-1,1
1528879773586197,-1,0,3,0,1,8,-5,-6
1528879773593171,3,3,-6,1,-1,-10,0,6
1528879773593171,-3,-3,0,-1,0,-2,-8,-11
1528879773608523,1,-1,1,-3,-3,5,3,6
1528879773608523,-4,-1,-4,4,2,2,2,-7
1528879773616503,1,1,4,2,2,0,6,7
1528879773616503,-3,-2,-9,-1,-3,-1,-13,3
1528879773623458,-3,-2,-2,-2,-3,-3,-1,-3
1528879773623458,-8,-3,2,-6,-6,-3,-4,-5
1528879773631563,-1,-4,-8,-2,-3,-14,-8,-8
1528879773631563,0,1,0,2,0,7,9,-3
1528879773645411,4,0,-3,-1,-1,4,-2,4
1528879773645411,-3,1,0,-1,0,-2,1,2
1528879773653723,-4,1,8,0,2,0,8,9
1528879773653723,2,-4,1,-3,-2,2,3,2
1528879773668729,-2,1,2,-3,-6,-12,-11,-11
1528879773668729,1,-7,-8,-3,-2,0,2,4
1528879773676578,0,-1,-17,1,4,9,5,7
1528879773676578,-2,1,2,0,2,-12,1,5
1528879773683605,-2,-1,3,2,1,15,5,4
1528879773683605,1,1,6,-2,-3,-8,-2,2
1528879773691423,-1,-3,0,-3,-5,0,-6,-2
1528879773691423,0,0,-2,-2,-4,7,-3,1
1528879773705586,1,-3,3,3,0,-4,10,4
1528879773705586,-4,2,-5,-1,3,3,2,-5
1528879773713580,-3,-3,2,1,0,7,1,-1
1528879773713580,-1,-1,-5,0,2,-15,10,6
1528879773728553,-3,0,-2,-3,-2,3,-18,-17
1528879773728553,6,-1,-1,-1,-1,-1,-2,-1
1528879773735720,1,1,2,-1,-1,-3,1,1
1528879773735720,-2,-1,2,-3,-4,-1,8,7
1528879773743707,1,1,-3,-5,-6,-11,-9,-6
1528879773743707,-3,-3,-1,3,4,4,-3,-6
1528879773750689,1,4,7,6,8,1,1,-1
1528879773750689,-2,-3,0,0,0,6,-1,-2
1528879773765648,-2,-2,-7,-4,-4,-4,3,5
1528879773765648,4,-3,-3,-6,-10,-8,-8,-1
1528879773773626,0,2,4,5,1,-6,3,-10
1528879773773626,-4,0,2,0,4,28,0,-6
1528879773788450,-3,-1,-2,1,-1,-24,-4,0
1528879773788450,2,3,0,0,-4,-3,-3,-2
1528879773796374,1,-8,-9,-8,-8,-2,-1,4
1528879773796374,1,-3,3,-2,-3,5,-4,-4
1528879773803583,-2,-2,-4,-1,1,-2,0,0
1528879773803583,-2,-2,-2,-1,-4,2,0,0
1528879773811106,5,2,-1,0,0,3,-1,1
1528879773811106,-3,-6,-2,1,1,-5,-5,-7
1528879773826471,-3,-2,-1,1,2,7,3,3
1528879773826471,0,-1,-2,-1,0,-3,-4,-2
1528879773833972,-1,0,0,-1,-3,1,-1,-1
1528879773833972,0,3,-2,-2,1,-4,-6,-6
1528879773849025,1,-3,-3,0,-2,6,13,15
1528879773849025,-4,-3,-1,-2,-1,-2,-20,-22
1528879773855686,-1,-2,1,-2,2,10,4,2
1528879773855686,-2,0,2,6,3,-18,-4,-6
1528879773871457,-1,0,2,5,3,8,6,2
1528879773871457,-1,-2,-1,1,1,-7,3,6
1528879773878564,1,-3,-2,-5,-5,7,-1,1
1528879773878564,-6,-2,-8,-9,-13,-20,-7,-2
1528879773893626,0,-2,-2,-3,0,2,-4,-7
1528879773893626,-4,1,2,0,1,0,0,-2
1528879773901350,-3,-1,-4,-4,-2,-4,-3,-2
1528879773901350,3,-1,1,-1,-3,3,0,0
1528879773915314,-1,3,2,-1,1,-1,-3,-3
1528879773915314,-1,-4,-3,-2,1,-2,0,1
1528879773923293,-4,-7,-5,-2,-1,-3,-3,-4
1528879773923293,0,5,2,1,2,3,3,2
1528879773930758,-3,-3,-1,1,-2,-4,-1,-4
1528879773930758,2,5,2,0,-1,-2,-2,-3
1528879773945692,3,3,3,1,0,0,-2,1
1528879773945692,-2,-7,5,3,5,3,3,2
1528879773953688,-6,-4,-29,-8,-5,-6,-4,-2
1528879773953688,-3,-14,-2,0,-1,1,-1,-1
1528879773968885,-3,-7,0,-2,-4,-1,1,-1
1528879773968885,-1,0,-6,-1,-1,-1,-3,-1
1528879773976020,-5,-2,6,1,0,-3,-2,-3
1528879773976020,-1,5,3,-3,0,2,-2,0
1528879773984065,1,3,2,0,0,1,-1,0
1528879773984065,1,0,9,1,-2,-8,0,0
1528879773991415,-2,-1,-15,-2,-2,11,0,0
1528879773991415,-5,-7,-5,-2,-3,-8,-1,-2
1528879774005354,-3,-3,3,-1,-1,-3,-2,-2
1528879774005354,0,4,2,-4,-3,1,-1,-1
1528879774013728,-1,1,5,0,-1,-3,-2,0
1528879774013728,-6,-14,-8,0,1,2,2,-1
1528879774028577,0,3,-10,-3,-2,-2,-5,-2
1528879774028577,1,1,-13,-2,-1,-1,0,1
1528879774035803,0,4,13,3,0,-1,3,7
1528879774035803,-1,2,1,0,-1,3,-6,-11
1528879774043547,0,2,0,0,0,-4,0,-1
1528879774043547,-1,-6,-5,-3,-2,2,-1,0
1528879774051515,-3,-8,3,-2,-2,-6,-2,0
1528879774051515,3,5,1,0,-2,1,-2,4
1528879774065770,-1,1,-2,-2,-2,3,1,-1
1528879774065770,-3,-10,-8,-4,-1,-1,-1,-4
1528879774073872,1,1,1,1,1,-2,-2,-2
1528879774073872,1,4,0,-1,-1,-1,0,1
1528879774088714,-5,-9,-4,-1,-2,-3,-4,-2
1528879774088714,0,3,2,0,-2,-1,-1,2
1528879774096037,-3,-2,7,0,1,-2,0,-3
1528879774096037,-3,-6,-29,-4,-2,-2,-1,-1
1528879774103926,1,1,2,-1,0,-1,0,-1
1528879774103926,-1,3,5,2,-2,0,0,-1
1528879774118632,2,2,-1,-1,-1,-2,-2,-5
1528879774118632,-5,-4,7,-3,-1,-1,-1,0
1528879774125644,-1,-6,-9,-2,0,0,0,0
1528879774125644,0,0,-2,-1,0,0,0,0
1528879774140816,1,1,3,0,-1,0,0,-2
1528879774140816,-1,-4,-1,-2,0,0,-1,-1
1528879774148800,0,1,-2,-1,-2,-1,-1,-1
1528879774148800,-4,-5,0,0,0,0,-3,-2
1528879774163755,-1,0,1,-2,-2,0,-2,-2
1528879774163755,1,1,-1,0,-1,0,-1,0
1528879774178471,-2,-2,-4,0,0,-1,-3,-1
