timestamp,emg1,emg2,emg3,emg4,emg5,emg6,emg7,emg8
1528189932414305,-1,-6,-2,3,-16,-13,-2,0
1528189932414305,0,1,2,-9,12,0,5,2
1528189932414305,-3,0,-2,-11,-14,-8,-6,-2
1528189932414305,1,2,-4,3,9,4,-3,3
1528189932416299,-7,-11,-5,-7,12,7,8,-3
1528189932416299,4,1,12,6,22,9,-4,-1
1528189932417296,3,20,-4,-1,-13,-17,-8,-1
1528189932417296,0,-6,-1,-1,9,3,2,-1
1528189932423280,6,38,5,1,-9,17,1,2
1528189932423280,1,-34,-8,-1,-6,-1,-4,1
1528189932432255,-8,-24,2,-4,-3,0,4,-2
1528189932432255,-6,-3,5,30,4,-15,-8,-7
1528189932437242,-5,-5,-9,-34,-17,-5,-4,-3
1528189932437242,1,14,-2,9,-5,-22,-7,-3
1528189932453201,2,4,-4,-12,-8,4,3,1
1528189932453201,0,-4,-2,-2,44,47,8,0
1528189932462177,-5,-5,8,19,-6,-26,-5,-5
1528189932462177,-2,7,-5,-9,3,0,1,1
1528189932476138,8,0,-13,-1,-45,20,-4,0
1528189932476138,-6,-1,1,4,-49,-13,5,-5
1528189932484118,1,-9,-19,-1,59,10,-1,1
1528189932484118,5,29,20,-10,-27,-2,-2,1
1528189932499078,-18,-34,-7,16,-9,-19,-12,-20
1528189932499078,15,43,-4,-25,1,-12,-2,10
1528189932501073,4,-34,-3,17,-5,0,1,6
1528189932501073,-9,-21,-14,-8,-28,-21,-1,-5
1528189932552935,-2,-4,-1,15,59,14,5,0
1528189932552935,-3,-5,-4,-14,-14,3,0,-2
1528189932553932,-3,1,-1,-2,3,-4,-3,-3
1528189932553932,-2,-6,3,7,-4,-8,-3,-1
1528189932554929,-1,3,-2,-14,-36,-12,-5,-2
1528189932554929,-7,-8,3,12,53,2,-3,-6
1528189932558919,8,10,-2,3,10,22,4,7
1528189932558919,0,2,0,-1,51,2,-4,0
1528189932560927,-4,-11,-3,-12,-16,5,-1,-3
1528189932560927,6,14,4,8,-30,-27,-6,1
1528189932573877,-1,0,-3,-3,-14,10,2,-1
1528189932573877,-1,0,-8,-13,-6,1,-7,-4
1528189932575873,-5,2,2,-4,9,9,-3,-2
1528189932575873,2,0,-8,-2,-22,-11,-4,0
1528189932587841,-3,-14,4,-2,-5,-18,-5,-3
1528189932587841,2,3,3,8,34,18,3,2
1528189932603799,1,-1,-9,2,-5,-10,-2,-1
1528189932603799,-3,-1,6,-2,8,12,1,-2
1528189932626736,0,1,-13,13,19,-11,0,-1
1528189932626736,-2,-2,5,-17,-45,-3,2,-1
1528189932627735,-2,-3,6,4,-16,-11,-3,-2
1528189932627735,-1,-2,3,18,59,8,-1,-1
1528189932632721,-1,2,-2,-27,-29,7,4,-2
1528189932632721,-2,-7,-3,4,-2,-2,-5,-1
1528189932641697,1,4,-3,1,-31,-1,1,-3
1528189932641697,-1,-2,8,-1,-37,-11,-3,2
1528189932656657,-5,-2,-14,10,55,0,-4,-1
1528189932656657,-4,-3,0,-2,-8,3,-1,-2
1528189932657653,0,8,1,8,31,-8,1,-1
1528189932657653,0,-16,-5,-12,-17,3,2,2
1528189932678598,3,16,2,-9,-3,6,-3,0
1528189932678598,1,-11,12,1,-32,-10,-8,-2
1528189932680592,0,-2,-6,-3,-15,-7,-1,2
1528189932680592,-6,-4,-7,15,55,17,7,1
1528189932692560,-1,-1,-5,-7,-49,-8,-4,-3
1528189932692560,0,5,2,-7,13,3,3,1
1528189932701537,0,-4,1,-9,-26,-3,-3,-3
1528189932701537,4,7,0,-5,-21,-1,1,-1
1528189932716497,-3,-7,-3,-4,-25,-11,-6,-1
1528189932716497,-4,5,-3,24,71,3,2,0
1528189932718492,-2,-12,9,-9,-12,7,7,3
1528189932718492,5,7,-25,-7,-31,-15,-8,-1
1528189932738439,2,-4,7,-12,26,-1,-1,-2
1528189932738439,-5,-3,-7,-4,-43,-11,-4,-2
1528189932740433,1,5,7,7,22,1,-2,1
1528189932740433,-2,0,1,1,13,7,10,1
1528189932752401,0,-2,-3,3,-4,6,2,-2
1528189932752401,0,-1,3,-7,-26,-5,4,-2
1528189932761377,5,6,-5,4,-31,-9,-5,1
1528189932761377,-6,-3,8,12,45,2,4,-3
1528189932776337,2,0,13,-4,-4,16,2,1
1528189932776337,-3,-2,-9,-2,2,2,2,-2
1528189932778332,-1,-6,-11,5,2,-11,-3,-1
1528189932778332,-4,-10,-6,-14,-26,-6,-4,-3
1528189932799274,0,13,9,22,5,-15,-5,-2
1528189932799274,4,1,0,-5,90,18,2,0
1528189932800272,-3,-4,-7,-20,-36,-6,-8,-3
1528189932800272,-6,-4,4,0,-9,2,0,-2
1528189932812241,-5,-9,1,-2,12,-1,3,-2
1528189932812241,1,1,-5,4,-31,-14,-5,-3
1528189932821216,2,3,3,-1,21,2,3,0
1528189932821216,0,2,1,-11,1,5,-5,-3
1528189932835180,-2,-6,-5,7,-20,-7,-2,1
1528189932835180,0,2,-1,10,13,3,-3,0
1528189932851137,1,0,1,0,21,7,-2,1
1528189932851137,1,3,2,-2,-11,-5,-1,-1
1528189932859126,-4,-4,-4,-3,-85,-25,-9,-6
1528189932859126,6,5,1,-6,53,35,12,4
1528189932860114,-4,-8,1,9,-42,-5,-4,-3
1528189932860114,0,0,-2,-8,12,14,4,3
1528189932872081,2,-1,-6,7,4,-2,1,3
1528189932872081,-1,5,21,-2,-26,-15,-4,0
1528189932881061,-1,4,3,-1,11,8,2,-2
1528189932881061,-1,-2,-3,-3,-17,-11,-8,-2
1528189932903994,-1,1,-9,-10,-5,-10,-9,-6
1528189932903994,-4,-23,-4,3,-6,3,1,2
1528189932904992,1,3,1,-2,21,8,7,0
1528189932904992,0,-3,-1,-1,-14,-8,-6,-3
1528189932918955,-5,-4,2,2,21,2,-4,-3
1528189932918955,1,5,-10,-15,-38,-3,2,2
1528189932925957,-4,-5,0,2,6,-12,-6,-3
1528189932925957,0,2,-3,-6,8,17,3,3
1528189932932952,-1,-4,9,22,63,4,6,0
1528189932932952,0,2,-5,-25,-54,-3,-1,-1
1528189932941894,-3,-5,-5,1,-7,-2,-1,-1
1528189932941894,-1,5,0,-5,-3,-6,4,-3
1528189932963870,-1,-1,-1,1,35,6,-1,-2
1528189932963870,-1,-3,-2,11,-38,-13,-4,-2
1528189932965866,1,7,-2,-4,49,12,4,1
1528189932965866,1,-2,-1,-3,-28,-16,-12,-4
1528189932978829,-1,-1,3,-4,-6,11,0,3
1528189932978829,-1,0,-7,2,-5,-12,0,-3
1528189932980790,-1,0,1,-4,-6,1,-9,-3
1528189932980790,0,-3,2,11,11,0,4,2
1528189932992757,-1,-3,-1,-15,-15,0,-1,-3
1528189932992757,-2,1,3,1,-5,-5,-5,-2
1528189933001733,6,1,-11,-3,9,-3,-3,-1
1528189933001733,1,-9,1,2,8,3,0,0
1528189933016838,-6,7,-2,-4,-1,6,4,-2
1528189933016838,-44,7,-1,2,5,-2,-18,-8
1528189933017947,76,15,-7,-3,-4,-1,20,-2
1528189933017947,1,2,2,-4,-5,-10,-71,0
1528189933039949,43,-24,2,0,-17,-5,78,22
1528189933039949,-16,-2,0,-5,1,-3,79,-6
1528189933040630,-79,-23,4,5,11,-11,-100,-4
1528189933040630,39,31,5,-3,-7,10,112,-1
1528189933061574,23,19,-2,1,9,5,12,2
1528189933061574,84,-26,-1,-15,3,-6,-39,16
1528189933067560,40,13,-8,-6,-16,-68,127,49
1528189933067560,5,14,45,20,6,86,-36,-26
1528189933075543,-90,-21,-35,-1,-25,-17,-128,-31
1528189933075543,13,-25,-23,-44,27,-87,120,-2
1528189933082518,55,-41,14,8,-3,101,-123,42
1528189933082518,-38,49,-44,13,-7,-23,7,1
1528189933099799,29,64,58,13,46,1,-6,-1
1528189933099799,-16,0,-23,48,-15,17,24,-25
1528189933100479,-69,8,-27,-66,-5,-43,-51,-14
1528189933100479,-52,-19,-3,-2,-7,-26,-17,-5
1528189933112700,71,-38,-4,-11,-24,-11,-102,-17
1528189933112700,14,22,1,20,4,18,17,68
1528189933129391,4,20,18,12,1,7,3,-23
1528189933129391,-11,19,0,-7,-6,6,-3,-3
1528189933136377,-53,-14,-23,-7,-13,-24,-26,-25
1528189933136377,9,-13,17,0,4,11,-42,-5
1528189933138368,14,3,1,9,-1,9,34,-2
1528189933138368,14,-27,-9,-11,1,-21,-30,-8
1528189933159326,-24,-5,3,2,0,1,34,1
1528189933159326,4,-32,26,-9,-5,18,-42,9
1528189933160309,-32,31,-5,4,-6,-2,14,-49
1528189933160309,-77,-56,10,2,7,-19,-19,28
1528189933172278,18,-5,-26,-8,-9,6,26,4
1528189933172278,-25,11,0,3,7,17,-15,2
1528189933213381,12,0,9,10,2,-13,-9,-34
1528189933213381,89,-26,-2,-7,-1,-10,0,25
1528189933214183,-114,-16,1,-4,-1,5,-38,-54
1528189933214183,95,-7,0,-5,-7,-5,8,24
1528189933218155,-48,-16,-5,9,5,0,4,-6
1528189933218155,21,0,-19,-10,-3,1,3,3
1528189933243092,13,18,18,3,3,7,12,33
1528189933243092,-73,14,-4,6,-7,-20,-128,-67
1528189933244212,-4,-9,0,-4,4,13,95,18
1528189933244212,26,0,3,-2,-1,1,4,23
1528189933245083,-41,-14,-4,3,4,1,12,4
1528189933245083,-4,10,-16,-8,-5,-3,-22,6
1528189933263333,-51,-25,14,1,3,7,1,-10
1528189933263333,-20,-6,0,-3,-4,-12,-51,-35
1528189933273342,57,10,2,-8,0,-2,21,24
1528189933273342,16,-11,1,9,3,9,11,19
1528189933274335,11,-2,-20,2,-4,-5,-19,11
1528189933274335,-11,0,-10,0,-2,-7,7,-18
1528189933279322,36,3,0,-7,0,3,2,6
1528189933279322,-12,23,-1,-9,-1,12,21,-3
1528189933280320,18,16,1,-1,0,-3,-7,-11
1528189933280320,1,5,11,5,1,-2,8,-7
1528189933292453,11,1,-8,-5,-4,-1,23,11
1528189933292453,-6,-1,6,-1,1,-2,-20,-18
1528189933309243,-16,-14,0,-1,-4,-9,-10,8
1528189933309243,1,-11,2,0,-1,1,6,3
1528189933324555,2,14,-12,2,-1,1,19,-4
1528189933324555,-17,-3,-28,-1,-4,-1,-8,-11
1528189933325200,27,21,-8,0,1,-2,-16,5
1528189933325200,13,11,6,0,-1,1,5,4
1528189933339500,-27,-22,-8,-8,-2,-1,1,2
1528189933339500,34,24,3,2,-1,-4,-4,-5
1528189933341292,-1,-4,9,6,0,1,2,3
1528189933341292,-2,0,-10,-4,0,-2,1,1
1528189933362196,0,2,7,5,2,1,6,-3
1528189933362196,-7,-3,18,-1,0,1,-1,-1
1528189933363100,17,-5,2,1,-1,-1,-8,-3
1528189933363100,-20,-1,0,-4,-3,-2,3,-6
1528189933376071,20,2,-3,-7,3,1,-1,5
1528189933376071,-19,-3,6,4,-4,-5,-1,-3
1528189933383200,2,-5,-6,-1,0,-1,-4,2
1528189933383200,2,0,0,0,-4,-3,1,-2
1528189933405984,0,-1,-1,-2,-2,1,1,1
1528189933405984,-15,-4,-7,-2,1,2,-2,-1
1528189933407978,-2,-7,-1,0,-4,-4,-4,-1
1528189933407978,-2,4,1,-7,3,0,1,0
1528189933420950,3,-3,-10,2,-1,0,-3,2
1528189933420950,-12,-1,16,1,4,5,1,-3
1528189933422939,3,3,0,-1,0,-2,-4,0
1528189933422939,-4,-1,2,0,-2,0,-1,-1
1528189933436938,2,0,1,4,-3,-3,-3,-2
1528189933436938,-6,-4,-8,-5,-4,-2,-2,-2
1528189933442922,-3,-4,-2,-4,-3,0,-3,-2
1528189933442922,-2,0,12,0,-1,-2,-1,-2
1528189933458921,1,0,0,6,-1,-1,1,-3
1528189933458921,-6,0,-9,-5,-3,-4,-2,-1
1528189933460863,-5,-5,-4,-5,-3,-5,-2,-1
1528189933460863,6,1,0,1,1,2,2,-3
1528189933480836,7,0,4,-2,1,1,-1,-2
1528189933480836,-10,-4,-7,4,0,0,-2,-2
1528189933488809,7,3,2,-6,-2,0,-2,0
1528189933488809,-13,-5,-2,5,-5,-3,-1,0
1528189933495744,6,5,5,-4,0,-1,0,2
1528189933495744,-13,-5,-17,-1,-1,-1,-3,-2
1528189933502777,0,-1,8,3,0,0,2,0
1528189933502777,4,2,-7,-3,0,0,0,0
1528189933517739,-3,-1,2,0,-2,-1,0,-1
1528189933517739,0,2,-2,0,-3,-1,-1,-3
1528189933526662,-2,-1,2,6,-1,0,-1,-1
1528189933526662,-3,-1,-12,-14,-4,-2,0,-1
1528189933541675,-4,-5,14,6,1,-2,-1,-1
1528189933541675,1,0,-1,-4,-3,-2,0,-3
1528189933542619,-1,-3,-2,1,-1,0,-1,-1
1528189933542619,1,-1,3,3,2,-1,-1,0
1528189933563563,-4,-3,-11,-5,0,-1,-3,-3
1528189933563563,0,0,8,-1,-1,-2,-2,-1
1528189933565568,0,-1,-2,-1,0,-1,-2,1
1528189933565568,-1,-1,-6,-1,-1,1,0,-1
1528189933577550,1,0,2,-1,-3,-1,-2,-1
1528189933577550,-1,1,7,0,1,-1,2,0
1528189933586502,-1,-2,-10,-3,1,-2,-2,-2
1528189933586502,0,1,-5,-3,-2,-1,-1,0
1528189933601517,-2,-3,0,0,-2,-1,-2,0
1528189933601517,-1,1,0,0,3,2,-1,2
1528189933603464,-7,0,4,-1,-2,0,-2,-1
1528189933603464,5,1,-6,0,-1,-1,-1,-1
1528189933624400,-1,1,3,-1,0,-3,-1,-1
1528189933624400,-1,-2,-15,-2,0,0,-1,-3
1528189933625410,-1,0,0,-1,-1,-1,-2,0
1528189933625410,-3,1,13,3,0,0,0,1
1528189933637364,-1,-2,-1,0,-1,-1,-1,-1
1528189933637364,1,-2,-9,-6,-2,-2,-3,-1
1528189933654318,0,0,-1,0,-1,2,0,-1
1528189933654318,-2,-1,-7,-2,-2,-2,-3,-1
1528189933661300,-1,0,2,-1,1,1,0,0
1528189933661300,-1,0,2,-1,-3,-1,-1,-1
1528189933663295,1,-1,-2,-2,-2,-2,-1,-2
1528189933663295,-2,-2,-1,-2,0,-1,0,-2
1528189933684239,-1,-2,-2,-1,-2,-2,-2,-2
1528189933684239,-2,-1,3,0,0,-2,0,0
1528189933685236,-1,-1,-3,-1,0,-3,-1,-2
1528189933685236,-1,-4,-2,-1,-2,-2,-1,-1
1528189933697241,-2,-1,-2,1,-2,0,0,1
1528189933697241,1,0,0,0,-1,-1,-2,-1
1528189933713242,0,0,1,-1,0,-1,-1,0
1528189933713242,0,-1,-4,-2,-2,-1,0,-1
1528189933720709,-1,-1,-2,-4,-4,0,-2,-1
1528189933720709,-2,-1,6,0,-1,1,0,-2
1528189933729457,0,-1,-4,-3,-2,-3,-1,3
1528189933729457,-1,0,-1,-2,0,0,0,-2
1528189933744635,0,-2,-3,-3,0,0,-1,1
1528189933744635,-1,0,6,0,0,0,-2,-1
1528189933745376,-1,0,-12,-1,-1,-2,-2,-1
1528189933745376,-2,-3,1,0,-3,-4,-2,0
1528189933758386,0,0,-12,-3,-2,-1,-1,-3
1528189933758386,-1,-1,-7,-1,-1,-1,-2,-1
1528189933766405,-2,0,1,0,-3,-1,-3,-2
1528189933766405,-3,-3,-7,-2,-8,-3,-5,0
1528189933789408,-2,0,21,5,11,0,-2,-2
1528189933789408,-3,-3,1,1,-9,-2,-2,0
1528189933795487,0,-1,2,-4,4,1,1,-1
1528189933795487,0,-1,-8,-6,-8,1,0,0
1528189933819522,-2,-3,-5,-2,-5,-2,1,1
1528189933819522,0,0,-1,-1,0,-2,-1,-2
1528189933821259,0,-1,1,5,-6,-4,-1,-1
1528189933821259,-1,-1,-3,-3,8,-3,-3,-3
1528189933826186,1,-1,-2,0,9,9,4,1
1528189933826186,-1,0,2,-2,-1,-2,0,-2
1528189933828154,-2,-4,-5,-4,-3,-1,0,-2
1528189933828154,0,0,3,-5,-6,-4,-1,0
1528189933841135,-2,-1,0,2,-5,-6,-2,-2
1528189933841135,-1,-1,-3,-5,4,0,-1,1
1528189933849097,-2,-3,2,1,-1,0,-2,0
1528189933849097,0,-2,0,3,5,1,0,0
1528189933879278,0,-2,0,-6,-8,-3,-2,-1
1528189933879278,0,-1,-3,-2,2,1,-1,0
1528189933880297,0,0,5,0,-3,-4,-1,0
1528189933880297,0,1,-6,-2,3,1,2,-1
1528189933886825,-4,-2,-5,2,1,1,-1,-1
1528189933886825,-1,0,-2,1,-1,-1,0,-3
1528189933888690,0,-1,1,-8,-4,4,0,-3
1528189933888690,-1,1,1,4,3,-1,-1,-1
1528189933900763,-1,-1,1,0,-4,-5,-5,-2
1528189933900763,-1,-2,0,-2,-5,-13,-4,-1
1528189933908502,-1,0,-2,3,8,12,3,-1
1528189933908502,-1,-1,0,-1,-3,2,0,0
1528189933931797,-1,0,-2,0,-1,4,1,1
1528189933931797,-1,0,1,0,1,-3,-1,0
1528189933932434,0,0,-3,0,-6,-8,-4,-1
1528189933932434,-1,-2,1,-1,-3,-4,-2,-1
1528189933946437,0,-2,4,0,2,-6,-2,-3
1528189933946437,-1,0,-5,0,-1,6,1,-2
1528189933946437,-3,-2,-1,-6,-2,-3,0,-4
1528189933946437,-2,-3,0,5,0,2,-3,-1
1528189933961640,-1,0,1,2,-1,-9,-1,0
1528189933961640,-1,-1,-1,10,-2,2,0,-3
1528189933968349,-2,-1,-3,-27,-5,-23,-3,1
1528189933968349,-2,-1,-1,16,-2,18,-1,0
1528189933983723,-1,0,-3,-15,15,15,4,0
1528189933983723,0,1,1,-38,-33,-9,-4,0
1528189933991576,-2,-1,-3,-19,2,-9,-2,1
1528189933991576,-1,-2,0,11,-11,-21,-2,-2
1528189934022747,-1,0,-1,-1,2,12,1,0
1528189934022747,0,-1,3,30,18,13,4,0
1528189934022747,-1,-2,0,-13,-1,4,-4,1
1528189934022747,-1,0,-3,-4,-2,-16,-3,0
1528189934024500,-2,-1,-2,9,-4,4,-2,-1
1528189934024500,-3,-1,-5,-6,3,-4,0,2
1528189934028739,0,-2,4,29,-3,7,0,1
1528189934028739,-1,-3,-2,-8,2,-8,-1,-3
1528189934043701,-1,-1,-9,-7,-8,-2,-3,0
1528189934043701,1,-1,-1,8,2,4,0,-3
1528189934044435,0,0,-2,6,-1,-8,-1,-1
1528189934044435,-2,1,8,-3,9,15,-1,-3
1528189934065940,-2,0,-7,-3,-1,-1,4,2
1528189934065940,-2,-2,3,-21,-23,-8,-4,-1
1528189934067312,-1,-1,-6,-2,10,9,1,0
1528189934067312,2,-1,6,15,2,0,-1,0
1528189934080170,-3,0,-1,-25,-9,-16,-6,-3
1528189934080170,-5,-3,-9,17,5,2,-2,-2
1528189934087915,7,0,1,22,-1,11,1,-2
1528189934087915,-7,-1,-1,-14,-1,2,0,-2
1528189934103890,2,-2,1,3,-3,-5,-2,2
1528189934103890,6,0,2,-4,-10,-8,-4,-3
1528189934103890,-14,-6,-5,-10,16,2,0,-2
1528189934103890,4,-4,-9,5,-11,0,2,2
1528189934125800,16,7,7,-6,-3,-3,-2,2
1528189934125800,-10,-6,-10,-26,-2,-4,-1,-4
1528189934126777,3,0,-3,5,-5,-1,-3,1
1528189934126777,-6,1,2,-11,1,1,-1,-3
1528189934139781,-4,-8,2,12,-6,-7,-1,3
1528189934139781,4,1,0,-5,3,1,-1,0
1528189934148756,-4,-1,-1,2,-1,-4,-3,-2
1528189934148756,-1,-4,-4,-2,5,5,1,1
1528189934164003,1,-2,-4,-5,-6,-3,-2,-2
1528189934164003,-10,0,-1,4,9,1,-2,-6
1528189934164003,-4,-1,1,3,-4,1,0,-2
1528189934164003,1,0,0,-6,-3,-5,-4,0
1528189934185924,4,2,0,3,2,4,1,-1
1528189934185924,-14,-3,-1,4,4,1,0,-2
1528189934186618,-3,-1,3,0,-5,-2,0,-2
1528189934186618,8,1,0,-8,-2,-1,-1,-2
1528189934199582,-17,-7,-3,4,2,0,0,-4
1528189934199582,9,0,0,1,4,1,1,5
1528189934208558,-10,-1,1,-2,-4,-3,-1,0
1528189934208558,5,0,-2,1,2,0,-3,-2
1528189934223842,2,5,-2,-1,-1,-1,-1,-2
1528189934223842,10,0,3,2,2,-1,-2,3
1528189934223842,-10,-3,1,0,-1,-1,-2,0
1528189934223842,-9,-8,-3,-4,0,-1,0,2
1528189934245935,6,10,1,3,0,-1,-1,-3
1528189934245935,-2,0,3,1,0,-1,-1,3
1528189934246936,24,5,2,-1,-1,0,-2,1
1528189934246936,-11,-8,-1,-3,-1,0,0,-2
1528189934260305,-5,-3,-1,-1,-2,-1,-1,-2
1528189934260305,1,-3,-2,-1,0,1,-2,-2
1528189934268660,8,2,-1,0,-1,-1,-2,-1
1528189934268660,-9,2,-1,-2,-2,-2,-2,0
1528189934291991,26,0,-1,-1,-3,-2,-1,5
1528189934291991,-7,6,2,0,0,-1,1,-11
1528189934292646,-11,-8,-1,-2,-1,-5,-3,-1
1528189934292646,-9,4,-1,-2,-1,2,3,0
1528189934305877,4,-5,-4,0,-1,-3,-1,1
1528189934305877,-31,-8,-1,-1,-1,-1,-2,-8
1528189934306608,7,1,0,-2,-2,-1,-2,1
1528189934306608,-2,6,-3,-3,-1,-1,-1,-2
1528189934319575,-9,-5,0,0,0,-1,0,-2
1528189934319575,12,4,0,0,0,-1,0,4
1528189934328550,-15,-9,-5,-2,-4,-2,0,-5
1528189934328550,-1,-4,-1,0,-2,-2,0,0
1528189934343771,-6,-1,-1,1,1,0,0,-2
1528189934343771,5,-3,-4,-2,-2,-1,0,2
1528189934343771,-1,0,-2,-2,-2,-1,1,1
1528189934343771,10,0,0,6,-1,-3,-2,1
1528189934374436,-11,-5,-1,-6,-2,-1,-2,-4
1528189934374436,-3,-2,0,-5,-8,-2,1,5
1528189934375073,14,1,-2,-2,5,2,1,-2
1528189934375073,1,-1,-1,-1,-2,-1,0,-4
1528189934380738,-8,-1,0,4,3,0,-1,-1
1528189934380738,1,-2,-2,2,1,-1,-2,1
1528189934388724,-3,0,0,-1,-2,0,0,-1
1528189934388724,9,0,-2,-1,0,-2,-2,-2
1528189934403351,-7,-3,-1,0,0,0,0,-2
1528189934403351,6,-1,-1,-1,0,-2,-1,0
1528189934404362,-4,2,-1,0,0,-1,-1,-2
1528189934404362,4,-2,0,-3,0,0,1,1
1528189934425917,-3,-2,-3,-5,-2,-2,-2,-2
1528189934425917,-1,1,0,-1,-1,-2,0,-3
1528189934426914,3,0,0,0,-3,-1,0,-1
1528189934426914,-1,-2,-1,-4,-2,0,-1,-1
1528189934440906,-1,-1,-1,-1,-2,-1,-2,-1
1528189934440906,1,-1,-2,0,1,-1,-2,-2
1528189934447859,-1,-1,-3,0,-3,-2,-2,0
1528189934447859,1,1,0,-1,-2,-1,-3,-2
1528189934464813,-5,-2,-2,1,-2,-2,0,-2
1528189934464813,2,-2,0,0,-1,0,-1,1
1528189934465814,-1,-2,-3,-1,-3,0,0,-1
1528189934465814,-3,-2,0,-3,-3,0,-2,-1
1528189934494805,0,-1,-1,0,0,-1,-1,-1
1528189934494805,0,-1,-1,-1,0,-1,0,-1
1528189934494805,0,-2,0,0,-1,-2,0,0
1528189934494805,-2,-1,-1,-1,-1,-3,0,-2
1528189934499802,-2,0,0,-1,-2,-3,-1,-2
1528189934499802,0,-2,0,-1,-1,-1,-1,0
1528189934508923,-4,0,-2,-2,-2,-1,-3,-2
1528189934508923,-1,-1,-1,-1,-2,-2,-2,1
1528189934522734,-2,-1,-1,-2,-1,1,-1,0
1528189934522734,-1,-2,-1,-1,0,-1,-1,0
1528189934523731,1,0,-1,-1,-1,0,0,0
1528189934523731,-2,0,-2,-1,-1,-1,-2,1
1528189934545675,-2,-3,0,1,-1,1,-1,1
1528189934545675,-2,0,-1,1,-1,0,-1,-2
1528189934546669,-2,-2,-2,-2,0,-1,-1,-2
1528189934546669,-2,0,-2,0,1,-2,-1,-3
1528189934559634,-2,-1,-1,-3,0,-1,-2,-2
1528189934559634,-1,0,-1,0,-2,-2,-1,-3
1528189934568878,-1,-2,0,-1,-1,-3,-1,-1
1528189934568878,-2,-1,-1,-1,-1,-2,0,-1
1528189934583570,-6,-1,-1,-3,-1,-1,0,0
1528189934583570,4,-2,-2,0,0,-2,-2,0
1528189934583570,-1,0,-2,0,-1,-1,-2,-3
1528189934583570,-2,0,-1,1,0,-2,-2,-2
1528189934605530,0,0,-1,0,-2,-2,-1,-3
1528189934605530,-2,-2,-2,-1,0,0,-2,-1
1528189934606508,-1,-1,0,0,-3,-1,-1,0
1528189934606508,-2,-1,-1,-2,1,-1,-2,0
1528189934620703,0,-1,-1,0,-1,-1,-2,0
1528189934620703,-3,0,-2,-1,0,0,1,0
1528189934628450,0,-2,-2,-1,0,-1,-1,-2
1528189934628450,-3,-1,-1,-1,-1,1,0,-1
