timestamp,emg1,emg2,emg3,emg4,emg5,emg6,emg7,emg8
1528883636812105,-3,0,0,0,-1,0,-1,-2
1528883636812105,2,-2,-3,-3,-2,-3,-6,-1
1528883636819061,-1,1,-1,2,0,1,0,2
1528883636819061,0,0,0,-3,-1,0,-1,0
1528883636827040,1,-1,-1,-1,-1,0,0,3
1528883636827040,-3,-1,-3,-2,0,-1,2,5
1528883636835018,4,2,0,0,0,0,-1,1
1528883636835018,-3,-3,-1,0,-1,-1,-1,-1
1528883636841998,-3,-3,-1,1,-2,-1,-1,-3
1528883636841998,0,1,3,0,-1,0,1,1
1528883636859953,0,-1,-2,-1,-2,-2,-2,-1
1528883636859953,-5,0,0,1,-1,-1,-1,-9
1528883636871948,0,1,1,-1,-1,1,-3,0
1528883636871948,6,0,2,0,0,0,-1,-4
1528883636878900,-9,-5,-1,-2,-1,-3,-2,-6
1528883636878900,2,0,0,1,-2,0,1,-2
1528883636893860,0,-2,-4,-2,-1,-2,-3,0
1528883636893860,-1,1,-2,0,-1,0,2,4
1528883636902836,3,1,1,-2,0,0,0,0
1528883636902836,-1,-1,1,-4,-2,0,-1,-2
1528883636916799,-2,-2,-1,-3,-1,-3,-1,-1
1528883636916799,-4,-2,-2,0,0,-2,-2,2
1528883636924966,0,-3,-2,-1,-1,-2,-1,3
1528883636924966,-4,-1,-1,-2,-1,0,-3,-9
1528883636931758,1,-1,-1,-1,-3,-2,-2,-6
1528883636931758,-3,-4,-2,-1,-4,-2,0,-6
1528883636939738,1,0,0,-1,-4,-2,-4,0
1528883636939738,4,0,-2,-2,-4,2,0,2
1528883636955698,-5,-1,0,2,8,1,2,2
1528883636955698,-2,-2,-5,2,4,2,-3,-3
1528883636961679,2,-1,-1,-1,-5,-6,-3,-2
1528883636961679,1,-1,2,-1,-5,-3,-4,4
1528883636976640,2,1,1,1,-2,7,2,5
1528883636976640,-6,-2,-2,-5,12,6,2,-10
1528883636984619,-3,-2,-4,-4,-23,-8,-4,-6
1528883636984619,-2,-3,-7,-7,4,-15,-8,-3
1528883636991599,2,2,3,-9,-16,-5,0,8
1528883636991599,2,4,2,-1,-39,-3,3,7
1528883636999585,0,5,6,17,73,22,2,2
1528883636999585,1,1,6,16,15,20,14,2
1528883637014583,-5,-11,-11,-5,-18,-8,-10,-9
1528883637014583,-6,-10,-15,-21,-23,-45,-15,-5
1528883637021520,-2,-4,-4,-34,-60,-25,-4,-1
1528883637021520,2,4,6,-1,-22,35,10,7
1528883637036479,-2,3,9,38,88,20,-6,2
1528883637036479,3,1,2,13,37,-4,10,0
1528883637044484,-3,-5,-11,-15,-76,-15,-9,-4
1528883637044484,3,1,-1,-9,0,-13,-1,-2
1528883637053435,2,7,10,11,26,36,19,10
1528883637053435,-6,-7,1,14,11,33,-3,-2
1528883637074377,3,4,-5,-26,-64,-77,-35,-2
1528883637074377,4,7,1,-9,-15,55,19,-4
1528883637081359,3,2,0,11,-6,-49,-18,-7
1528883637081359,-8,-14,-8,-18,15,56,26,1
1528883637089338,1,-1,-3,-1,-48,-19,7,1
1528883637089338,-4,-4,-4,-11,67,4,-5,-2
1528883637096357,7,13,4,-19,-89,7,-17,3
1528883637096357,6,7,11,28,70,-24,1,0
1528883637111319,-4,-5,6,14,71,61,35,6
1528883637111319,2,5,2,10,-43,-13,6,-9
1528883637119257,-4,-2,-6,-7,-18,30,-6,-7
1528883637119257,-2,-7,-1,-16,-14,-63,-13,4
1528883637134220,1,4,3,-13,-25,30,-35,-11
1528883637134220,-1,-3,-6,8,20,-25,5,12
1528883637142197,4,2,-1,6,23,40,26,4
1528883637142197,-21,-22,-10,7,4,-5,-20,-13
1528883637157182,8,8,6,-6,-105,-75,11,0
1528883637157182,3,-4,-16,2,85,27,-9,2
1528883637172162,7,7,11,25,45,88,23,12
1528883637172162,3,5,9,11,-3,5,39,10
1528883637179151,-11,-10,-5,-18,-23,-50,-41,-8
1528883637179151,7,9,1,-10,-63,-25,-8,-2
1528883637194058,-7,-7,-7,-12,-38,-51,-3,-9
1528883637194058,2,3,4,10,48,46,8,6
1528883637202074,-2,-4,7,20,78,40,20,4
1528883637202074,-1,6,2,-14,-66,-34,-14,-6
1528883637216997,-3,-11,-8,5,31,44,2,-2
1528883637216997,-4,-8,-5,-5,15,-56,-28,-13
1528883637224031,6,-3,0,4,19,4,7,7
1528883637224031,-3,6,3,-2,0,34,-2,-2
1528883637238940,-10,1,6,17,78,107,62,18
1528883637238940,0,-2,-1,0,-41,-24,-7,-5
1528883637253899,2,8,2,-5,16,-7,-2,4
1528883637253899,12,12,12,27,34,8,-5,2
1528883637261904,1,-5,-2,3,35,-7,-14,-1
1528883637261904,-1,-7,1,1,-33,3,14,4
1528883637276837,-4,-2,-13,-13,-13,-25,-8,-8
1528883637276837,-10,-17,-13,-5,-32,-16,-31,-11
1528883637283818,5,8,11,6,8,-7,-1,3
1528883637283818,4,0,-9,-2,21,20,12,1
1528883637298784,-3,-4,11,24,54,35,15,-11
1528883637298784,2,4,2,19,46,82,57,24
1528883637313757,3,1,-7,-9,-3,-12,-4,-3
1528883637313757,-4,-5,0,-8,-17,13,-18,3
1528883637321719,-5,-6,-10,-17,-26,-43,-17,-20
1528883637321719,7,9,4,-22,-25,-27,5,4
1528883637336677,-11,-5,6,37,28,31,27,-1
1528883637336677,-7,-4,-16,-20,-8,1,-10,-5
1528883637344655,-4,-11,-5,17,23,-17,-19,-7
1528883637344655,6,7,5,-6,-17,-31,-28,-5
1528883637359615,0,0,-3,13,53,67,71,16
1528883637359615,-3,-11,21,-2,-37,-17,-17,-10
1528883637374575,10,3,-18,-7,7,31,17,12
1528883637374575,-6,-2,-15,-26,0,-9,-2,-7
1528883637381558,1,8,28,-13,-57,-47,-53,-9
1528883637381558,-2,-12,-19,5,14,9,-3,-2
1528883637396516,3,5,16,14,16,10,12,0
1528883637396516,6,23,6,-4,2,32,52,17
1528883637404498,-9,-9,-31,-5,-8,-27,-31,-9
1528883637404498,0,-9,20,9,-11,-8,2,-3
1528883637419455,-10,-28,-6,0,-1,-37,-62,-31
1528883637419455,-5,-6,-25,-17,-7,-16,9,1
1528883637434416,2,-114,-15,-11,-14,37,57,28
1528883637434416,-1,-124,11,-11,-29,-7,0,-1
1528883637441397,8,-56,-18,-10,24,25,17,10
1528883637441397,9,39,10,3,-10,-74,-80,-26
1528883637456358,-4,67,0,-17,-1,53,63,21
1528883637456358,-4,19,9,-6,-6,6,11,-5
1528883637464336,0,80,-12,-51,-76,-17,-28,0
1528883637464336,-2,-29,-5,64,61,27,22,2
1528883637479296,6,73,7,-66,-93,-3,32,12
1528883637479296,1,-28,-30,27,81,30,15,9
1528883637494255,-10,34,30,59,37,-21,-15,-22
1528883637494255,0,65,5,10,34,2,-18,15
1528883637502234,-1,5,5,-22,-30,-2,-13,6
1528883637502234,-7,37,0,-48,-70,13,13,-1
1528883637524176,-1,41,3,-3,7,-17,20,12
1528883637524176,-1,-4,-5,19,31,-20,-7,-10
1528883637532155,-6,-31,-8,1,8,-13,-1,-14
1528883637532155,4,47,12,-13,-32,10,8,11
1528883637548111,-4,-28,7,79,54,-16,-11,0
1528883637548111,-4,-13,6,-54,-33,-11,1,6
1528883637562127,0,23,5,20,-9,-13,-13,-3
1528883637562127,2,0,10,13,2,20,26,17
1528883637569088,-5,20,8,39,54,-6,-29,-20
1528883637569088,3,-23,-20,6,19,1,11,2
1528883637584036,-1,-15,-10,-18,5,52,-9,10
1528883637584036,7,-2,14,1,-15,40,47,17
1528883637598993,-2,-10,2,-1,-22,-31,4,-7
1528883637598993,8,42,25,0,22,22,9,10
1528883637613969,-2,0,-23,1,-2,-13,-10,-11
1528883637613969,0,27,26,20,15,-10,-23,-6
1528883637628896,-15,-34,-34,10,0,-28,-14,-1
1528883637628896,-4,22,24,16,10,8,-6,-8
1528883637643856,13,10,6,8,25,25,25,12
1528883637643856,-7,-8,-22,-56,-47,-3,-11,-6
1528883637658868,-6,59,1,-27,-31,-9,-4,-4
1528883637658868,3,-42,-9,35,36,-3,-2,0
1528883637673828,17,58,-14,-128,-92,-5,13,5
1528883637673828,-12,9,-31,54,46,-10,-19,-9
1528883637681755,-10,-16,-3,16,19,22,14,4
1528883637681755,-23,-34,0,-57,-46,4,-11,-9
1528883637689766,7,-38,-52,47,80,14,21,6
1528883637689766,-10,7,40,-33,-93,-26,-20,-12
1528883637696767,-2,4,-23,-115,-85,-11,-8,0
1528883637696767,4,-13,37,127,116,29,11,6
1528883637711728,-5,-61,8,-80,11,0,16,1
1528883637711728,-1,-1,-36,-108,-61,-9,-11,-7
1528883637726687,-5,57,50,80,-66,-11,-4,-4
1528883637726687,-1,-122,-54,-42,83,25,9,5
1528883637734639,5,-6,-5,21,2,-5,-1,-1
1528883637734639,-10,44,23,0,-78,-19,-18,-9
1528883637749573,10,-32,-15,12,98,35,29,16
1528883637749573,-1,52,8,-99,-80,-24,-17,-9
1528883637756554,-3,-20,10,97,8,-1,-2,-4
1528883637756554,7,-48,-36,-28,1,1,3,4
1528883637771515,-3,0,26,22,-12,-6,6,-3
1528883637771515,-6,22,9,24,-10,-9,-18,-4
1528883637787347,-5,34,20,-112,-72,-18,-9,-5
1528883637787347,-3,-4,-1,127,89,5,-4,-7
1528883637795068,-1,-42,-5,-50,37,35,15,10
1528883637795068,-2,-21,6,-19,13,1,-5,-7
1528883637810019,1,-4,-12,-16,-8,-3,-1,0
1528883637810019,-4,59,10,-43,-57,-8,-6,-6
1528883637817262,5,14,-15,4,-5,-18,-25,-8
1528883637817262,-3,-19,-21,6,13,6,7,4
1528883637832288,3,5,2,8,7,11,0,7
1528883637832288,0,2,-4,12,-25,6,9,-11
1528883637847558,-7,-40,-32,121,94,9,-3,-2
1528883637847558,10,-7,9,-35,-28,-18,-22,-10
1528883637854542,-15,-5,-3,-22,-1,-47,-5,-2
1528883637854542,0,-9,-6,-13,7,59,35,-7
1528883637869167,-7,6,8,-16,-40,-41,-45,-8
1528883637869167,-2,-27,-15,3,7,26,-21,7
1528883637877466,18,44,18,-4,-10,13,70,27
1528883637877466,-9,12,-28,8,4,-27,-20,13
1528883637892350,13,-1,6,0,-11,-65,-70,-31
1528883637892350,-20,-25,-5,8,16,68,84,12
1528883637907065,11,16,15,8,-1,18,26,15
1528883637907065,-13,30,-14,-30,-26,-60,-40,-25
1528883637914091,-6,10,41,10,-9,-3,-26,-11
1528883637914091,4,-29,-17,31,29,18,25,-2
1528883637929050,-4,11,6,-13,-17,-9,-6,0
1528883637929050,12,11,3,-3,2,-4,13,10
1528883637937031,-20,-20,-17,-1,-1,10,-11,-10
1528883637937031,1,-5,-34,-15,-2,-19,-17,-7
1528883637951986,-5,-13,7,-5,-7,27,35,6
1528883637951986,0,-4,-2,7,6,-6,-10,3
1528883637966979,-3,2,-16,-5,0,5,13,1
1528883637966979,-1,4,22,20,14,-4,-10,-2
1528883637973930,9,32,0,-3,9,13,22,18
1528883637973930,-1,6,-1,12,-5,10,7,4
1528883637988890,-3,-14,-19,-29,-4,16,14,5
1528883637988890,2,13,14,1,-8,-26,-26,-7
1528883637996869,-13,6,8,-17,-19,-18,-7,-9
1528883637996869,0,7,3,21,17,-27,-7,1
1528883638012144,-7,13,10,-2,-1,50,31,-8
1528883638012144,0,7,-6,-2,-1,-4,-1,3
1528883638027147,-4,21,-4,0,-4,-18,-14,-3
1528883638027147,13,-5,-15,-7,1,-1,7,6
1528883638034497,-4,11,2,-34,-22,-2,-10,-6
1528883638034497,-5,31,-3,34,51,13,-1,0
1528883638049048,0,2,10,15,-5,-2,2,5
1528883638049048,-4,26,14,9,-10,-4,-1,-3
1528883638057284,-1,-37,-42,-25,4,-7,-14,-5
1528883638057284,8,-8,-3,-15,-17,2,7,2
1528883638072247,1,6,0,-18,-3,6,21,12
1528883638072247,-23,125,5,7,-3,-17,-25,-16
1528883638079997,3,82,-13,-6,-5,-14,-32,-12
1528883638079997,-2,-108,-4,-2,-3,-7,-3,0
1528883638094732,-9,-104,-18,-3,-7,2,-2,0
1528883638094732,10,-117,-6,-11,-6,3,18,18
1528883638102472,2,-128,13,18,6,0,9,1
1528883638102472,1,-102,-11,-15,-10,7,-9,-6
1528883638109695,3,-87,9,1,-2,-10,-7,1
1528883638109695,-4,-128,10,7,12,3,4,-6
1528883638116436,4,-93,-12,7,4,5,2,5
1528883638116436,5,-50,5,-1,-2,1,8,0
1528883638131395,-10,-39,-3,8,-4,-28,-44,-20
1528883638131395,0,-80,1,-4,-1,-1,-3,-4
1528883638139595,-1,-27,12,-1,-4,0,-1,-5
1528883638139595,7,3,2,5,-16,-5,-3,3
1528883638154334,6,-36,2,-12,26,22,30,10
1528883638154334,-10,-22,16,3,3,-2,-7,-6
1528883638161578,-10,-1,9,20,4,-3,-9,-8
1528883638161578,-3,-7,10,-22,-12,5,-1,-1
1528883638176275,-1,-6,3,5,-9,-1,1,-3
1528883638176275,8,-10,-25,-10,-3,3,13,4
1528883638184285,3,1,7,9,3,7,10,9
1528883638184285,-7,-7,-11,-10,-6,-36,-25,-17
1528883638199454,-3,3,-6,-3,1,28,-1,-2
1528883638199454,5,0,-13,-2,7,16,-4,6
1528883638207404,3,-13,-4,8,-2,6,10,0
1528883638207404,2,4,-11,9,-6,-3,-1,0
1528883638221688,-12,-76,-11,-6,4,-8,-28,-14
1528883638221688,3,-76,-2,-3,1,0,-3,5
1528883638230115,4,-73,-5,-18,-3,7,24,4
1528883638230115,-2,-48,7,11,5,6,-1,-1
1528883638237085,0,-33,-4,17,2,-3,1,-3
1528883638237085,0,-19,-8,-20,-6,6,1,-1
1528883638252049,-2,-21,-6,0,-10,-8,-11,-6
1528883638252049,3,-3,-3,-3,-4,-7,-7,0
1528883638260062,0,5,-1,-8,-11,4,7,2
1528883638260062,-3,12,16,29,16,-5,-9,-3
1528883638274353,-3,2,-9,-14,1,16,28,12
1528883638274353,-5,2,9,5,-9,-30,-26,-22
1528883638282332,-3,18,-6,-12,3,12,7,-5
1528883638282332,1,15,9,16,15,23,21,15
1528883638289553,0,2,-2,7,5,26,13,-4
1528883638289553,0,8,3,-5,-6,-20,-25,-16
1528883638297490,2,31,16,1,-3,-8,-5,-2
1528883638297490,-1,8,-5,-4,-12,-19,-2,-3
1528883638312528,3,20,2,0,-9,-21,-36,-3
1528883638312528,-18,-6,-16,2,13,17,28,4
1528883638319494,6,6,-8,-7,1,-6,-1,-1
1528883638319494,-5,18,5,-10,1,4,4,2
1528883638342418,-2,6,4,9,-4,-11,-12,-6
1528883638342418,7,12,-3,-12,-13,-1,0,4
1528883638349207,-4,-2,-6,-6,-8,-10,-7,1
1528883638349207,-4,12,0,16,12,-5,-3,-6
1528883638357392,2,9,1,-15,-12,5,1,1
1528883638357392,-4,11,-9,6,15,11,-2,-3
1528883638364114,2,6,-6,-6,-6,8,14,5
1528883638364114,7,14,5,6,2,1,-14,1
1528883638380111,-3,-1,-11,13,-11,-45,-4,-11
1528883638380111,-4,5,-11,-33,0,22,4,1
1528883638394650,8,1,-3,1,0,-18,0,4
1528883638394650,2,14,6,-4,-10,-9,-2,2
1528883638402484,-5,-5,-9,1,-5,-52,-37,-4
1528883638402484,9,-7,-6,2,15,82,62,14
1528883638409606,2,15,11,2,-2,11,-8,2
1528883638409606,-10,11,18,29,7,-7,16,-7
1528883638417457,5,15,-8,-38,-11,-4,-23,-1
1528883638417457,4,-23,-23,-9,-4,-9,-17,-12
1528883638432306,-5,29,20,4,-1,1,-8,-14
1528883638432306,12,-1,-8,-2,-9,-14,-24,7
1528883638439526,-11,-3,2,19,12,12,22,4
1528883638439526,18,29,14,-2,-11,-52,-14,8
1528883638454543,-24,-26,-20,-8,10,46,-36,-6
1528883638454543,-5,-18,-2,5,4,22,65,-3
1528883638461518,1,-4,-5,1,-14,-14,-11,-2
1528883638461518,2,12,5,-6,-13,-8,11,2
1528883638469823,12,6,-4,13,14,-27,-25,10
1528883638469823,-2,23,19,-1,4,8,-22,-3
1528883638477551,-6,-4,4,-3,-16,-49,-21,-8
1528883638477551,-6,-7,-4,-25,-6,77,34,-3
1528883638492531,4,12,15,22,14,-44,-21,-1
1528883638492531,-3,-25,-17,-19,-6,20,20,3
1528883638499652,-8,12,-4,-8,1,29,21,0
1528883638499652,-10,-17,-25,27,1,-41,-42,-12
1528883638514640,7,-11,-14,-23,-18,0,24,3
1528883638514640,2,2,-1,14,5,-16,-14,4
1528883638522055,-6,-4,1,1,2,18,4,-6
1528883638522055,-1,6,0,-30,-10,-7,-1,-1
1528883638529892,-4,16,13,30,4,11,11,-7
1528883638529892,15,8,-9,-27,0,-19,-19,1
1528883638537133,-6,-26,1,33,1,26,11,-2
1528883638537133,-11,-1,-8,-37,1,-4,2,5
1528883638551421,3,4,4,12,21,13,29,1
1528883638551421,0,10,1,0,-16,-19,-34,-3
1528883638559733,0,3,0,4,-4,-6,7,-4
1528883638559733,-1,1,5,3,-7,-18,-10,-1
1528883638574360,-2,4,6,-3,5,22,-1,-2
1528883638574360,-4,-21,-19,-10,-8,-5,13,3
1528883638581345,0,7,0,-3,16,10,4,0
1528883638581345,-3,-12,1,13,-34,-16,-2,-3
1528883638589563,0,-2,-7,-18,-10,-5,1,0
1528883638589563,-6,8,9,26,40,11,4,1
1528883638597488,10,10,-3,5,13,2,3,1
1528883638597488,-8,25,14,-16,-10,-7,-8,-2
1528883638619878,-12,-43,-28,-3,-19,0,9,-3
1528883638619878,-8,15,6,-11,-17,-8,-15,-12
1528883638627562,9,20,4,-4,0,4,-3,6
1528883638627562,-3,-12,-4,20,18,4,-2,-2
1528883638642048,8,11,3,-19,-10,-7,1,5
1528883638642048,3,-7,-3,2,-5,9,4,5
1528883638649989,-5,-19,-6,4,2,-1,-2,-5
1528883638649989,-1,2,-7,-9,1,-15,-32,-4
1528883638657010,-4,-16,-9,-7,-4,6,29,3
1528883638657010,7,1,-8,0,1,-2,5,16
1528883638672274,0,-5,7,-5,-8,-12,-32,-4
1528883638672274,-1,-6,2,6,-3,-6,9,-3
1528883638679944,4,-9,-7,-3,-2,6,9,7
1528883638679944,1,1,-2,2,1,-8,14,0
1528883638694613,-4,16,0,-1,9,8,-16,-8
1528883638694613,3,-7,14,8,1,8,4,7
1528883638701916,-1,-3,-9,-5,-3,-20,-31,-7
1528883638701916,3,2,2,3,-4,6,43,-3
1528883638709946,-1,4,7,2,2,24,5,3
1528883638709946,2,0,-9,-6,-5,-15,-20,-3
1528883638717510,4,29,25,2,-4,15,2,4
1528883638717510,-12,-55,-40,-15,-10,-35,-23,-2
1528883638731489,1,11,12,1,-6,-4,-12,-11
1528883638731489,-9,-2,-1,-7,-2,19,34,-4
1528883638739426,1,-8,-3,3,8,29,17,2
1528883638739426,-19,-5,-1,12,9,10,-8,-1
1528883638754779,1,19,11,-11,-7,-23,-18,-7
1528883638754779,9,8,5,-4,-10,-34,-26,-5
1528883638761767,-5,-8,-8,-3,-2,-10,-5,-15
1528883638761767,6,-1,2,10,7,11,-11,5
1528883638769982,-8,-10,-7,5,-11,2,13,2
1528883638769982,-10,-1,-5,-17,4,-6,1,-10
1528883638776717,0,-6,-1,8,8,-29,-27,9
1528883638776717,9,11,7,4,15,10,20,2
1528883638791676,-2,-8,-7,-2,5,47,57,4
1528883638791676,9,10,8,7,-13,7,-27,0
1528883638799657,-6,-8,-3,3,-14,-57,-29,-8
1528883638799657,1,12,-17,-23,-10,7,-5,-6
1528883638814615,2,40,28,4,-10,17,15,-6
1528883638814615,0,-37,-34,-6,1,21,40,22
1528883638821597,-5,22,5,-1,26,14,11,-12
1528883638821597,5,4,15,13,-4,-16,-18,3
1528883638829626,-16,-14,2,11,-12,-36,-42,-18
1528883638829626,-7,5,8,-12,8,6,23,2
1528883638836608,10,-28,-28,12,13,14,-4,7
1528883638836608,-1,2,5,-18,-18,-26,-8,0
1528883638851570,8,-19,-12,24,26,-10,-7,4
1528883638851570,-8,1,12,8,-9,33,-3,-6
1528883638859549,-1,12,22,13,-10,6,13,-5
1528883638859549,3,2,-16,-35,13,13,7,5
1528883638874509,1,-7,8,13,-1,-27,-22,8
1528883638874509,0,-2,-8,-20,-16,-34,-16,-12
1528883638889472,-11,0,11,-19,-41,-1,22,-2
1528883638889472,13,17,17,39,18,-46,-58,-22
1528883638896450,-3,-2,-20,-59,-3,58,71,36
1528883638896450,-10,-16,-10,35,32,-18,-13,-8
1528883638904429,14,6,-25,-6,1,16,-8,2
1528883638904429,-25,1,17,-9,-22,4,13,-6
1528883638919391,-4,-8,-8,16,-3,-45,-33,-12
1528883638919391,2,-14,-3,-27,-11,4,3,-9
1528883638926376,8,1,0,-1,3,-25,-5,15
1528883638926376,25,35,24,15,17,77,26,9
1528883638949289,1,21,17,0,-3,3,26,1
1528883638949289,-49,-44,-37,-22,-21,-11,-19,-24
1528883638957264,0,10,-4,-11,-1,-12,-12,12
1528883638957264,27,31,20,18,7,7,17,6
1528883638964214,-12,-7,-8,-20,-10,13,15,3
1528883638964214,-7,-13,-7,3,-10,-29,-8,-1
1528883638979210,1,-19,-7,2,-3,-16,-20,-9
1528883638979210,8,9,9,13,24,13,-18,3
1528883638987206,-5,-5,-2,-1,23,35,19,-5
1528883638987206,12,-13,-16,-1,-17,-20,-11,-1
1528883638994187,-2,14,6,-8,-7,-13,-3,1
1528883638994187,4,19,15,0,-21,-24,-23,1
1528883639002168,-2,2,9,1,-3,42,35,4
1528883639002168,-7,-14,-21,-9,-4,-16,-21,-5
1528883639009148,-4,-1,-1,0,4,8,12,4
1528883639009148,3,-7,-5,15,6,13,9,7
1528883639017074,0,4,-3,-12,-2,2,-9,-11
1528883639017074,-13,-9,1,4,-2,-15,-8,0
1528883639039066,7,-2,-16,-5,1,-9,-20,-6
1528883639039066,-4,6,9,-4,1,-2,10,3
1528883639047050,5,16,4,11,13,15,-5,5
1528883639047050,-4,-12,1,-8,-13,-19,2,2
1528883639062006,3,3,3,-2,-2,-15,-13,-4
1528883639062006,6,4,-1,3,6,3,-4,0
1528883639076968,4,-5,-2,-1,-10,-14,-8,-4
1528883639076968,-4,9,7,6,14,17,22,3
1528883639083952,-6,-22,-18,-8,-13,2,-8,-5
1528883639083952,-8,0,-4,-4,-5,-2,1,-4
1528883639091930,-6,-6,0,-13,-16,-12,-9,-3
1528883639091930,3,10,2,1,7,-6,-3,8
1528883639100018,-12,-7,2,-1,-2,0,3,-6
1528883639100018,7,-4,-5,-5,-7,-7,-2,0
1528883639107122,2,2,-3,4,5,6,-1,-2
1528883639107122,-4,-13,-2,2,-5,-7,-2,-3
1528883639114448,-1,-14,-3,3,0,5,4,-1
1528883639114448,0,-4,-4,-1,5,-4,-3,-2
1528883639122420,-6,1,-5,-14,-7,-1,3,1
1528883639122420,4,-9,-17,-4,-2,3,0,-1
1528883639129387,11,18,15,9,2,-2,-4,3
1528883639129387,-13,18,10,6,3,3,6,-3
1528883639137135,-12,-19,2,7,2,6,5,-2
1528883639137135,-6,-4,-6,-2,-4,-2,2,0
1528883639152580,3,-3,-3,-5,1,-5,-3,-3
1528883639152580,9,7,2,9,0,-3,1,2
1528883639159719,-3,9,2,2,-4,3,1,0
1528883639159719,3,11,9,-9,-5,-5,-3,0
1528883639174656,3,1,-5,1,-5,0,3,1
1528883639174656,-5,-17,-4,-8,3,1,1,-5
1528883639181871,3,-1,-1,-5,-5,-2,-3,-1
1528883639181871,-2,-9,-4,14,8,1,-1,2
1528883639188825,2,9,-7,-20,-4,-1,-3,-2
1528883639188825,0,0,6,17,0,0,-2,1
1528883639197350,-5,-17,-11,-10,-2,-2,-4,-2
1528883639197350,-3,1,4,-6,-4,-1,-2,-1
1528883639212068,-11,-8,-3,-2,5,4,3,-4
1528883639212068,3,20,3,-3,-4,-5,-4,2
1528883639219047,-1,3,6,6,3,-2,1,-1
1528883639219047,2,-1,-18,-5,-3,-3,-2,-1
1528883639234579,0,-14,-4,2,1,-2,0,-2
1528883639234579,4,1,-4,-22,-10,-5,-2,1
1528883639242146,1,-11,-6,1,-5,-3,-2,-1
1528883639242146,1,24,13,-2,5,2,2,6
1528883639250141,-10,2,8,1,-3,-1,-3,-6
1528883639250141,0,0,-4,4,-1,-1,-2,-3
1528883639257170,2,-5,-17,-2,-2,0,3,5
1528883639257170,1,2,10,6,-3,0,0,1
1528883639271711,3,-13,-15,1,1,0,2,1
1528883639271711,-2,-2,-4,-16,-6,-6,-4,-2
1528883639279954,-2,0,1,5,1,-2,-1,0
1528883639279954,0,-2,0,-4,-3,-4,-2,-2
1528883639294469,2,0,-2,2,5,5,2,0
1528883639294469,-3,-6,6,11,-2,-2,-2,1
1528883639309417,0,-1,-10,-11,-5,-3,-4,-4
1528883639309417,-4,-8,-7,0,-5,-5,-3,-3
1528883639324141,0,-2,-3,0,6,5,-1,2
1528883639324141,1,10,11,5,0,-2,-3,1
1528883639333407,0,1,0,1,0,-8,-8,-1
1528883639333407,-4,-3,-6,-1,2,5,5,-3
1528883639347523,1,-1,0,-3,-5,2,-1,-1
1528883639347523,12,-27,-28,-10,-5,-14,-9,-7
1528883639354354,-6,14,23,5,0,7,11,2
1528883639354354,5,0,-23,-7,1,-2,-3,7
1528883639369389,0,-7,-5,-8,-11,-17,-14,-1
1528883639369389,1,-6,-2,-14,-8,-2,0,0
1528883639384340,2,15,2,0,6,4,0,-2
1528883639384340,-10,-6,11,7,-5,-5,-4,0
1528883639392385,1,-4,13,16,0,1,2,0
1528883639392385,-2,5,12,8,-3,-1,0,-4
1528883639407629,-1,3,1,-8,-12,-10,-5,-6
1528883639407629,0,5,-4,-1,-4,2,4,1
1528883639414260,-1,-6,-5,-2,13,10,6,0
1528883639414260,0,-6,-1,2,4,4,0,-1
1528883639429773,-3,3,8,0,-15,-1,-2,-3
1528883639429773,-3,-4,-8,-7,-7,-6,-5,-3
1528883639444812,2,12,5,0,-8,-8,0,0
1528883639444812,-3,-2,7,7,-1,5,1,0
1528883639452495,-2,-19,-14,-2,11,4,0,1
1528883639452495,4,16,8,4,-1,-3,-2,6
1528883639467537,-8,-22,6,-13,-8,-2,-1,-11
1528883639467537,1,10,9,3,-4,-5,-3,-2
1528883639474662,-5,-13,-34,-17,-7,-10,-5,-5
1528883639474662,1,-5,13,13,-6,1,2,1
1528883639489627,4,4,1,-6,-17,-4,-3,-3
1528883639489627,2,-3,-14,-3,3,0,-2,-5
1528883639505034,-6,-5,-5,-10,-1,0,0,-2
1528883639505034,7,-1,0,6,0,0,1,0
1528883639512112,-2,-5,-4,0,5,-2,0,0
1528883639512112,-2,1,2,-3,-8,-4,-1,-3
1528883639527395,-3,-6,-6,-3,-5,-4,-4,-2
1528883639527395,-6,-7,-6,0,-1,0,-3,0
1528883639534824,0,11,21,2,1,2,2,2
1528883639534824,-3,-14,-10,-6,-2,-3,-1,-4
1528883639550158,4,10,15,4,-1,-3,-2,-3
1528883639550158,-9,-11,4,0,5,-3,1,-4
1528883639564183,-2,2,-1,-4,0,0,-2,-1
1528883639564183,-2,-2,4,4,-7,-1,-1,-1
1528883639572161,-2,0,-6,2,5,6,1,-1
1528883639572161,1,3,8,1,4,0,-2,3
1528883639587138,-2,-9,0,2,-6,-3,-2,-2
1528883639587138,-5,-3,-6,-8,-7,-3,-2,0
1528883639594577,4,-11,-9,-2,1,0,-2,-3
1528883639594577,-3,4,8,-4,-5,-2,-4,-6
1528883639609780,-1,2,2,3,-1,0,0,3
1528883639609780,0,-2,-3,0,-1,1,-1,-1
1528883639625017,-1,1,0,3,-2,-1,-3,1
1528883639625017,-2,-8,-4,-3,-2,-3,-5,-7
1528883639631796,-7,-3,-3,-2,-1,0,-2,-4
1528883639631796,-1,0,3,-1,2,-2,-3,-3
1528883639647311,1,1,5,2,1,1,0,-1
1528883639647311,-1,-4,-2,2,-2,-2,1,-3
1528883639654400,-2,4,-5,-3,-3,-2,-1,-2
1528883639654400,-2,0,-2,-3,0,-1,0,3
1528883639669666,-4,-3,-1,-2,1,1,-1,0
1528883639669666,0,7,6,3,2,2,1,0
1528883639685085,-2,-8,-3,-3,-3,-4,-2,-1
1528883639685085,3,4,1,-1,-1,0,0,2
1528883639692342,-3,5,2,-1,0,0,-1,-2
1528883639692342,-1,-6,0,-1,-3,-1,-1,-2
1528883639707614,0,-4,-3,-1,-1,-1,-4,-3
1528883639707614,0,-2,0,-1,-3,-2,-2,0
1528883639714595,2,2,-3,-2,-2,-1,-2,2
1528883639714595,-1,0,-4,-4,-4,0,-3,-4
1528883639729814,1,1,1,1,0,1,0,7
1528883639729814,-6,17,-2,-3,0,-1,0,-8
1528883639744587,-3,-8,-3,0,0,0,0,1
1528883639744587,-3,3,-3,1,0,-1,-1,0
1528883639752240,-5,-3,0,-2,-2,-2,0,-4
1528883639752240,2,-9,0,0,-1,-1,-1,7
1528883639767449,-3,-2,0,1,0,-1,1,0
1528883639767449,4,3,1,-3,-1,-1,-1,-2
1528883639774427,-2,-1,-4,-2,0,-2,-2,-1
1528883639774427,9,-1,-2,-2,-1,-1,-2,4
1528883639789123,3,-9,-9,-4,0,1,-1,-3
1528883639789123,2,2,4,6,0,-2,-1,-1
1528883639804782,2,0,-25,-11,-2,1,3,5
1528883639804782,-6,-2,4,2,3,1,-1,-9
1528883639812595,1,-5,-4,-3,1,-2,-2,-5
1528883639812595,6,-2,-8,-4,-1,0,-1,7
1528883639827109,-1,-2,19,7,-2,-4,-4,-12
1528883639827109,5,0,-4,1,0,0,0,1
1528883639835021,-3,4,4,0,-3,-2,0,2
1528883639835021,-1,-4,-10,-2,-3,0,1,0
1528883639849990,1,1,6,2,-1,-2,-1,-3
1528883639849990,-6,-6,-17,-11,-4,-2,-3,-3
1528883639864333,-1,3,-3,0,1,0,-1,-1
1528883639864333,-8,-6,-16,-7,-2,-3,-3,-10
1528883639872363,0,4,4,-2,-1,-1,0,0
1528883639872363,-7,-4,15,7,1,0,0,0
1528883639887015,-1,-3,4,0,-2,-3,-5,-11
1528883639887015,1,-2,-7,-1,-1,2,0,3
1528883639895018,3,5,-4,-1,2,-1,-1,2
1528883639895018,-7,-6,-4,-4,-2,0,-3,-13
1528883639909987,-9,-3,3,1,-3,-3,-1,-10
1528883639909987,-3,-3,-2,-3,-1,0,-3,-8
1528883639923951,5,3,-2,-4,0,0,2,4
1528883639923951,-1,8,-1,-3,0,0,-1,1
1528883639931881,0,-1,6,4,0,-1,-1,-2
1528883639931881,5,-2,-1,-1,1,-2,0,3
1528883639947573,-9,-2,5,0,-6,-3,0,10
1528883639947573,2,-4,-4,0,1,0,-4,-12
1528883639954305,8,4,-10,-9,-6,-1,-1,2
1528883639954305,-1,2,5,2,-1,-1,1,1
1528883639969537,-2,-5,1,0,0,0,-1,0
1528883639969537,-1,-6,-8,-4,-2,-2,-6,-13
1528883639984260,1,-1,-6,-4,-2,0,0,-1
1528883639984260,-5,-2,3,1,-4,-3,-4,-2
1528883639999203,-3,-4,-14,-5,0,1,-1,-4
1528883639999203,1,1,-7,-2,1,-2,1,6
1528883640014181,1,-2,8,2,0,-2,-2,-3
1528883640014181,1,7,10,5,1,0,1,0
1528883640022175,1,-3,4,1,1,1,1,0
1528883640022175,-6,-5,-11,-5,-2,-2,-1,0
1528883640037443,2,0,0,-4,-2,-1,0,5
1528883640037443,-5,1,1,1,-3,0,0,-6
1528883640052387,-3,4,-3,-1,0,0,-1,-8
1528883640052387,3,5,11,2,-1,0,0,-3
1528883640067530,-2,0,-2,-4,-2,-1,-2,-1
1528883640067530,-2,-3,-2,-1,-2,0,2,8
1528883640074837,2,-5,-3,-2,-3,-3,-2,0
1528883640074837,-4,-1,2,1,0,-1,-1,1
1528883640089777,-2,-1,-5,-3,-1,1,1,7
1528883640089777,1,5,23,8,-1,0,-2,-7
1528883640104734,-1,-2,-8,-4,-2,0,0,0
1528883640104734,-1,-7,-5,-3,-5,-3,-2,-10
1528883640111714,-3,-1,-11,-2,1,-1,1,1
1528883640111714,3,-3,-7,-5,-4,-2,1,13
1528883640127450,-3,-4,5,0,-2,-1,1,-1
1528883640127450,10,1,-8,-2,-1,1,0,-5
1528883640134658,-9,-5,2,-1,-1,-2,-3,-2
1528883640134658,1,-1,-6,0,0,1,-2,-6
1528883640149638,0,-3,-4,-1,-1,1,0,-7
1528883640149638,-6,1,3,1,1,0,0,-9
1528883640163889,-1,1,-4,-2,-1,-6,-4,-1
1528883640163889,12,3,5,0,1,1,-4,8
1528883640172130,-12,-5,-6,-2,1,-2,-1,-11
1528883640172130,-2,-2,8,1,-3,-1,1,0
1528883640187135,-2,1,-2,0,-2,0,-1,-2
1528883640187135,-8,-3,0,-1,0,-4,-1,-2
1528883640194416,4,-2,2,-1,-3,-3,-3,2
1528883640194416,3,5,-9,-4,-1,1,-1,4
1528883640209398,-5,1,1,0,-1,-2,-5,-3
1528883640209398,-7,-1,1,1,-1,-2,1,-4
1528883640216334,4,-4,-2,-2,-2,0,-1,2
1528883640216334,-9,-6,-7,-2,0,-2,-2,4
1528883640231627,3,4,2,1,-2,1,-2,1
1528883640231627,0,-2,-3,1,-2,-1,1,4
1528883640247274,-1,-2,-2,2,-1,-1,-2,0
1528883640247274,-2,-7,-7,-1,-1,0,-2,-3
1528883640254723,-6,-4,2,-1,-2,-4,-1,-3
1528883640254723,0,-2,-8,-3,-1,-1,0,1
1528883640276994,-4,-2,7,2,-3,-1,-1,-5
1528883640276994,-1,0,-6,-1,-1,-3,1,-4
1528883640284991,3,2,0,1,-2,0,0,5
1528883640284991,2,-1,-8,-4,-1,1,-2,2
1528883640299509,-2,-2,4,3,-1,-3,-7,2
1528883640299509,1,-1,2,0,0,-2,0,-3
1528883640314318,3,-3,-5,-4,-1,0,-3,-2
1528883640314318,-3,-1,1,0,-2,1,0,-2
1528883640322449,-7,-5,0,-1,-2,-2,-4,-6
1528883640322449,0,-2,-1,-2,1,0,-1,3
1528883640329421,3,-1,-2,1,-1,0,-2,4
1528883640329421,-1,-2,-7,-4,-1,-2,-2,-3
1528883640337140,2,1,-1,0,-1,1,1,0
1528883640337140,-2,1,1,0,-2,-3,-5,-3
1528883640352361,1,1,0,-1,-2,-2,0,-2
1528883640352361,-2,-2,1,0,-1,0,-1,-1
1528883640367324,5,0,1,-1,-3,0,-2,0
1528883640367324,-11,-4,-1,-2,-4,-3,-3,-6
1528883640375067,-9,-3,-1,0,0,0,-2,-18
1528883640375067,0,-3,-3,-1,-1,-1,1,4
1528883640389000,-1,-1,6,0,-1,-2,-3,1
1528883640389000,0,0,0,-2,-1,-3,0,1
1528883640397020,1,2,-2,-1,0,-1,2,0
1528883640397020,-3,0,-1,-3,-2,-1,-1,-5
1528883640411992,7,3,3,1,2,3,4,10
1528883640411992,5,0,2,-2,0,-1,0,0
1528883640427081,1,0,-5,-4,-1,-1,1,3
1528883640427081,0,0,0,-5,-1,-1,0,1
1528883640434818,1,-1,1,0,-2,0,-2,1
1528883640434818,-4,-1,-2,0,1,-1,-2,-4
1528883640449169,5,1,-4,0,-2,-2,-3,-1
1528883640449169,-5,-2,-2,2,-1,-1,0,-5
1528883640464077,5,-1,-1,-1,-1,-3,0,2
1528883640464077,-4,-4,-3,0,-1,1,-2,-12
1528883640472384,-6,-6,-1,-1,-3,-3,-4,1
1528883640472384,1,1,2,0,0,0,-1,-3
1528883640487248,0,-2,0,-1,0,0,0,2
1528883640487248,7,2,1,-1,-1,0,1,7
1528883640494493,-2,-4,-2,-3,0,-1,-2,-1
1528883640494493,1,-2,-1,-2,-4,0,-3,0
1528883640509199,-2,-3,-3,-5,-1,-2,0,-3
1528883640509199,0,0,-3,-2,-2,-2,0,2
1528883640524390,0,-1,-3,0,-1,-1,0,-3
1528883640524390,0,3,-2,-1,-2,-3,-1,0
1528883640532148,3,3,0,0,0,1,-1,2
1528883640532148,-14,-5,-1,-2,-3,-4,-6,-18
1528883640546912,2,-1,0,0,0,0,2,4
1528883640546912,0,-2,-1,0,-2,-1,-1,5
1528883640554182,-3,-2,0,-1,1,0,1,-5
1528883640554182,2,-3,1,1,0,-2,-5,-3
1528883640569461,-2,-2,1,1,-1,0,-4,-6
1528883640569461,-1,-2,0,-1,-2,-2,-1,-2
1528883640577429,-1,-1,0,-4,-3,-2,-3,1
1528883640577429,4,0,-1,-4,0,2,3,6
1528883640592131,-3,1,-4,-1,-1,-2,-1,-7
1528883640592131,-2,0,-2,-1,-1,-1,-1,0
1528883640607092,-5,0,-3,-1,-1,-2,-3,-1
1528883640607092,-2,-2,-2,0,-2,0,0,0
1528883640614290,1,-2,-1,0,0,-1,0,0
1528883640614290,-1,-3,-2,1,0,-3,-1,1
1528883640629105,-2,-3,-2,-3,0,-3,-3,-7
1528883640629105,-3,0,-3,-2,0,0,0,-3
1528883640637444,-2,-1,-2,-1,-2,-1,-1,-6
1528883640637444,2,1,1,2,0,1,1,6
1528883640652301,2,2,-2,-2,0,0,-3,3
1528883640652301,-1,0,-2,-2,-2,0,0,3
1528883640667300,-1,-1,-1,-2,-1,-1,1,7
1528883640667300,1,1,-2,-4,-2,-1,-4,-2
1528883640675115,4,1,3,0,1,0,1,5
1528883640675115,-3,-2,0,-1,-1,-2,-1,-6
