timestamp,emg1,emg2,emg3,emg4,emg5,emg6,emg7,emg8
1529310161579146,-2,0,-1,-1,0,-2,-1,1
1529310161579146,0,-1,-3,-2,0,-1,-1,0
1529310161589118,-2,0,0,-1,0,-1,0,1
1529310161589118,0,-2,-1,-1,-1,-1,-1,-1
1529310161602083,0,-1,-1,0,-1,0,1,-1
1529310161602083,-1,-1,-2,0,0,0,-1,-1
1529310161617043,0,-2,0,-2,-1,0,0,0
1529310161617043,-1,1,-1,0,-1,-1,-2,-1
1529310161624026,-1,0,0,-1,0,-1,0,-2
1529310161624026,0,0,0,-1,0,-2,2,-2
1529310161638985,-1,1,-1,-2,-1,0,-1,-2
1529310161638985,0,-1,0,0,-1,1,1,1
1529310161646963,-2,-1,0,0,0,-2,-1,1
1529310161646963,-1,0,0,0,-1,1,0,1
1529310161661924,0,1,-1,0,-2,-2,-2,-3
1529310161661924,-1,0,-2,-2,-1,-1,0,-1
1529310161668905,1,0,0,0,-1,0,-1,-1
1529310161668905,1,1,1,-1,0,-1,0,0
1529310161685873,0,0,-2,1,-2,1,-1,0
1529310161685873,-1,-1,0,-1,-2,-2,-1,0
1529310161699831,0,0,1,0,-1,0,0,1
1529310161699831,-1,2,0,1,0,0,-1,0
1529310161706803,-1,0,-1,-2,0,-1,-2,0
1529310161706803,-1,-2,0,-1,0,0,-1,-1
1529310161721765,-1,-1,1,0,0,-1,0,-1
1529310161721765,0,-3,1,1,-2,-2,-1,-1
1529310161729756,0,1,-2,0,-1,1,0,0
1529310161729756,-1,-2,-1,0,-1,1,-1,1
1529310161744703,-1,-2,0,-1,0,-2,-1,-1
1529310161744703,0,0,-1,-1,-2,1,0,-2
1529310161759662,-1,0,-1,0,-1,0,-2,-1
1529310161759662,-1,0,-1,-1,0,0,-1,-1
1529310161766644,0,-2,-1,-2,-1,-1,-1,0
1529310161766644,0,-2,0,1,-1,0,1,-1
1529310161796563,-2,-1,-1,0,-1,-1,0,0
1529310161796563,-1,2,-1,-2,0,0,1,-2
1529310161806538,-1,-1,-1,-1,0,-1,-1,-1
1529310161806538,-1,0,-1,0,0,0,-1,-1
1529310161819506,0,-1,2,-1,-2,-1,-1,-1
1529310161819506,-1,0,1,1,-1,-1,-2,-1
1529310161841445,-1,-1,0,-1,-1,-2,-1,0
1529310161841445,1,-1,0,0,0,-1,0,-1
1529310161849424,-1,1,-1,0,-1,0,0,-1
1529310161849424,0,1,-1,-2,-1,-1,1,-1
1529310161864384,0,-1,-2,-2,0,-1,0,0
1529310161864384,-1,-2,-1,0,-1,0,-3,0
1529310161879343,-3,-1,0,0,-1,0,0,-1
1529310161879343,-1,-1,-2,0,-2,1,-1,-1
1529310161886338,-2,-1,-1,-1,-1,-1,-1,0
1529310161886338,1,-1,-2,-2,0,-1,-1,-1
1529310161902280,0,-1,-1,-2,0,-1,-1,-1
1529310161902280,-2,0,-2,-1,0,-1,-1,-3
1529310161924223,0,-1,0,-1,0,-1,-2,-2
1529310161924223,-1,0,0,-1,0,0,0,-1
1529310161931204,0,-1,-1,-1,0,-1,-1,-1
1529310161931204,-1,0,-1,-2,1,-1,-1,-2
1529310161939182,-1,1,-1,0,0,0,-1,0
1529310161939182,0,-1,0,-3,-1,-2,-1,-1
1529310161947162,-1,0,-1,-1,-1,0,-1,0
1529310161947162,-1,-2,0,1,0,0,1,-1
1529310161962173,0,0,-1,-2,-2,-1,0,-1
1529310161962173,2,0,0,0,0,-1,0,-1
1529310161969147,-1,0,1,0,-2,0,-1,-1
1529310161969147,-1,-1,-1,-1,-1,0,-1,0
1529310161984062,-2,-1,-1,0,-1,-1,0,0
1529310161984062,-1,-1,1,-1,-1,0,-1,-1
1529310161999022,-1,-1,-2,0,-1,-2,0,0
1529310161999022,-2,1,1,-1,-1,0,-2,-1
1529310162007013,0,-1,0,-1,-2,0,-1,-1
1529310162007013,0,-2,-4,0,0,-1,-1,0
1529310162022055,-2,-1,-1,-2,0,0,0,0
1529310162022055,-2,-1,-1,0,0,-1,0,-1
1529310162029001,-1,1,-1,0,0,-1,-2,-2
1529310162029001,0,1,0,-2,0,-1,-1,-2
1529310162043988,1,0,-1,-1,1,-1,-1,0
1529310162043988,0,-1,-1,-1,-1,-2,0,1
1529310162058921,0,0,-1,0,1,-1,-1,0
1529310162058921,0,-2,0,-1,-2,1,-1,0
1529310162066940,-1,-3,-2,-1,-2,-2,-2,0
1529310162066940,0,-1,-1,1,-1,-1,0,0
1529310162081861,0,0,-1,-1,-2,-1,1,-1
1529310162081861,-1,1,-2,0,0,-1,0,-1
1529310162088849,-2,-1,0,-1,1,-2,-2,0
1529310162088849,-1,-2,1,-2,-1,1,-1,0
1529310162104800,0,-1,-1,0,-2,-2,0,-1
1529310162104800,-1,0,-1,0,-1,-1,-2,-1
1529310162119758,-2,0,0,0,-2,-1,-1,-1
1529310162119758,-1,-1,-1,1,1,-1,-2,-1
1529310162126741,1,0,-1,0,-1,-1,-1,-1
1529310162126741,-1,0,-1,0,0,1,-1,-2
1529310162141699,0,-1,0,-3,0,0,-1,0
1529310162141699,-2,-1,0,1,0,0,-1,0
1529310162149678,0,0,0,-2,0,-1,-1,-1
1529310162149678,-1,-1,-2,0,-1,0,-1,-1
1529310162164676,-1,-1,-2,-2,-1,1,1,0
1529310162164676,-2,-1,1,-1,0,-2,-1,-1
1529310162179606,-1,0,-1,-1,-2,-1,0,-2
1529310162179606,1,-2,-2,-2,-1,0,0,-2
1529310162186580,-1,-1,0,1,0,0,0,0
1529310162186580,-1,0,-1,-2,-1,-1,-1,0
1529310162201579,1,-1,-1,0,-1,-1,0,1
1529310162201579,-1,0,-2,-2,-1,-1,-2,-1
1529310162209518,-1,-2,0,-1,-1,0,0,-1
1529310162209518,0,0,-1,1,0,-2,0,-1
1529310162224496,0,-1,0,0,0,-1,0,0
1529310162224496,1,-1,-2,-2,-2,-1,1,1
1529310162239440,0,1,-1,0,-1,-1,-1,-1
1529310162239440,0,0,-1,0,-2,-1,-1,1
1529310162246421,-2,0,-1,0,0,-1,0,0
1529310162246421,-1,0,-2,-1,1,0,-2,-1
1529310162269359,0,0,-2,-1,-1,0,0,-1
1529310162269359,-1,1,0,-2,1,-1,0,1
1529310162276340,0,-2,-2,0,-1,-2,0,-2
1529310162276340,1,-3,0,-1,0,-1,-2,-1
1529310162292297,0,1,1,-1,-1,1,0,-1
1529310162292297,0,0,0,-2,-1,0,-1,0
1529310162306261,0,-2,-1,-1,-2,1,-2,-1
1529310162306261,0,-2,-2,0,-2,-1,0,0
1529310162322217,-1,0,0,0,0,-1,0,1
1529310162322217,0,0,-1,1,1,-1,-3,0
1529310162329201,0,-1,1,-3,-2,0,-1,-1
1529310162329201,1,-1,1,1,0,-1,0,-2
1529310162344160,0,0,-2,0,0,-1,-2,-1
1529310162344160,1,-2,1,0,-1,-1,-1,0
1529310162359125,1,0,1,1,-3,-1,-2,0
1529310162359125,-2,-1,-1,-1,1,0,-1,-2
1529310162367136,-2,-2,0,1,0,0,-1,0
1529310162367136,-1,0,0,0,-1,0,0,-1
1529310162382057,-1,0,0,-1,-1,-1,1,2
1529310162382057,0,-1,2,-3,-2,-3,0,0
1529310162389039,-1,0,-3,-1,0,0,0,-1
1529310162389039,-1,0,-1,-2,-1,0,-2,-1
1529310162404241,0,1,-1,-1,-1,-1,1,0
1529310162404241,0,-2,0,0,0,-2,0,-1
1529310162418958,-1,0,0,0,1,-2,-2,0
1529310162418958,-2,0,-2,0,-1,0,-1,-1
1529310162426937,-1,-2,0,0,-1,-1,-1,2
1529310162426937,-1,0,-2,0,0,1,0,-2
1529310162441944,-1,-1,-1,-1,1,0,0,-1
1529310162441944,1,-1,-1,0,-1,-1,-1,-1
1529310162449943,0,0,1,0,-1,0,-1,1
1529310162449943,-1,-2,-2,2,-1,0,-1,1
1529310162463893,-1,0,-3,-4,-1,-2,0,-1
1529310162463893,1,-1,1,-1,-2,-1,-2,-1
1529310162479796,-1,-2,-1,-1,0,-1,0,0
1529310162479796,0,-2,-2,0,-1,-2,1,0
1529310162487079,-1,-1,-1,-1,1,-2,1,-2
1529310162487079,-2,0,-3,2,1,-2,-1,-1
1529310162502410,-2,-4,-4,0,0,0,0,0
1529310162502410,-1,-1,1,-2,-1,0,0,1
1529310162510192,-1,-4,0,3,2,1,1,-2
1529310162510192,3,14,11,-5,-2,-2,-1,1
1529310162524773,-1,4,-2,-1,1,0,-1,1
1529310162524773,-7,-4,-18,-7,-3,-2,0,0
1529310162539831,2,-6,3,3,-2,-2,-3,-2
1529310162539831,0,3,1,-10,-4,1,1,1
1529310162546696,6,13,23,13,6,4,3,1
1529310162546696,-3,4,-6,-7,-4,-3,-3,-4
1529310162561918,-12,-24,-40,-15,-7,-7,-4,-8
1529310162561918,-5,-20,-1,12,2,-1,0,-1
1529310162569635,0,16,19,6,0,-1,-2,3
1529310162569635,21,16,15,4,4,1,2,5
1529310162584595,-6,-1,-22,5,2,1,-2,-5
1529310162584595,-6,-1,10,-19,-9,-3,-4,-2
1529310162599801,-9,18,9,-8,-5,-8,-3,-3
1529310162599801,12,-29,-23,11,0,-4,-3,1
1529310162606581,1,0,26,50,12,2,-2,-2
1529310162606581,-13,7,13,-44,-9,0,2,-1
1529310162622525,4,0,-3,-14,-2,4,4,6
1529310162622525,5,19,4,-21,-6,-4,-4,-5
1529310162629894,-25,-39,-55,1,0,2,4,-5
1529310162629894,24,2,-19,23,10,3,2,6
1529310162644939,2,-35,-10,5,2,-1,-2,-2
1529310162644939,-7,-19,18,26,3,1,-1,-5
1529310162660126,-12,0,-14,4,6,2,-1,-4
1529310162660126,-10,-23,-48,-46,-19,-7,-5,-4
1529310162667172,-1,-4,0,0,-4,-2,-2,1
1529310162667172,6,31,45,25,7,7,7,4
1529310162682121,17,31,28,37,9,0,-3,-4
1529310162682121,-35,-51,13,42,11,2,1,-4
1529310162689059,-10,-20,-88,-117,-43,-15,-9,-5
1529310162689059,-1,-13,-2,29,12,1,-1,-1
1529310162704019,-3,3,29,-6,11,2,2,-1
1529310162704019,11,18,-3,-2,-1,-2,2,6
1529310162718979,-43,-55,-31,-6,-3,2,4,-1
1529310162718979,22,27,26,-4,4,2,3,8
1529310162726957,0,-13,-2,20,8,2,3,5
1529310162726957,-4,-22,-37,-48,-11,-8,-9,-12
1529310162741971,4,-6,-21,-4,0,-1,-1,0
1529310162741971,-8,37,21,-7,-4,-1,-1,-3
1529310162748953,11,11,51,116,29,5,-2,1
1529310162748953,-26,-28,-57,-88,-39,-9,-3,-4
1529310162763858,22,32,24,14,5,1,3,4
1529310162763858,-16,-1,-7,15,4,0,1,1
1529310162778872,21,-20,-13,-20,-7,-3,-4,1
1529310162778872,0,12,1,22,9,5,5,4
1529310162786797,-13,-28,-9,-13,-9,-2,0,0
1529310162786797,1,16,18,24,7,2,0,3
1529310162801784,10,42,-10,-41,-14,-3,0,0
1529310162801784,-7,-31,23,40,17,3,-1,-3
1529310162809735,5,-15,-29,-55,-11,-2,2,3
1529310162809735,10,31,44,47,8,2,0,0
1529310162824695,0,1,18,22,1,0,1,0
1529310162824695,-17,-18,-20,-14,1,3,-1,-7
1529310162831732,-26,-26,-39,-47,-16,-4,-1,-2
1529310162831732,22,3,-2,-4,-4,-7,-5,1
1529310162846637,10,20,17,1,-2,3,2,4
1529310162846637,9,8,19,33,13,5,4,3
1529310162861596,4,-6,-15,-21,-6,-1,0,2
1529310162861596,-6,-18,-19,15,1,-3,-5,-6
1529310162869575,-22,8,-7,-23,-14,-8,-8,-12
1529310162869575,5,5,17,10,4,-1,1,0
1529310162884536,8,3,26,25,7,4,4,11
1529310162884536,3,15,26,58,11,6,4,3
1529310162893512,-2,-5,-26,-55,-12,-4,-5,-4
1529310162893512,-9,-29,-24,-1,-5,-1,0,0
1529310162906477,-6,-3,-15,-36,-10,-3,-3,-5
1529310162906477,-15,-11,-12,11,12,2,-5,-10
1529310162921437,4,-2,-9,-18,-13,-6,-2,-2
1529310162921437,11,15,2,-27,-13,-7,-3,-3
1529310162936397,-10,3,16,41,17,3,2,-4
1529310162936397,-18,-24,-16,-27,-6,-7,-5,-10
1529310162951357,-6,-8,10,39,11,3,0,-1
1529310162951357,-6,-4,-20,-32,-8,-4,-3,-5
1529310162959336,5,7,17,8,2,-1,-3,4
1529310162959336,3,10,-2,5,2,5,3,0
1529310162974296,18,36,37,33,-14,1,2,5
1529310162974296,-17,-20,-16,15,-7,-7,-6,-10
1529310162989289,15,18,18,-9,9,-1,-3,-6
1529310162989289,-6,3,4,10,4,6,2,-1
1529310163004266,-24,-18,-25,-29,-8,-3,-1,-9
1529310163004266,-8,-16,-4,22,-8,-3,-3,-1
1529310163012240,1,-1,2,0,-2,1,0,-2
1529310163012240,-12,-20,-28,-42,-14,-5,-3,-3
1529310163027493,18,29,25,32,1,6,2,0
1529310163027493,2,8,8,-4,-3,-2,1,3
1529310163041495,7,5,-8,-21,-1,4,-1,-4
1529310163041495,-3,-16,-17,-5,-2,-7,-6,-4
1529310163049435,-7,-25,-17,-3,-1,-2,-5,-3
1529310163049435,-2,4,0,-30,4,1,-1,3
1529310163064436,22,35,25,16,-6,2,6,8
1529310163064436,2,3,1,17,-1,7,4,-1
1529310163072525,-4,-3,-17,-28,-3,-7,-1,-2
1529310163072525,22,1,5,7,-11,1,3,3
1529310163086850,-14,-13,-14,4,-2,2,7,-8
1529310163086850,11,0,16,25,5,-3,-6,0
1529310163101811,30,44,25,6,3,1,6,12
1529310163101811,0,22,15,10,7,4,-1,0
1529310163109789,11,-4,-10,-26,0,3,0,1
1529310163109789,-1,-7,6,26,5,-2,-3,4
1529310163125022,-7,-20,-15,-6,-9,-3,-5,-15
1529310163125022,-11,-16,-25,-31,-5,-1,8,5
1529310163132324,7,13,10,18,3,0,-2,-1
1529310163132324,-6,-9,-14,-19,-2,-4,-3,-4
1529310163146966,6,18,45,58,13,6,5,7
1529310163146966,-1,0,-18,-29,-10,3,3,2
1529310163161929,-12,-3,-7,-11,-2,-1,0,4
1529310163161929,2,-8,0,5,-8,-1,1,-6
1529310163169946,-6,-13,-17,-18,-1,-6,-5,2
1529310163169946,4,15,9,8,2,1,-2,-6
1529310163184343,-26,-21,-18,-6,-3,2,3,0
1529310163184343,0,-18,-4,5,3,1,-5,-8
1529310163192092,9,26,23,1,1,-6,-8,1
1529310163192092,3,3,-1,-5,-1,-2,-3,0
1529310163207090,17,17,-2,-42,-9,1,4,7
1529310163207090,0,13,17,7,3,1,4,3
1529310163222311,1,7,10,6,4,1,2,3
1529310163222311,5,0,-3,-7,-4,-3,-3,-4
1529310163229596,-2,-6,7,21,-3,2,0,0
1529310163229596,-8,-11,-11,-4,14,7,2,-3
1529310163252635,14,8,16,12,-4,2,13,8
1529310163252635,-2,6,5,-4,-6,-6,-11,-3
1529310163259828,-15,-10,-11,1,-9,2,3,-3
1529310163259828,9,13,5,1,0,-5,-3,-2
1529310163275100,6,-4,-2,5,3,0,-1,-6
1529310163275100,-10,1,6,-5,-1,0,1,0
1529310163289132,-11,-28,-43,-56,-15,-7,-7,0
1529310163289132,-8,4,11,12,6,2,2,-4
1529310163304978,16,5,3,0,3,1,-4,-1
1529310163304978,-20,-6,-6,-16,-3,2,1,-5
1529310163312294,-22,-11,8,29,8,-1,-1,-2
1529310163312294,4,-7,-4,4,-9,-2,3,4
1529310163327497,-16,-20,-25,-37,-7,-9,-6,-8
1529310163327497,-10,-14,-20,-7,-9,-5,-7,-3
1529310163342006,3,1,10,29,15,1,-6,-6
1529310163342006,-3,11,9,-12,5,4,1,-1
1529310163349994,16,15,4,-10,-6,-4,0,5
1529310163349994,-6,-7,3,-1,2,1,1,-4
1529310163364961,10,5,-21,-13,-13,-3,1,-3
1529310163364961,-13,-13,-6,10,2,-5,-6,-7
1529310163371930,3,19,19,11,12,4,-1,3
1529310163371930,15,6,-5,-8,-8,-2,-7,-8
1529310163386943,-7,-7,-1,12,4,5,-8,-1
1529310163386943,-27,-21,-21,-14,2,2,2,4
1529310163401937,7,-3,-10,-19,-3,-2,-8,-5
1529310163401937,0,2,3,2,-9,2,3,-2
1529310163410002,-4,10,24,32,19,-2,1,4
1529310163410002,9,1,-7,-7,1,-2,-2,-2
1529310163425086,-19,-5,-5,-6,-12,-3,0,-8
1529310163425086,6,-6,-3,0,0,-1,2,3
1529310163432127,-6,0,-15,-16,-6,-5,-1,-2
1529310163432127,23,27,26,21,8,6,4,7
1529310163447183,2,-14,-5,11,-26,-1,6,3
1529310163447183,-9,-10,-8,-11,-1,-3,-1,0
1529310163461480,-18,-5,3,-5,1,2,1,-1
1529310163461480,13,9,24,44,8,2,-1,6
1529310163469466,-4,-12,-35,-56,-13,-4,-1,-6
1529310163469466,-9,-3,-2,21,4,0,0,1
1529310163485068,-10,-8,-2,-4,-6,0,-2,-4
1529310163485068,5,-1,-3,2,-6,-1,0,1
1529310163492124,5,12,14,28,12,2,2,2
1529310163492124,19,-1,-3,-14,-7,-3,-1,3
1529310163507047,-14,-16,-11,2,3,-2,-3,-13
1529310163507047,-3,-6,-5,3,0,0,-1,-1
1529310163522212,5,11,13,7,-4,0,1,4
1529310163522212,2,9,-7,-29,-6,0,-2,0
1529310163530003,4,3,15,30,5,2,0,0
1529310163530003,-18,-27,-16,-12,-6,-2,1,-2
1529310163545000,-5,1,4,14,4,-3,-3,-2
1529310163545000,2,0,-11,-19,-5,-1,-4,-5
1529310163551889,3,0,4,2,4,2,1,2
1529310163551889,0,-3,-7,-6,-4,-4,-1,3
1529310163567183,8,2,6,6,3,3,2,7
1529310163567183,-5,7,13,21,5,-2,-3,-3
1529310163582442,-5,-9,-16,-24,-5,-2,0,-1
1529310163582442,-2,-2,-2,-4,-7,1,2,-1
1529310163589084,-3,-6,-2,-9,-1,-1,-2,-2
1529310163589084,-20,-7,3,16,-5,-3,-2,-7
1529310163604045,1,-12,-13,-13,1,-3,-5,-2
1529310163604045,-2,-3,-20,-38,-6,-2,-2,-3
1529310163612069,-2,-2,6,0,0,1,0,-2
1529310163612069,5,6,-7,1,0,-2,1,3
1529310163626982,1,2,1,2,0,0,-1,-1
1529310163626982,3,-1,0,-7,0,2,-1,-2
1529310163642517,4,3,8,16,4,1,0,1
1529310163642517,-4,-4,0,4,2,-2,-1,-1
1529310163649722,4,-2,-4,2,0,0,-3,0
1529310163649722,6,4,4,-1,2,2,1,2
1529310163664950,-18,-10,-5,1,-2,0,1,-2
1529310163664950,-3,-7,-3,-1,-2,-2,1,0
1529310163672657,0,4,0,-3,-1,-1,1,1
1529310163672657,4,2,0,-3,0,-1,1,1
1529310163686924,1,3,1,7,3,0,1,-2
1529310163686924,0,2,2,-2,-1,1,-1,-1
1529310163702661,3,-2,-3,3,3,-2,0,3
1529310163702661,0,-4,0,5,-1,-1,0,-2
1529310163710656,1,3,0,-2,-4,0,0,0
1529310163710656,3,-2,2,-2,1,-2,-1,-1
1529310163724578,4,0,-2,-3,-3,-3,0,-1
1529310163724578,-4,-4,-3,1,0,-1,1,-1
1529310163732575,1,5,1,0,1,-1,-2,-1
1529310163732575,-1,-1,-1,-4,-2,0,-2,-1
1529310163746520,5,-1,-4,-2,0,2,0,1
1529310163746520,0,3,1,3,0,-1,-1,-1
1529310163754970,-1,2,0,4,1,-2,-1,-2
1529310163754970,2,1,5,0,0,0,2,2
1529310163770079,-5,-4,-5,6,1,0,-2,-1
1529310163770079,2,1,-1,0,-1,1,0,0
1529310163784986,-6,-2,0,0,0,-1,-1,-1
1529310163784986,2,1,-1,-3,-1,-2,0,-1
1529310163791699,2,0,0,-1,-2,-1,0,1
1529310163791699,-3,-2,-3,-4,-1,-1,0,-1
1529310163807023,-4,1,2,1,-2,-2,-1,-1
1529310163807023,0,-1,0,3,-1,-2,-4,0
1529310163814273,6,-2,1,0,1,3,3,3
1529310163814273,4,2,-1,-1,-1,0,-2,-3
1529310163829631,-3,-3,-3,-3,-2,-1,-1,-2
1529310163829631,-2,0,1,0,-1,-1,-1,-2
1529310163844492,1,-1,-2,-3,-2,1,1,0
1529310163844492,-3,-3,-3,2,-1,-1,0,0
1529310163852435,-1,-3,-3,-5,-2,-1,-1,-4
1529310163852435,3,4,3,0,1,0,1,2
1529310163867423,4,2,5,4,1,1,0,2
1529310163867423,1,1,2,2,1,1,1,3
1529310163874421,2,6,1,1,0,0,-1,-1
1529310163874421,-6,-4,-5,-3,-2,-3,-2,-5
1529310163889610,-2,-3,-2,-1,-1,-2,0,1
1529310163889610,-1,-7,-5,-4,-3,0,-1,-1
1529310163904849,-3,-7,-4,-2,-3,-1,-2,-1
1529310163904849,-3,-1,0,0,0,0,0,0
1529310163911848,1,0,-4,-3,-2,-1,-1,-1
1529310163911848,4,7,4,2,-1,0,1,0
1529310163927232,3,5,3,1,-1,0,-4,0
1529310163927232,-3,-7,-6,-3,-3,-4,-1,-4
1529310163934472,-8,-7,-3,-1,2,-1,-3,-1
1529310163934472,0,0,1,1,1,2,0,2
1529310163949412,-2,-4,-1,0,1,2,-1,0
1529310163949412,-5,-7,-7,-3,-1,-1,1,-1
1529310163964407,-2,-3,-1,1,0,-2,1,-1
1529310163964407,1,0,0,1,-1,0,-2,0
1529310163972407,-1,-2,-2,0,-2,-2,1,0
1529310163972407,-2,-2,-1,0,1,-1,0,1
1529310163987349,-2,-3,-3,-5,-1,-1,-1,-2
1529310163987349,5,7,1,1,1,-1,-2,-4
1529310163994112,2,-3,-4,-3,-2,0,0,2
1529310163994112,2,5,3,0,0,0,-4,-1
1529310164009042,-1,-1,1,0,-1,-1,2,0
1529310164009042,-4,-5,-4,-1,0,0,-1,0
1529310164025017,-4,-4,-6,-3,-3,-3,-1,0
1529310164025017,1,0,1,0,3,3,0,0
1529310164032244,1,3,1,0,-1,0,0,-1
1529310164032244,-2,-1,-3,-2,-1,-1,1,-1
1529310164047231,-2,0,1,1,0,1,0,-1
1529310164047231,0,1,-2,-1,-3,0,-1,0
1529310164055000,0,1,0,1,-1,-2,-1,-2
1529310164055000,-3,1,-1,1,0,-2,-1,-1
1529310164069912,-2,-2,0,-2,-2,-1,-2,0
1529310164069912,-1,0,-1,-3,-3,-2,-1,-1
1529310164084998,-1,1,0,0,0,0,0,-1
1529310164084998,-2,-1,1,0,-2,-2,-2,0
1529310164091823,0,1,0,-1,0,0,-1,-1
1529310164091823,0,-1,0,0,-1,1,-1,-1
1529310164106780,-3,-6,-3,-1,-1,-1,1,0
1529310164106780,1,-2,-2,-3,-1,-3,-1,0
1529310164115090,-3,1,1,0,-2,-3,-2,-3
1529310164115090,0,-1,1,-1,-1,-2,-1,-2
1529310164129005,1,0,0,-1,-2,-1,0,-1
1529310164129005,0,-1,-1,-2,-1,-1,-1,0
1529310164144966,-1,1,-1,-1,1,0,0,-1
1529310164144966,-1,-1,-1,0,-1,-1,0,0
1529310164151947,-1,-1,-1,-1,0,-1,0,0
1529310164151947,0,0,-1,0,2,0,0,0
1529310164167231,0,1,-1,0,-1,-1,-1,-1
1529310164167231,-1,1,-1,-1,-1,-1,-1,0
1529310164174183,-1,-2,0,0,-1,-1,-1,0
1529310164174183,-1,-1,-1,0,0,-1,-2,0
1529310164189397,0,0,-2,0,1,1,1,-1
1529310164189397,-2,0,-1,0,-3,-1,0,-1
1529310164204386,-1,0,0,0,0,0,0,-1
1529310164204386,1,0,1,-1,1,0,-1,0
1529310164212471,-1,0,-1,0,-1,-1,-1,-2
1529310164212471,-1,0,0,-1,0,-1,2,0
1529310164227060,0,-1,-2,-1,0,1,0,0
1529310164227060,-1,-2,-2,-1,-1,-1,1,-1
1529310164234984,1,1,0,0,0,-1,-2,0
1529310164234984,1,0,1,-1,1,0,-1,-1
1529310164249988,1,-2,-2,-1,-2,0,0,0
1529310164249988,0,0,0,0,0,-1,-1,-1
1529310164264264,0,-1,0,-2,-1,-3,1,0
1529310164264264,-1,-1,-1,0,0,0,1,0
1529310164272243,0,-1,0,-2,0,-3,-1,-1
1529310164272243,0,0,-2,0,-1,-1,-1,-1
1529310164287514,1,0,0,-1,-2,0,-1,0
1529310164287514,0,-1,0,-1,1,-1,-1,0
1529310164294250,-1,0,0,1,-1,0,0,-2
1529310164294250,-1,-1,-1,-1,0,1,-1,0
1529310164309208,0,0,-1,-2,0,0,0,0
1529310164309208,-1,-2,-1,-1,-1,-2,-1,0
1529310164332498,0,-1,-2,-2,-1,0,1,-1
1529310164332498,1,0,-1,-2,-1,-1,-1,-1
1529310164339463,0,0,-2,0,0,-1,-2,-1
1529310164339463,-1,0,-1,-2,0,-1,-1,1
1529310164354347,-1,0,0,0,1,0,-1,0
1529310164354347,-2,1,0,1,-2,-1,0,0
1529310164362066,0,0,1,-2,-1,-1,-1,-2
1529310164362066,0,-1,0,-1,-1,0,-1,-1
1529310164369338,-1,0,1,0,0,-1,1,0
1529310164369338,-1,-1,0,0,-1,0,-2,-1
1529310164384326,0,-1,-1,0,0,-3,-1,-1
1529310164384326,1,0,-1,-1,-1,-2,-1,-2
1529310164391322,-1,-1,0,-2,0,0,0,-1
1529310164391322,-1,0,-1,-1,-1,-1,1,-2
1529310164407266,0,-1,-1,0,-3,-2,-1,0
1529310164407266,-1,-2,-2,0,-1,0,-1,1
1529310164414243,-1,-1,-1,0,-1,1,-2,-1
1529310164414243,1,0,-1,-1,-2,1,-1,0
1529310164429207,0,0,0,-1,0,-1,-1,0
1529310164429207,0,-1,-2,0,0,-1,-2,-1
1529310164444428,-1,0,0,0,-1,0,1,-2
1529310164444428,-1,0,0,-2,-1,-1,0,-2
1529310164452395,-2,-2,-2,-2,-1,1,-1,-1
1529310164452395,0,0,-1,-1,0,-1,-3,0
1529310164467515,0,0,0,0,-2,0,0,0
1529310164467515,1,0,-2,0,0,0,-2,0
1529310164474735,1,-1,0,0,0,-1,0,0
1529310164474735,-2,1,-1,0,-2,-1,0,0
1529310164489448,0,1,0,-2,-1,-1,0,1
1529310164489448,-1,-2,0,-1,-1,0,1,0
1529310164504647,0,-1,1,0,-1,-2,-1,-2
1529310164504647,-1,-1,-2,-2,-1,-1,-1,0
1529310164512425,-1,-1,-1,-1,0,-1,-2,-2
1529310164512425,-1,1,-1,1,-1,0,0,-2
1529310164527417,-2,0,-1,-2,-1,1,1,0
1529310164527417,0,0,-1,0,-1,-1,-1,1
1529310164534568,-1,-2,0,1,0,0,0,0
1529310164534568,-1,-1,-1,-1,-1,-2,0,-1
1529310164557266,-2,-1,-2,-1,-1,-1,1,-2
1529310164557266,-1,-2,-1,-2,-1,0,-1,1
1529310164564251,-1,0,-3,-1,0,0,-1,1
1529310164564251,0,-3,0,1,-1,0,-1,-2
1529310164579819,1,-2,1,-2,0,-1,0,-1
1529310164579819,0,-1,-1,-1,0,0,-1,-1
1529310164587072,-2,1,-1,2,-2,0,0,-2
1529310164587072,0,-1,-2,-1,-1,-1,0,-2
1529310164602021,-1,0,0,-1,-2,1,0,-1
1529310164602021,-2,-1,1,-1,-1,0,-1,-1
1529310164616971,-1,0,0,1,0,0,2,-1
1529310164616971,-1,0,-2,-1,-1,-2,0,-2
1529310164624023,0,0,0,0,0,-1,-1,0
1529310164624023,-1,-1,0,-1,-1,-1,-1,-1
1529310164646953,0,-1,-1,-2,-1,-1,0,1
1529310164646953,0,-2,-1,-2,-2,-2,-1,0
1529310164655096,0,-2,-3,-1,0,-1,1,0
1529310164655096,-1,0,-1,-1,0,0,0,-1
1529310164670025,-1,-1,-1,0,-1,0,-3,-1
1529310164670025,0,1,-2,-1,0,1,0,-1
1529310164684999,0,0,-3,0,-1,-2,-1,-2
1529310164684999,-1,0,1,-1,-1,0,-2,1
1529310164692086,0,-2,1,1,1,-1,0,-1
1529310164692086,-1,-1,-1,1,-1,0,-1,-2
1529310164706926,-1,0,-1,-1,-1,2,-2,0
1529310164706926,2,-1,-1,-1,-1,-1,-1,1
1529310164721889,-2,-2,0,0,-3,-1,0,-1
1529310164721889,0,-1,-1,0,-1,-1,-1,-1
1529310164729211,-1,1,-1,0,0,0,-2,-2
1529310164729211,1,-1,0,-1,0,1,1,-2
