timestamp,emg1,emg2,emg3,emg4,emg5,emg6,emg7,emg8
1529297504649452,-3,-3,1,3,0,1,0,-2
1529297504649452,-2,-1,-3,-2,1,0,0,0
1529297504650446,0,1,-2,-1,1,-1,-2,0
1529297504650446,0,0,1,-2,-1,-1,-1,0
1529297504653440,1,-1,-1,2,0,-2,-3,-2
1529297504653440,0,-2,-1,-1,-1,0,-1,0
1529297504657459,-1,0,3,3,-1,0,0,-1
1529297504657459,-2,-1,-5,-4,-1,2,-2,-1
1529297504659422,-1,-1,-1,6,-2,-1,0,0
1529297504659422,0,-2,1,-7,-1,-1,0,-2
1529297504671389,0,1,-2,0,-2,-1,0,0
1529297504671389,0,-1,2,3,0,-2,0,0
1529297504685352,0,0,0,-2,-1,-1,0,1
1529297504685352,0,0,-2,1,-1,-1,0,-1
1529297504691336,-2,-1,2,0,-2,-1,-1,0
1529297504691336,-1,-1,-3,-1,-1,-1,-1,-3
1529297504699314,-1,1,-1,-4,1,-2,0,-2
1529297504699314,1,-1,0,1,0,0,0,0
1529297504714274,-1,-1,-2,-1,1,-1,-2,-2
1529297504714274,-2,2,0,1,-1,0,-3,0
1529297504719261,0,0,-2,-6,-1,-2,0,0
1529297504719261,1,1,2,-2,-2,-1,0,-1
1529297504759155,-2,0,0,3,-1,-1,-1,0
1529297504759155,1,-2,-4,-6,1,-1,0,0
1529297504766136,-1,-1,-1,-1,-1,1,0,0
1529297504766136,-2,-1,-1,0,-1,-1,-2,-2
1529297504767134,-1,-1,-1,1,0,0,-1,0
1529297504767134,-1,-2,3,7,1,0,-2,-1
1529297504769128,0,1,-1,0,1,-2,0,-1
1529297504769128,2,-1,-4,-2,0,-1,1,0
1529297504779102,1,1,1,3,0,0,-1,-1
1529297504779102,-1,0,-2,-1,0,0,0,-1
1529297504788077,-1,-1,-3,-7,-4,-1,-1,0
1529297504788077,-1,-1,-1,0,-1,-3,-1,-1
1529297504796057,0,0,-1,-6,1,-1,-1,1
1529297504796057,-1,-1,-4,3,-1,-2,-1,0
1529297504809022,1,-2,-1,1,0,0,-1,-2
1529297504809022,1,1,1,0,0,-1,0,-2
1529297504817000,1,0,2,-1,-1,-2,0,-2
1529297504817000,-1,-2,1,1,0,2,-1,0
1529297504826004,-1,-1,-6,-5,-1,0,0,-1
1529297504826004,1,1,1,0,-1,0,-1,0
1529297504838942,-1,-2,-2,-4,0,0,-1,0
1529297504838942,1,0,3,0,-2,-1,0,-2
1529297504848916,-1,-2,-1,3,-1,0,-1,0
1529297504848916,-2,-2,-1,-2,0,0,2,1
1529297504853902,-2,-2,-1,0,0,-1,-1,-1
1529297504853902,0,-1,-1,-5,-2,-2,-1,0
1529297504870857,-1,-2,-1,-2,-1,-2,-3,-2
1529297504870857,-1,-1,1,2,-1,0,-3,-2
1529297504876840,-2,-1,-2,0,-2,-2,-1,-1
1529297504876840,-2,2,0,-1,-1,0,-1,0
1529297504885816,0,2,2,2,0,-1,0,-1
1529297504885816,0,-2,0,-1,-1,0,-1,0
1529297504900776,0,-2,-3,-3,-2,1,1,0
1529297504900776,0,0,-2,-1,-1,-2,2,-1
1529297504908755,0,0,4,2,0,0,-1,1
1529297504908755,-2,0,-2,-2,-2,0,0,-1
1529297504913752,1,0,-4,-2,-1,1,0,0
1529297504913752,0,0,-1,-2,0,1,-2,-1
1529297504929699,-2,-1,0,-3,0,0,0,1
1529297504929699,0,-1,2,4,-1,-1,-1,0
1529297504936694,-2,0,-1,0,0,-1,-2,-2
1529297504936694,0,0,-3,0,-1,-1,0,0
1529297504945662,-1,-1,2,3,0,0,-2,0
1529297504945662,0,-2,-1,-3,-1,-1,-3,0
1529297504959619,-1,-2,-4,-3,-3,-2,-2,-2
1529297504959619,-1,1,1,-1,-1,-1,-1,-2
1529297504968608,-2,-1,0,-1,0,0,0,0
1529297504968608,-1,-2,0,3,-1,1,-1,-1
1529297504974580,0,0,1,-1,0,-1,0,1
1529297504974580,-1,-2,0,-1,-1,-2,-2,0
1529297504989561,0,0,-3,1,-1,0,-1,-1
1529297504989561,-2,3,1,-4,-1,-1,-1,-1
1529297504996521,1,1,3,5,0,-1,-1,0
1529297504996521,-1,-1,0,-1,-1,-1,-1,0
1529297505005506,-1,-1,-10,-11,-2,1,1,1
1529297505005506,1,-1,-1,2,1,-1,1,0
1529297505019459,-2,0,3,-5,1,-1,0,-2
1529297505019459,-2,1,1,6,0,0,-2,-1
1529297505028435,0,-1,1,-1,-1,-2,-2,-1
1529297505028435,-1,-2,-1,-1,1,0,1,1
1529297505034420,-1,-1,-2,-2,-1,-1,-1,1
1529297505034420,1,-1,-3,-1,-2,-1,2,-1
1529297505049379,2,1,3,2,0,0,1,0
1529297505049379,-1,-2,-2,-3,0,-1,-1,-1
1529297505056361,-1,0,-1,3,0,0,0,0
1529297505056361,-3,0,-3,-4,-2,0,-2,2
1529297505065338,-3,-1,-1,2,-2,-2,-1,-1
1529297505065338,0,0,1,0,-1,-2,-1,0
1529297505079299,0,1,1,3,0,1,0,-1
1529297505079299,-1,-1,4,4,0,-3,-1,-1
1529297505088276,0,-1,1,1,-1,0,-1,-2
1529297505088276,-1,-2,-9,-7,-1,1,-1,-1
1529297505094259,-1,-2,-3,-2,-1,0,0,0
1529297505094259,2,-2,-1,-3,0,1,0,0
1529297505109219,0,1,3,4,1,-3,0,-2
1529297505109219,-1,-1,1,0,-2,-2,0,-1
1529297505116201,-1,-1,-3,-4,-2,0,0,0
1529297505116201,-1,0,0,2,-3,0,0,-1
1529297505132158,-1,0,-4,0,-1,-1,0,-1
1529297505132158,1,0,0,-1,0,0,-2,0
1529297505139139,0,-1,0,-3,-2,-1,1,-2
1529297505139139,-1,-1,1,1,-1,1,-1,0
1529297505148116,-2,-1,2,8,0,-3,0,-2
1529297505148116,-2,1,-1,-10,-1,-1,0,-2
1529297505154100,-3,2,-1,1,-1,0,0,-1
1529297505154100,-2,-3,-3,-4,0,-1,-1,-1
1529297505169059,-2,-2,2,5,0,0,1,0
1529297505169059,1,1,-6,-7,0,0,0,1
1529297505177038,0,-1,2,0,-1,-1,-1,-3
1529297505177038,-1,0,-1,-3,0,-1,0,-1
1529297505191999,0,-1,0,1,-2,1,-3,-1
1529297505191999,-1,-1,3,8,1,0,-1,2
1529297505198980,0,-4,-8,-10,-2,-1,-1,0
1529297505198980,-1,0,0,-2,0,-1,-1,-2
1529297505207955,0,-1,1,-3,-1,1,0,-1
1529297505207955,-2,-2,0,0,-1,-1,0,-1
1529297505213938,-1,0,2,4,1,-1,-1,1
1529297505213938,0,-2,-3,-3,0,-1,-1,-1
1529297505228899,-1,-1,-4,-4,0,-1,-2,-1
1529297505228899,-1,0,0,3,-3,0,-1,-2
1529297505236878,-1,-1,-2,1,0,1,0,-2
1529297505236878,-2,0,0,-2,1,-2,-1,0
1529297505251838,1,-1,0,-2,-1,-2,-2,0
1529297505251838,0,2,3,6,-1,-1,-1,0
1529297505258820,0,-1,-8,-5,-1,-1,-1,1
1529297505258820,0,0,1,1,0,-2,-1,0
1529297505267795,-2,0,-5,-8,-1,1,-1,-1
1529297505267795,-2,-1,0,-2,-1,0,-2,0
1529297505273795,1,1,3,2,-1,1,-1,-2
1529297505273795,-1,0,-2,9,0,1,0,1
1529297505289744,-2,-2,1,-8,-1,-1,1,-1
1529297505289744,1,2,0,-1,0,-2,0,-1
1529297505296719,-1,0,3,3,-1,-3,0,0
1529297505296719,-1,-1,-5,-6,-3,0,-1,0
1529297505311679,2,1,0,5,-1,-1,-1,0
1529297505311679,-4,-3,-3,-2,0,0,1,-1
1529297505319656,0,0,-1,2,0,1,3,5
1529297505319656,-1,0,3,2,1,-4,-4,-8
1529297505328634,-2,-2,-11,-10,-2,-2,1,3
1529297505328634,0,2,2,1,0,0,-2,-6
1529297505334617,-1,-2,0,-2,0,1,0,1
1529297505334617,-1,-2,-2,1,1,0,2,2
1529297505349625,-1,1,2,-2,-2,-1,-1,-2
1529297505349625,-1,-2,-3,1,-1,-3,0,2
1529297505356599,-1,0,5,2,0,-2,-1,0
1529297505356599,1,1,1,1,-2,0,0,1
1529297505371683,-1,-2,-2,-1,-1,-1,-1,-3
1529297505371683,0,0,-1,-6,1,1,1,2
1529297505379833,0,-1,-1,2,0,1,-2,-4
1529297505379833,-2,-1,-1,2,-1,0,0,0
1529297505388820,1,0,2,4,0,1,0,-1
1529297505388820,-2,-1,-1,0,-1,-2,1,-1
1529297505394815,-2,-2,-2,-2,0,-3,0,-1
1529297505394815,0,-1,-1,-6,-1,1,7,6
1529297505409614,-3,-1,2,3,-1,-1,-10,-11
1529297505409614,-1,-1,0,-3,-1,0,0,1
1529297505424622,0,-1,-4,-2,-2,-3,-3,-3
1529297505424622,0,-1,-2,-2,-1,-1,1,1
1529297505431600,0,-2,-1,2,0,-1,0,2
1529297505431600,1,1,2,4,-1,1,0,-1
1529297505448502,-1,-1,1,3,-2,0,0,-1
1529297505448502,0,-1,-3,-5,-1,0,0,-1
1529297505449514,-1,1,1,0,0,-1,3,2
1529297505449514,-2,1,-2,0,0,-2,-1,-3
1529297505462465,1,1,1,-7,-2,0,-1,0
1529297505462465,2,1,1,2,0,-2,-2,-2
1529297505469610,0,-2,-2,-5,-2,-1,1,4
1529297505469610,0,-2,-4,2,-2,1,-4,-4
1529297505476427,-1,-1,1,1,0,-2,0,-2
1529297505476427,0,-1,-3,-4,-2,0,-2,2
1529297505491389,0,0,-1,4,2,-1,-2,-3
1529297505491389,0,-1,0,-3,0,-2,1,4
1529297505499505,-1,1,-1,0,0,-1,-1,-1
1529297505499505,-1,-2,3,9,1,-1,-4,-4
1529297505508342,0,0,1,0,-1,1,2,2
1529297505508342,0,-3,-7,-9,0,0,0,0
1529297505522303,2,1,4,2,0,-1,-3,-3
1529297505522303,-2,-1,-5,-6,-1,-1,1,2
1529297505529447,-1,-1,1,0,-1,-2,1,-1
1529297505529447,0,-1,1,2,1,-1,-2,-2
1529297505537294,-1,-2,-1,0,0,-1,3,0
1529297505537294,1,1,2,-1,1,-2,-3,-3
1529297505552343,-1,-2,-1,-3,-2,1,-2,0
1529297505552343,-1,0,-1,0,-1,0,-2,-1
1529297505559560,-1,1,0,-1,-1,-1,1,0
1529297505559560,-1,0,0,0,-1,0,1,1
1529297505568371,-2,0,1,-2,1,-1,-2,-5
1529297505568371,1,0,1,2,0,-1,3,1
1529297505582482,0,-2,3,3,0,-1,-2,0
1529297505582482,-3,-3,-12,-11,-1,-1,-2,-4
1529297505597645,0,1,-2,-4,-2,1,1,4
1529297505597645,-2,-2,1,0,-3,-2,-2,-1
1529297505598479,1,-1,1,-2,0,0,-2,-1
1529297505598479,0,-1,3,2,-1,-1,0,1
1529297505611481,-2,-1,0,-5,-1,-1,-1,1
1529297505611481,-1,0,-3,4,-1,0,1,-1
1529297505619588,-1,1,-2,5,-1,0,0,1
1529297505619588,0,0,3,2,0,1,-2,0
1529297505628399,0,0,0,1,2,-1,0,-2
1529297505628399,0,-1,0,-2,0,0,-1,0
1529297505642521,-3,-2,-6,-6,0,0,0,0
1529297505642521,-2,-2,-2,0,-2,2,-1,0
1529297505649501,0,0,1,1,-2,-3,-2,-2
1529297505649501,-1,-3,1,0,-1,1,7,8
1529297505657363,-3,-2,-1,2,-3,-4,-11,-12
1529297505657363,-1,1,-2,0,0,-3,-1,-1
1529297505671283,1,1,4,6,0,1,0,1
1529297505671283,0,0,-9,-16,-2,0,0,0
1529297505679263,-1,1,0,0,1,0,1,0
1529297505679263,1,-2,2,0,-2,-1,0,-3
1529297505688239,-1,-2,-3,1,-1,0,1,-1
1529297505688239,1,1,2,4,-1,-1,-3,-4
1529297505703236,1,0,2,3,1,1,2,1
1529297505703236,1,0,-1,-3,0,1,-1,0
1529297505709221,0,-3,-3,0,-1,0,-2,2
1529297505709221,0,-2,-1,-3,0,-3,-3,-1
1529297505717215,-1,2,0,-5,-2,0,1,0
1529297505717215,0,-2,-2,0,-2,0,0,2
1529297505732176,-2,2,-3,0,-2,-1,-2,-1
1529297505732176,-2,-1,3,3,1,0,-2,-3
1529297505739130,-2,-2,-2,0,-2,-2,0,2
1529297505739130,0,-1,-1,-1,-3,-3,2,3
1529297505754113,0,-3,-1,-7,-2,0,-8,-12
1529297505754113,-1,-3,-2,4,0,0,-2,-2
1529297505762095,-1,-3,-3,6,1,0,1,2
1529297505762095,0,5,7,1,2,2,-2,-2
1529297505777056,-2,-1,-1,0,-1,-1,1,1
1529297505777056,-1,-1,2,-1,-1,0,0,0
1529297505778011,0,-1,-2,-13,-1,0,0,-1
1529297505778011,1,-1,-7,3,-1,0,1,1
1529297505792018,0,0,4,3,1,-2,1,1
1529297505792018,-1,-4,2,3,0,1,-1,-2
1529297505798996,1,3,-3,1,-1,-2,2,3
1529297505798996,0,2,3,3,3,0,-2,-2
1529297505813903,3,3,3,-16,0,0,1,2
1529297505813903,-2,-2,0,9,-1,-3,-1,0
1529297505822878,-1,-4,-6,0,0,1,-1,0
1529297505822878,0,-2,7,-3,-1,1,0,-2
1529297505837838,-1,-1,-2,4,3,0,0,0
1529297505837838,2,5,8,-8,-2,-1,1,-1
1529297505837838,-2,-3,-12,-17,-4,0,1,-1
1529297505837838,-6,-5,-2,2,-2,-4,-3,-4
1529297505851855,-1,0,-1,8,0,-2,2,1
1529297505851855,0,2,-3,6,2,0,-1,0
1529297505858837,-2,-1,5,5,-2,-3,-3,-1
1529297505858837,-1,-8,-5,-11,-4,-1,-1,-1
1529297505874767,-1,3,-2,2,2,0,1,0
1529297505874767,-1,0,-2,2,-4,-1,0,-1
1529297505882718,3,7,6,-5,0,-1,-1,0
1529297505882718,2,5,-1,6,-1,-1,-1,1
1529297505897732,-2,-8,-3,-6,-1,-2,0,-1
1529297505897732,-3,-5,-3,8,5,1,1,-1
1529297505898724,1,0,-5,-5,-2,1,1,0
1529297505898724,-1,-2,6,9,2,0,-1,-1
1529297505911642,3,0,-4,-10,-7,-2,0,1
1529297505911642,-4,-5,-18,-8,-3,-2,-3,-3
1529297505919653,-1,-4,-2,1,-2,-1,-2,-3
1529297505919653,1,13,19,-3,-1,1,0,-1
1529297505934633,-2,-4,-6,2,-2,-2,-1,0
1529297505934633,0,-4,1,2,3,1,0,2
1529297505942614,-1,3,-2,-2,-1,-1,-2,0
1529297505942614,-1,-6,-10,-2,-5,-3,0,-1
1529297505957573,-5,-3,-1,-1,1,2,-1,-1
1529297505957573,2,3,2,-5,-7,-3,-3,-1
1529297505958517,1,-1,7,5,4,1,0,0
1529297505958517,-8,-8,-7,-7,-1,-1,-1,-4
1529297505971536,3,0,-7,-2,-4,-1,0,1
1529297505971536,5,4,12,5,5,3,2,0
1529297505979505,-1,-2,-9,-6,-4,-2,-1,-2
1529297505979505,0,0,16,0,1,-2,-2,-2
1529297505994420,-2,-3,-8,1,3,1,2,0
1529297505994420,-1,2,13,4,-5,-2,0,-2
1529297506002731,-5,-3,4,5,0,-2,0,-2
1529297506002731,0,-2,-4,1,7,3,1,1
1529297506025539,-2,-2,-2,-10,-7,-3,-3,0
1529297506025539,1,-4,-6,-9,-5,-1,1,1
1529297506026538,-1,-6,-4,2,0,0,-2,-1
1529297506026538,-4,-3,-10,-2,-2,-1,-3,-2
1529297506031547,5,3,13,13,-2,-1,-1,1
1529297506031547,-1,5,4,0,6,3,0,2
1529297506039529,4,0,-3,-18,-7,-3,-1,-1
1529297506039529,-2,1,-2,2,0,0,1,-2
1529297506054462,-2,0,-3,-6,2,0,1,-3
1529297506054462,1,-6,-3,-2,2,1,-1,0
1529297506062657,-1,0,-8,20,7,3,1,1
1529297506062657,5,3,2,-16,0,2,1,2
1529297506077653,1,2,1,7,-1,0,-2,0
1529297506077653,-6,-3,-1,-2,0,-2,-1,-3
1529297506078695,2,-2,5,0,-1,2,-1,1
1529297506078695,0,-2,-5,5,0,2,-1,0
1529297506091821,0,1,4,25,4,-1,0,-2
1529297506091821,0,-1,-10,-15,-2,-1,10,0
1529297506099800,4,2,8,21,3,-3,-8,1
1529297506099800,-2,-1,-11,-32,-15,-5,-5,-4
1529297506114760,-3,-3,-7,-18,-6,1,0,0
1529297506114760,3,3,-1,12,-2,-3,-8,-2
1529297506122801,-2,-1,3,-9,-4,-2,14,4
1529297506122801,2,3,8,29,4,0,-10,-5
1529297506137878,0,-1,-2,-10,4,2,-4,-1
1529297506137878,-4,-6,-11,-10,-8,-2,-4,-2
1529297506138798,-1,-1,3,3,-1,0,-1,2
1529297506138798,-8,-6,-6,-16,6,2,4,3
1529297506151864,6,6,7,3,-2,1,8,1
1529297506151864,-2,-2,-5,1,0,-3,-16,-5
1529297506159841,-4,-5,-2,9,-4,-3,-7,-4
1529297506159841,1,1,-2,-2,-6,-3,3,1
1529297506174815,0,-4,2,2,5,0,1,-1
1529297506174815,-5,-2,0,1,-2,0,1,-1
1529297506182995,0,0,-3,-4,-2,1,0,-3
1529297506182995,-1,-3,-4,3,5,-2,1,-3
1529297506197937,-6,-7,0,-3,0,-3,-3,-2
1529297506197937,4,7,5,11,-5,-1,11,1
1529297506198818,-2,-4,-2,-15,-1,0,-5,-1
1529297506198818,-1,-2,-4,-5,-1,1,2,2
1529297506211901,1,1,4,10,1,0,-4,0
1529297506211901,-4,-5,0,0,6,2,-1,-1
1529297506219817,2,1,1,-15,-3,0,6,0
1529297506219817,4,6,5,10,-7,-1,-2,2
1529297506234702,2,4,0,-2,-3,-1,-2,-1
1529297506234702,-2,-3,-3,-4,-12,-5,1,-1
1529297506242800,-2,0,-2,-11,2,1,-1,-1
1529297506242800,2,0,1,9,-3,-1,-3,0
1529297506257778,-4,-2,5,8,8,3,1,-1
1529297506257778,4,2,1,1,8,5,3,1
1529297506258634,-1,-2,2,10,-2,-1,0,-2
1529297506258634,0,-2,-4,-8,0,-1,-10,-3
1529297506271926,-2,-1,-3,-10,0,-2,0,-1
1529297506271926,-1,-1,3,-4,0,0,-4,-1
1529297506278902,1,1,-2,6,11,2,3,0
1529297506278902,2,1,-1,1,-2,-1,7,1
1529297506294845,-4,-3,-5,-17,-21,-9,-7,-4
1529297506294845,2,2,0,2,6,3,0,0
1529297506302989,0,-1,4,0,-3,-2,-3,-1
1529297506302989,-1,0,0,6,8,2,1,0
1529297506317941,-1,-5,-6,2,-3,-2,-2,0
1529297506317941,-1,-1,-2,-17,-9,-3,-1,0
1529297506318817,-2,-1,-1,3,-1,-1,-1,-1
1529297506318817,-1,0,3,3,3,-1,0,0
1529297506331916,-3,-5,-3,-4,-10,-5,-8,-2
1529297506331916,0,-1,-4,0,-2,0,-1,0
1529297506339743,-2,0,3,13,4,1,12,1
1529297506339743,-3,-5,-12,-29,-8,-6,-21,-6
1529297506354813,5,5,8,27,3,3,4,3
1529297506354813,-2,-1,0,-14,3,-2,-4,-1
1529297506362823,-1,-3,-10,-15,-6,0,8,0
1529297506362823,-4,-2,0,14,7,2,-10,-4
1529297506376988,-2,-1,6,19,13,3,1,-2
1529297506376988,1,1,6,-2,-6,-1,-4,-1
1529297506385176,0,-1,-4,-15,-3,-1,0,1
1529297506385176,0,-2,-5,-9,-8,-3,8,0
1529297506392151,2,5,3,3,5,2,-1,1
1529297506392151,3,1,-2,13,-15,-6,3,1
1529297506399131,-1,-1,-7,-26,-2,-3,-6,-4
1529297506399131,1,-1,-3,14,0,0,3,0
1529297506414093,-3,0,2,-1,3,1,1,-2
1529297506414093,0,-4,-5,-6,1,2,3,1
1529297506422911,2,1,3,14,3,-1,-5,0
1529297506422911,1,-1,3,3,4,1,4,-1
1529297506437076,0,0,-4,-10,0,-1,4,2
1529297506437076,-1,1,1,0,5,-1,-1,-3
1529297506445194,2,0,3,-4,-2,-1,-7,-2
1529297506445194,-2,-2,0,-1,-8,-3,7,3
1529297506452175,1,-2,0,3,-2,-1,8,0
1529297506452175,-5,-4,-8,-10,-9,-3,-5,-1
1529297506459216,-2,-1,-2,-6,0,-2,-10,-5
1529297506459216,-2,-2,-1,-6,-1,0,-2,-2
1529297506474335,2,1,-2,-14,-6,2,1,3
1529297506474335,0,0,3,7,4,1,3,1
1529297506482312,1,-1,0,8,-1,0,6,0
1529297506482312,-2,-1,2,4,2,-1,-2,-1
1529297506497279,-3,-3,-6,-5,3,0,0,0
1529297506497279,0,1,-1,1,9,4,1,-1
1529297506505252,-1,1,0,4,-6,-1,-7,-1
1529297506505252,2,2,2,10,-1,0,3,1
1529297506520418,0,0,-1,-18,-6,-3,-4,-1
1529297506520418,0,-1,-4,-5,3,-1,-1,1
1529297506521252,-2,-2,0,17,-2,-1,-1,-1
1529297506521252,2,1,1,-4,2,2,4,-2
1529297506534514,-1,0,-3,-5,-3,-3,-3,-2
1529297506534514,-1,-2,3,6,5,-2,-4,-2
1529297506542330,-1,0,1,-4,2,0,1,-1
1529297506542330,1,1,2,5,5,1,4,1
1529297506557326,0,-1,1,-2,-6,-1,3,0
1529297506557326,0,0,-1,-8,-5,-1,3,1
1529297506565411,1,1,-1,3,6,4,-12,0
1529297506565411,-4,-1,-2,0,-7,-3,0,-2
1529297506579762,0,-3,-4,-9,-3,0,-5,-1
1529297506579762,-2,-1,-2,2,-2,-3,4,1
1529297506580597,0,-1,3,7,4,0,6,1
1529297506580597,1,-3,-3,-16,3,1,-3,1
1529297506594716,-1,-1,0,5,0,-1,1,-1
1529297506594716,-1,-1,-1,-2,-5,-3,-4,-3
1529297506602694,-2,-3,0,3,1,-2,-2,-2
1529297506602694,0,1,5,-2,3,0,-1,-2
1529297506616658,-1,-3,-6,1,-4,-2,2,0
1529297506616658,0,1,1,8,7,3,-2,1
1529297506624479,-2,-1,-1,0,-7,-4,-2,-1
1529297506624479,2,-1,1,0,2,0,3,2
1529297506640436,-2,2,0,-5,-1,-1,-3,-2
1529297506640436,-2,-3,-2,-2,1,0,-3,-2
1529297506641437,-1,1,5,11,4,4,4,0
1529297506641437,0,-3,-2,-8,-3,-2,-1,0
1529297506654520,1,-1,-11,-5,2,1,-1,2
1529297506654520,-2,-3,-3,-12,-4,-4,0,1
1529297506662414,-2,-2,-5,-8,-3,-2,-10,-7
1529297506662414,-1,-1,4,9,7,3,8,1
1529297506676376,-2,1,4,8,3,0,4,0
1529297506676376,0,1,2,8,2,0,-17,-3
1529297506685491,0,-2,-5,-17,-5,0,12,3
1529297506685491,-1,-2,-6,-1,-7,-1,-13,-3
1529297506700675,0,0,3,3,1,-1,-2,0
1529297506700675,0,1,5,13,5,2,6,1
1529297506701646,2,-1,-1,-7,3,-1,-4,1
1529297506701646,0,-1,-6,-7,-3,-2,3,0
1529297506714612,-2,-3,1,5,0,0,1,-1
1529297506714612,-2,-1,6,17,0,0,0,-1
1529297506723588,2,-1,-9,-24,1,1,4,3
1529297506723588,1,2,0,5,1,-1,2,1
1529297506736556,-2,-4,-1,-9,-11,-5,-6,-4
1529297506736556,-2,-1,0,-3,2,-1,2,-1
1529297506745704,-3,0,-1,8,2,0,0,-1
1529297506745704,-2,-1,0,-1,-2,0,-3,-1
1529297506759798,0,1,4,3,8,2,-4,1
1529297506759798,2,-1,-4,-7,-5,0,2,-1
1529297506768642,-3,-2,-3,-12,-9,-6,-2,-2
1529297506768642,-2,0,-3,-7,-4,-3,1,0
1529297506774782,0,2,4,14,4,3,3,-1
1529297506774782,-1,0,1,-5,-1,0,0,0
1529297506790785,0,1,1,7,4,4,0,0
1529297506790785,0,1,2,0,-2,-1,-1,0
1529297506796923,-2,-1,-1,-2,-7,-4,-3,-2
1529297506796923,0,-2,-11,-19,-3,-2,17,5
1529297506805942,-3,-2,3,10,0,-3,-27,-8
1529297506805942,0,-3,-3,-6,-3,0,5,0
1529297506819068,1,1,-1,-2,0,1,3,2
1529297506819068,-1,-2,2,6,0,0,-4,-2
1529297506828018,0,-1,-2,1,-2,-1,7,1
1529297506828018,-1,-1,-2,2,-1,-2,-2,-2
1529297506834869,2,1,-1,-7,-3,-3,-8,-2
1529297506834869,0,1,1,-5,1,-2,-4,0
1529297506842892,-1,-2,0,0,-2,1,9,2
1529297506842892,-2,0,1,11,0,0,0,-1
1529297506856808,-2,0,-3,-4,1,1,4,2
1529297506856808,-3,-2,-1,-2,3,1,-6,-4
1529297506865782,-2,-2,0,2,-1,-2,-3,-2
1529297506865782,2,0,2,11,1,1,0,-3
1529297506879072,-2,0,-5,-15,-1,-1,5,4
1529297506879072,0,1,-3,2,-3,-2,1,-6
1529297506888030,2,1,1,3,4,2,-1,1
1529297506888030,-4,-1,3,8,1,-1,-1,-2
1529297506894051,2,-4,-1,-3,-3,-1,-1,2
1529297506894051,0,0,1,7,3,0,1,2
1529297506903017,-2,-2,-3,-5,-9,-2,3,3
1529297506903017,0,1,-1,-7,1,-1,-5,-1
1529297506916853,1,-1,3,6,-1,-1,1,-3
1529297506916853,1,1,0,-9,-1,1,-1,2
1529297506925808,1,-1,-2,4,-1,-2,-4,-1
1529297506925808,1,0,0,-1,5,2,3,3
1529297506939821,-1,-2,-2,1,-3,-2,-1,-3
1529297506939821,-3,-2,2,0,-4,-2,-2,-1
1529297506947927,-2,-1,-1,0,-1,-2,3,0
1529297506947927,0,0,-1,-4,1,-2,-2,0
1529297506954068,0,0,-1,1,3,1,-4,-2
1529297506954068,-2,-1,-3,-1,-2,2,-2,0
1529297506962992,0,0,-1,-5,-2,-1,1,0
1529297506962992,-2,0,-2,-2,-2,-1,-2,0
1529297506977300,-2,-1,0,1,0,-1,-4,-3
1529297506977300,0,-3,-2,-1,-3,-4,-2,-1
1529297506986309,0,-2,2,2,2,1,1,0
1529297506986309,-1,-2,0,-2,-2,-1,-1,0
1529297506999310,-1,-1,1,4,6,2,-1,-1
1529297506999310,-2,-2,-2,0,-5,-2,-3,0
1529297507008129,-2,0,0,2,-3,0,1,1
1529297507008129,-1,0,-2,-4,-2,1,0,0
1529297507014115,0,0,-2,0,-1,-1,-1,1
1529297507014115,0,2,1,3,1,0,-1,0
1529297507031067,-1,-1,-2,1,0,-1,-1,0
1529297507031067,1,0,-1,-3,-3,0,-1,0
1529297507037107,-2,-2,1,3,0,0,-1,-1
1529297507037107,1,0,-2,-5,-4,-4,0,-2
1529297507046034,0,-1,2,1,0,-2,1,-1
1529297507046034,0,2,-1,0,-1,0,0,-2
1529297507058994,0,-2,-2,-2,-1,2,-2,-1
1529297507058994,-1,-2,0,1,0,-1,-2,0
1529297507068007,-1,-4,0,1,2,0,2,0
1529297507068007,-3,0,-4,-2,-3,-1,-1,-2
1529297507073955,0,2,-2,-4,-4,-4,0,0
1529297507073955,-2,-1,0,0,2,1,0,1
1529297507082930,1,0,-3,-1,-1,-2,-1,-1
1529297507082930,0,-3,-2,0,-1,-2,1,-1
1529297507096892,-2,-2,-2,-1,0,0,1,-1
1529297507096892,0,1,-2,0,1,0,-1,-3
1529297507105868,0,0,-2,-2,-2,0,1,0
