timestamp,emg1,emg2,emg3,emg4,emg5,emg6,emg7,emg8
1529304670481035,-3,-2,0,-1,-4,-1,1,0
1529304670481035,-4,-1,3,1,4,2,-3,-6
1529304670482032,6,2,6,-3,-2,0,0,6
1529304670482032,2,2,3,-2,-4,-4,-4,-4
1529304670483030,-1,-1,0,-1,-2,-2,0,-1
1529304670483030,0,-1,-1,-2,0,0,0,0
1529304670484027,-3,-2,-2,1,-1,-2,-3,-6
1529304670484027,-3,-4,-5,-2,-1,0,0,-1
1529304670494003,0,0,-4,-1,-1,2,0,-5
1529304670494003,0,1,-5,-1,-2,-1,1,7
1529304670496994,-1,-2,-6,-1,-1,-3,-1,-3
1529304670496994,-3,-1,-3,-1,-1,-4,-5,-2
1529304670511953,2,0,-4,-1,0,-3,-2,1
1529304670511953,1,0,-2,-1,-1,-3,-1,-1
1529304670522923,-1,1,-3,0,-1,0,-1,3
1529304670522923,-3,-2,-6,-1,-2,0,1,-3
1529304670527909,0,-1,-1,1,1,1,0,0
1529304670527909,0,-1,-4,-2,-4,-2,-1,-3
1529304670551845,-2,-2,-1,0,-2,0,0,0
1529304670551845,-3,-2,-1,-1,1,1,1,-2
1529304670580767,-3,-1,-2,-2,-2,-1,-2,-1
1529304670580767,0,-1,0,0,1,0,-2,-1
1529304670588747,-3,-2,-2,0,-1,-4,-1,-1
1529304670588747,3,0,0,0,0,-1,0,0
1529304670589744,-1,-1,-2,-4,-3,-3,-2,0
1529304670589744,-2,-1,-1,0,-3,-2,-3,-6
1529304670591739,-1,-1,-1,0,-3,1,1,4
1529304670591739,-2,-2,-1,-1,-2,-4,-1,-2
1529304670601713,-1,-1,1,-1,0,0,-2,-4
1529304670601713,-2,-2,-2,-3,-3,0,1,-1
1529304670610688,0,-1,-1,-3,-1,-1,0,-2
1529304670610688,-3,-2,-2,-1,-2,0,-2,-3
1529304670616673,1,-2,-1,1,-1,-1,2,-1
1529304670616673,-1,-2,0,0,1,0,-4,-4
1529304670631632,-1,-1,0,0,2,-1,-1,1
1529304670631632,0,-1,-1,-1,2,1,-2,0
1529304670639610,2,1,-1,-3,-1,-2,0,2
1529304670639610,1,-1,-3,-2,-6,-4,-1,1
1529304670654570,1,0,0,-1,6,3,2,-1
1529304670654570,1,-1,-1,-1,-4,-4,-2,-1
1529304670661552,-2,-2,0,1,1,1,0,1
1529304670661552,-2,-2,-2,-3,1,-2,2,3
1529304670678508,-1,1,-2,0,-1,-3,-7,-5
1529304670678508,0,0,0,-2,0,0,-2,1
1529304670678508,1,0,-2,0,0,0,-2,-4
1529304670678508,1,0,1,-2,-1,1,2,-1
1529304670699451,-1,-2,1,-3,1,1,-2,-2
1529304670699451,-3,-2,-1,-2,-2,-1,-3,-4
1529304670700448,1,-1,-2,-1,-1,-1,-2,-1
1529304670700448,-2,-1,-1,1,-1,-1,0,0
1529304670722389,0,-1,0,0,-2,-1,0,-4
1529304670722389,-1,-1,0,-1,0,0,1,1
1529304670723387,-2,1,-2,-1,-2,-3,-3,-1
1529304670723387,-1,-1,-2,-1,-1,0,-2,0
1529304670737349,-2,-1,-1,-1,-2,-3,-3,-1
1529304670737349,-1,1,-1,1,-1,-1,0,0
1529304670738347,-2,1,-1,-2,2,2,1,1
1529304670738347,-1,1,-1,-1,1,-1,0,1
1529304670760314,-2,-2,-3,-1,-3,0,-1,1
1529304670760314,-2,-2,-2,-2,1,0,0,-2
1529304670760314,2,-1,-1,1,0,-1,-1,4
1529304670760314,-1,1,0,-2,1,-2,-3,-2
1529304670782276,-1,-1,-1,-3,-3,0,-1,-2
1529304670782276,-2,-3,0,-1,-1,-1,1,-1
1529304670783227,-3,-2,0,0,-3,-1,-4,-4
1529304670783227,-2,-1,0,-1,3,1,0,-2
1529304670797189,0,-1,-1,0,-2,-1,0,0
1529304670797189,-2,-1,-2,-1,-2,0,-1,-1
1529304670798186,0,0,-1,-2,-2,-1,1,-1
1529304670798186,0,-1,-1,-1,-4,-2,-1,-2
1529304670820169,-2,-2,-2,-2,-1,-2,1,-2
1529304670820169,0,1,0,-5,-3,-3,-2,-1
1529304670821176,1,1,2,0,0,-2,-1,0
1529304670821176,-2,-1,0,0,-1,-1,3,0
1529304670842069,-1,-1,0,-2,-2,0,0,-1
1529304670842069,-1,-2,-1,1,0,0,-2,0
1529304670843067,-2,-1,-3,-2,-1,-1,1,-3
1529304670843067,0,-1,-2,-2,-1,0,-2,-3
1529304670857081,-1,-3,-1,-1,2,-1,0,1
1529304670857081,0,2,-1,-1,0,1,2,2
1529304670858028,-1,-2,0,-2,-1,-1,-3,-4
1529304670858028,2,0,-1,0,-2,-2,1,1
1529304670879985,-1,-1,-2,0,-4,-3,-3,-3
1529304670879985,-1,-4,-1,-1,-3,-1,0,-4
1529304670880966,-1,-1,0,-1,1,-2,-4,-2
1529304670880966,-1,-2,-1,-1,-3,-1,-2,0
1529304670901909,-1,-1,-2,-2,1,-1,-3,1
1529304670901909,-2,1,0,-1,2,-1,0,-1
1529304670902906,-1,-2,-1,-1,-1,-1,2,-1
1529304670902906,-3,-1,0,-1,1,0,-3,-4
1529304670916869,0,1,-1,-1,0,0,-1,-2
1529304670916869,-1,-1,-2,-1,-1,-1,1,0
1529304670917866,-3,-3,-2,-2,-1,-1,0,0
1529304670917866,-1,0,0,2,-1,-1,-2,-2
1529304670939808,0,0,1,-2,1,0,0,1
1529304670939808,-1,-1,0,-1,-1,0,-1,0
1529304670940806,-2,0,-1,-2,-2,0,1,0
1529304670940806,-1,-2,-2,-3,0,-2,-1,-2
1529304670962747,0,0,-1,-2,-2,-2,1,1
1529304670962747,-2,-1,-3,1,1,-1,-4,-3
1529304670962747,2,0,-1,0,-3,-1,-2,0
1529304670962747,-2,-2,-1,-2,-1,-2,1,0
1529304670977708,0,0,-2,1,-4,-2,0,-2
1529304670977708,-2,-2,-1,-2,1,1,-1,3
1529304670977708,-3,-1,0,0,0,-2,-2,-3
1529304670977708,-2,0,1,-1,-2,-2,-2,-2
1529304670999648,-1,-2,-2,-2,0,-1,1,-1
1529304670999648,-1,-1,-2,-1,-2,-2,-1,-2
1529304671000645,-1,-2,-2,-1,-2,0,-2,0
1529304671000645,-1,-2,-1,-2,-2,0,-2,-1
1529304671022587,0,-1,0,-1,-1,1,-2,-2
1529304671022587,1,-1,0,0,-1,-1,-4,-3
1529304671023584,-3,-1,-1,-2,-2,-3,-2,-2
1529304671023584,-1,-1,1,0,-2,0,1,-2
1529304671037547,-3,-1,-2,0,2,0,-2,-2
1529304671037547,0,-1,-2,0,1,-1,-2,-3
1529304671038557,-1,-2,-2,-2,0,2,0,1
1529304671038557,0,-2,-3,-3,-1,-2,-2,3
1529304671059530,-3,-3,-1,1,0,-1,0,-3
1529304671059530,1,-1,-1,0,-4,-3,-1,-2
1529304671060486,0,-2,-2,0,0,-1,0,-3
1529304671060486,0,-1,-2,0,-1,-2,-3,-2
1529304671083425,-2,-2,-1,1,-3,-1,-2,-1
1529304671083425,0,0,-1,-3,0,-1,0,0
1529304671083425,-1,-2,-2,-2,-1,-1,0,1
1529304671083425,-2,0,-1,-1,2,-2,0,0
1529304671097386,-1,0,0,-2,1,0,-2,-1
1529304671097386,-3,-3,-1,0,-1,-2,1,-2
1529304671098384,0,-1,0,-1,-2,-2,-2,-1
1529304671098384,-1,-1,-1,-2,0,1,-1,2
1529304671120338,-2,-1,-1,-2,-3,-3,-4,-5
1529304671120338,-2,-3,-2,-3,-3,0,0,3
1529304671120338,-3,-1,-1,-2,-3,-2,-4,-3
1529304671120338,-2,-1,0,-1,-3,-1,-1,-3
1529304671143309,0,0,-1,-1,-1,-3,0,-1
1529304671143309,0,-1,-1,0,0,-1,0,-2
1529304671144300,-3,0,-2,-1,0,-1,-2,-2
1529304671144300,-2,-1,-2,0,-1,-1,-1,-1
1529304671157265,1,-1,0,-1,-3,0,-1,0
1529304671157265,1,0,1,0,-1,1,-1,0
1529304671158230,-1,-1,1,2,-1,0,1,-1
1529304671158230,1,0,0,0,0,0,0,0
1529304671180165,-1,-3,-4,-2,-1,-3,1,0
1529304671180165,0,-1,-1,-3,-1,-1,-1,-2
1529304671180165,0,0,-1,-1,1,-1,-1,-2
1529304671180165,-2,-2,-1,0,0,0,0,-1
1529304671203107,-1,0,-1,-3,-1,0,-1,-1
1529304671203107,-1,0,-1,-1,-3,-2,-2,-2
1529304671204103,-3,-4,-3,-4,-1,0,-2,-7
1529304671204103,0,-2,0,-2,-3,-2,2,3
1529304671217113,2,0,0,-2,-2,-1,-4,0
1529304671217113,-1,0,-1,-1,-4,-4,-5,-2
1529304671225047,0,0,-1,-1,1,-3,0,3
1529304671225047,-1,-3,-1,-2,-1,-1,-1,-4
1529304671240187,-2,-2,-1,1,-1,-1,2,-1
1529304671240187,0,0,1,-1,-1,-2,-3,0
1529304671241003,1,-2,-3,1,0,0,3,3
1529304671241003,-3,0,-1,-2,-1,-1,-3,-2
1529304671262967,1,-1,0,1,-2,-1,0,1
1529304671262967,-1,-1,-1,-1,-1,1,1,-1
1529304671263942,2,0,0,0,-1,1,-1,0
1529304671263942,0,0,0,1,1,0,-2,0
1529304671276959,-2,-1,0,-2,-2,-1,-4,-2
1529304671276959,-2,0,-1,-1,-2,-3,-1,-2
1529304671284893,-2,-1,-1,-1,-2,0,-1,-1
1529304671284893,0,-2,-1,-3,-5,-4,-3,-3
1529304671299847,0,0,1,1,-2,-1,1,4
1529304671299847,-1,0,-2,-1,0,0,0,0
1529304671300843,-2,-1,0,-2,-2,-2,-4,0
1529304671300843,-2,0,-3,0,-2,1,-2,-5
1529304671322838,-4,-1,-1,-1,2,0,-1,-3
1529304671322838,-2,-3,-1,2,1,2,1,-1
1529304671323783,2,1,-2,0,0,0,-1,-2
1529304671323783,1,-1,0,-1,2,0,1,0
1529304671337000,1,-1,-3,-2,-3,-5,-5,-5
1529304671337000,1,-1,-1,-2,-2,-3,0,0
1529304671344966,-3,-4,-1,-1,0,-1,-1,-2
1529304671344966,-1,-3,-2,1,0,-1,-3,-8
1529304671359721,0,-1,-1,-2,-1,-1,3,7
1529304671359721,-3,-3,-2,-4,-4,-5,-7,-3
1529304671360683,4,3,-1,-1,-2,0,2,2
1529304671360683,-3,-1,-2,-1,-1,-2,-2,0
1529304671382669,-1,-1,-2,0,-1,-1,-1,-5
1529304671382669,-2,-2,-2,-1,0,1,0,-1
1529304671383623,-3,-2,-1,-1,0,0,-1,0
1529304671383623,0,-1,-3,1,-2,0,1,0
1529304671396841,-2,-3,-2,-1,7,3,1,-3
1529304671396841,-1,-2,-2,1,-2,-2,-4,-1
1529304671405099,0,0,0,-1,-2,-3,-1,-1
1529304671405099,1,0,0,1,1,-1,1,0
1529304671420523,2,-2,-3,-3,-4,-1,-1,1
1529304671420523,-1,-1,-1,0,0,2,2,-2
1529304671420523,-3,-1,0,-2,2,-1,-1,-1
1529304671420523,-1,-1,-2,-2,-3,0,-2,-3
1529304671443756,-3,-4,0,-1,-2,-1,-6,-7
1529304671443756,1,0,-2,-2,0,-4,1,3
1529304671443756,0,-3,0,0,-2,-2,-3,-1
1529304671443756,1,0,0,0,0,-3,-2,0
1529304671465674,-5,-3,-1,0,-3,0,-1,-4
1529304671465674,0,-1,-1,1,0,4,1,-2
1529304671466449,0,0,-2,-1,-3,-1,0,-3
1529304671466449,0,-1,-1,-3,0,0,-2,0
1529304671479653,1,1,-3,0,0,-2,-1,0
1529304671479653,-3,1,-2,-2,0,-2,-2,0
1529304671480431,-1,-2,-3,1,-2,0,2,2
1529304671480431,-3,0,0,-1,-2,1,-3,-2
1529304671503649,-1,1,0,-3,-1,-4,-1,1
1529304671503649,1,-1,-2,-1,-4,-1,1,-2
1529304671504684,0,0,0,0,3,-1,-2,-3
1529304671504684,0,-2,-1,0,0,0,0,-1
1529304671517327,-1,-1,-1,-1,-1,-2,1,-1
1529304671517327,0,0,-2,1,1,-3,-1,-5
1529304671525302,-4,-2,-2,-2,-1,-2,-3,0
1529304671525302,2,-1,0,-2,-2,-2,-2,2
1529304671540478,-3,0,-2,-1,-1,0,3,0
1529304671540478,-1,-2,-1,-1,-2,-2,-6,-1
1529304671540478,-3,-2,-2,-2,-4,-2,0,-3
1529304671540478,-1,1,-2,1,0,-2,0,0
1529304671562937,0,3,0,0,1,0,0,0
1529304671562937,-1,-3,0,-1,0,-1,2,0
1529304671569952,-2,0,-1,-3,-2,-1,0,-2
1529304671569952,-1,-1,-1,-1,-1,-1,-1,1
1529304671585892,-2,-1,-2,-1,-3,-2,-4,-1
1529304671585892,-3,-3,-1,1,-1,0,0,-2
1529304671587545,0,0,2,-1,2,0,2,0
1529304671587545,-1,-2,0,-2,0,0,0,-1
1529304671608489,-1,0,0,0,-1,1,-2,0
1529304671608489,-2,-1,-1,-1,2,0,-3,-1
1529304671610482,0,0,-2,-1,-3,-4,-2,-2
1529304671610482,-3,-2,-2,2,3,-3,-1,-3
1529304671622453,1,-2,-2,-4,-2,-2,0,-2
1529304671622453,2,2,-3,-1,1,1,0,1
1529304671629915,-2,-3,-2,-1,-5,2,-1,0
1529304671629915,-3,-3,3,6,-1,0,-2,-1
1529304671645593,2,2,2,-3,-5,-4,-1,-1
1529304671645593,-2,-3,-3,-19,-21,-5,0,0
1529304671647536,1,0,5,36,45,10,3,1
1529304671647536,-2,0,-8,-10,-10,-9,-1,-2
1529304671668481,-2,-6,-2,-3,-2,4,2,1
1529304671668481,-1,0,1,-7,2,-2,-2,-2
1529304671669484,-1,-1,-2,-5,-7,1,-2,-2
1529304671669484,-3,-3,3,15,17,3,-1,0
1529304671681446,0,0,-2,1,-3,-5,-3,-3
1529304671681446,0,-1,-2,-5,-7,-3,-1,-1
1529304671690421,-2,-3,-5,-12,-11,-10,-3,-2
1529304671690421,0,-2,-4,-8,-15,-4,-1,0
1529304671705434,-2,1,0,1,3,2,-1,0
1529304671705434,-1,-1,6,11,13,7,5,1
1529304671707375,0,0,-1,-1,-1,-1,-3,0
1529304671707375,-1,-1,-3,-6,-1,3,-1,-1
1529304671728366,-4,-4,-2,-3,-10,-9,-6,-3
1529304671728366,7,2,-4,2,-6,-7,-3,-1
1529304671729362,-1,-3,-5,-8,1,0,1,-1
1529304671729362,1,1,-1,-3,-4,-1,-2,-3
1529304671741302,-1,-1,2,3,5,4,0,0
1529304671741302,-3,-2,-4,0,8,5,-1,-5
1529304671750306,-1,-2,2,-4,-13,-13,-15,-1
1529304671750306,2,-2,-7,-7,-3,5,21,1
1529304671765265,-2,1,0,1,5,5,0,-1
1529304671765265,-3,-1,-3,-2,-2,0,3,-1
1529304671767215,0,3,1,-3,-12,-5,-2,1
1529304671767215,-5,0,3,2,-3,-2,-4,-3
1529304671788216,0,-3,-2,-3,10,4,2,1
1529304671788216,1,1,4,3,4,-5,-4,1
1529304671790200,-3,-2,2,-2,4,4,-1,-6
1529304671790200,-1,-1,1,-2,-3,-3,-1,-2
1529304671802178,0,1,-7,-6,-10,-6,3,0
1529304671802178,0,1,14,16,5,-1,-14,-4
1529304671811153,0,0,-13,-6,0,1,9,1
1529304671811153,-1,-2,-1,-1,0,-3,-5,1
1529304671825086,-2,-3,-4,-4,-3,-2,-3,-3
1529304671825086,-2,-2,-7,-7,-8,-4,4,1
1529304671827055,-2,0,4,1,-8,-2,-3,-5
1529304671827055,4,3,-1,3,5,2,-6,0
1529304671848025,-3,-1,-1,1,5,1,-3,-2
1529304671848025,-2,1,4,6,-1,-8,-9,-2
1529304671849993,-1,-2,-5,-5,-6,1,6,-1
1529304671849993,-3,0,2,-1,3,8,6,-3
1529304671862001,4,1,-4,-1,-5,-4,-4,-1
1529304671862001,3,1,3,1,-3,1,1,6
1529304671870937,0,-2,0,-2,-5,-11,0,-3
1529304671870937,-3,-2,0,0,-2,-1,0,-1
1529304671885953,0,0,6,5,-1,1,-2,-3
1529304671885953,-4,-1,-11,-6,7,5,-8,-4
1529304671886896,1,2,5,6,5,10,20,6
1529304671886896,-3,-4,-6,-2,-7,-14,-17,-2
1529304671907858,-1,-2,-2,-2,-6,3,11,-1
1529304671907858,-2,-2,-17,-7,-1,1,-2,1
1529304671909834,-2,0,-4,0,-6,-8,-10,-4
1529304671909834,1,-2,-6,-4,1,1,-3,-2
1529304671921856,-1,0,8,1,2,0,-3,1
1529304671921856,-3,-3,5,-1,-3,-3,2,-3
1529304671930784,3,-2,5,2,5,0,-2,0
1529304671930784,-1,-4,-2,-5,-6,-2,2,1
1529304671944739,-1,-2,-1,-2,0,-2,-6,0
1529304671944739,0,-2,4,-5,-7,-6,1,-1
1529304671951766,-3,-3,5,7,-2,-3,-6,-2
1529304671951766,0,-4,-5,1,5,3,-3,-1
1529304671968778,-3,-2,-2,-4,2,-1,7,1
1529304671968778,-2,-2,-5,-4,1,4,4,-2
1529304671969673,2,1,-3,-11,-5,0,-4,0
1529304671969673,-2,1,6,3,-4,1,-6,-4
1529304671981913,-2,0,-5,1,-2,-3,-4,-3
1529304671981913,1,5,6,3,1,0,4,3
1529304671990656,-2,-2,-3,-3,-1,-3,-7,1
1529304671990656,0,-1,-2,-3,1,1,-1,-2
1529304672005610,1,2,1,0,-3,-5,-3,3
1529304672005610,-2,-4,-3,4,0,-4,-2,-2
1529304672011822,-3,-1,-11,-7,-3,5,3,0
1529304672011822,-3,0,7,11,4,-1,1,0
1529304672028571,0,-1,6,0,-7,-3,-5,-2
1529304672028571,-1,-4,4,7,15,4,-1,0
1529304672029514,-4,-5,-7,-4,-8,-6,-5,-5
1529304672029514,-2,-2,-7,-12,-3,-4,2,1
1529304672042482,-2,-2,-4,-5,2,4,3,0
1529304672042482,1,-4,2,-3,-8,-3,2,0
1529304672050674,-3,-4,-3,5,3,2,-2,-3
1529304672050674,0,-1,0,-3,0,-1,0,0
1529304672065628,0,0,3,9,1,-2,-3,-2
1529304672065628,-4,-3,-7,-9,-8,-3,-4,-4
1529304672071401,-1,1,1,-2,3,1,-1,0
1529304672071401,-2,-4,-7,-8,-10,-8,-5,-1
1529304672088622,-1,-5,-2,3,4,2,1,-1
1529304672088622,-1,1,11,7,-6,-1,-1,-2
1529304672089559,-2,-7,-20,-13,-7,-4,-2,-3
1529304672089559,1,0,8,7,7,3,3,4
1529304672101886,-1,-1,-5,-6,-1,-1,-3,-5
1529304672101886,1,0,0,1,4,4,2,2
1529304672110378,-2,-4,6,8,0,1,-2,1
1529304672110378,3,4,7,0,-8,-5,-2,-2
1529304672125401,-3,-12,-15,-3,8,0,-2,-2
1529304672125401,-1,-3,-4,-5,4,-2,-4,-3
1529304672131588,0,-3,-2,-10,-9,0,10,-2
1529304672131588,-3,-1,-1,-1,1,-1,-3,-1
1529304672148284,-1,-3,-4,-6,-14,-3,-1,-2
1529304672148284,1,4,0,-3,-5,-3,-2,-1
1529304672149277,-2,0,-7,-5,2,-1,-5,-4
1529304672149277,0,0,-1,1,-3,0,-1,2
1529304672171424,-2,3,-1,0,-3,-1,2,1
1529304672171424,-5,-8,-7,0,-2,-1,-3,-2
1529304672172216,1,6,8,-1,-2,-3,-2,1
1529304672172216,2,0,1,4,8,2,2,-2
1529304672185444,0,0,3,4,2,-2,-3,0
1529304672185444,2,0,-5,-1,-1,0,1,-3
1529304672192435,2,3,15,20,7,2,-2,1
1529304672192435,-1,2,-2,-6,-5,-1,-1,-3
1529304672208120,0,-1,-5,-9,2,2,3,3
1529304672208120,-2,-2,-12,-9,-12,-3,0,1
1529304672210114,1,0,-2,1,10,4,3,-1
1529304672210114,-1,2,4,3,1,-3,0,2
1529304672231025,-1,-2,0,-1,-12,-6,-6,-3
1529304672231025,0,-1,3,2,8,2,0,0
1529304672232683,-1,1,2,-4,-5,-5,-6,0
1529304672232683,-1,-4,-12,-16,-14,-7,-5,-3
1529304672244910,2,5,7,4,3,4,9,0
1529304672244910,-2,-1,0,0,1,0,-1,-2
1529304672251884,-2,0,-4,-4,2,3,1,-1
1529304672251884,0,-1,6,7,8,3,0,-4
1529304672267613,-2,-5,-3,-1,-2,-5,-6,0
1529304672267613,-1,-1,-9,-17,-14,-7,-6,-4
1529304672275881,0,3,11,8,4,3,3,2
1529304672275881,-4,-4,-2,0,-1,-1,2,-2
1529304672290579,0,-2,-6,-5,3,0,-4,-3
1529304672290579,1,3,3,9,-3,-2,3,1
1529304672292235,3,4,1,-11,-6,-1,-3,1
1529304672292235,-2,-3,-3,-1,4,4,0,-3
1529304672304622,2,0,4,1,-2,-2,-1,-3
1529304672304622,-1,2,-1,4,9,-3,-10,2
1529304672313163,1,6,12,6,4,1,9,-1
1529304672313163,-4,-6,-12,-5,-9,-1,-1,-2
1529304672328463,-1,-1,1,3,2,2,3,-1
1529304672328463,0,3,13,5,5,0,-1,2
1529304672330117,-3,-7,-17,-3,3,1,-7,-2
1529304672330117,1,5,9,-1,5,-1,3,2
1529304672351288,-7,-11,-17,-6,-14,-5,-2,-4
1529304672351288,-2,-4,-9,-13,-3,-1,4,-3
1529304672352300,-2,-5,-2,2,-7,-2,-3,0
1529304672352300,0,3,2,-2,0,-2,-4,0
1529304672364275,-1,-1,-3,-7,-5,-6,-6,-3
1529304672364275,-1,-2,1,6,6,5,2,-2
1529304672373232,-1,0,-1,-3,-7,-6,2,3
1529304672373232,2,2,1,-2,-1,3,0,-1
1529304672388498,0,4,1,5,4,1,-2,1
1529304672388498,1,-2,-4,-5,-2,-1,-1,-3
1529304672389534,1,-4,-2,-2,1,-2,-4,-5
1529304672389534,-3,-1,2,7,-1,0,2,14
1529304672410660,9,4,15,6,5,-1,1,0
1529304672410660,-3,-1,4,3,-5,-3,-6,0
1529304672412415,-3,-13,-22,-13,-1,2,1,-8
1529304672412415,1,1,-2,7,1,-4,-4,-2
1529304672424392,-7,1,2,-3,-5,0,1,-4
1529304672424392,10,5,1,-3,-6,-4,5,1
1529304672433359,-18,-1,10,10,0,-3,-7,-6
1529304672433359,1,-4,-3,-5,6,-2,1,-4
1529304672448319,-5,-2,-5,-10,-2,-1,-1,2
1529304672448319,-2,-1,0,2,1,2,0,-2
1529304672449316,3,-2,-1,-2,-2,-1,8,6
1529304672449316,-1,-2,2,4,2,6,-1,-5
1529304672471385,3,3,3,0,-5,-8,-15,-3
1529304672471385,-15,-10,-8,-6,-8,-8,2,-5
1529304672472275,0,-1,0,0,-4,-7,-8,8
1529304672472275,9,1,-4,-4,-3,-3,0,1
1529304672484223,2,0,-3,1,4,6,6,5
1529304672484223,-2,2,0,0,0,2,-3,-1
1529304672493532,0,0,-1,-1,-3,1,2,-8
1529304672493532,2,-2,5,4,-1,-2,-5,1
1529304672507893,-11,-3,-9,-3,1,1,7,-4
1529304672507893,2,-3,-10,-2,-1,-3,-1,3
1529304672509851,-6,-9,-12,-3,-2,2,0,-6
1529304672509851,4,3,6,-1,-1,-2,-1,-2
1529304672531054,1,-3,-3,1,1,-3,-5,0
1529304672531054,-6,0,2,1,-2,2,1,-2
1529304672532063,10,6,4,-2,1,-1,-3,3
1529304672532063,-6,-2,-7,-7,-4,-4,-3,-4
1529304672543763,-1,6,15,7,3,2,-1,1
1529304672543763,3,3,7,7,6,3,-2,-2
1529304672553736,6,-2,-1,-10,-6,-3,-1,2
1529304672553736,-9,2,14,10,0,-3,3,-2
1529304672568894,0,-5,-16,-9,-5,-3,-6,0
1529304672568894,3,-1,4,4,-7,-4,-5,-3
1529304672569692,0,6,7,12,11,5,-1,0
1529304672569692,-3,-1,0,-6,1,1,-1,-1
1529304672590804,4,14,22,7,4,5,4,2
1529304672590804,-3,-19,-28,-16,0,-3,0,-4
1529304672592679,2,0,-5,-6,-5,2,11,-5
1529304672592679,-18,-3,0,-1,-5,-6,-6,8
1529304672604868,7,-2,-1,2,-3,-4,-1,-6
1529304672604868,2,11,21,10,-2,-2,6,1
1529304672613573,-14,-13,-19,-15,-5,1,2,-10
1529304672613573,1,-8,-14,-5,0,-2,10,22
1529304672628087,-7,-5,-5,-4,-3,5,-1,-20
1529304672628087,2,-1,-1,0,-4,-2,-11,-7
1529304672629819,6,-1,-8,-5,-2,2,3,14
1529304672629819,2,6,4,-4,-9,-14,-20,-14
1529304672651024,-4,-5,-4,-3,-3,-5,12,6
1529304672651024,-8,-15,-24,-12,0,4,3,-4
1529304672652978,-2,5,16,13,1,-8,-18,-5
1529304672652978,-3,-6,-18,-10,-6,-5,-8,-1
1529304672664764,6,-3,3,9,5,-6,-6,3
1529304672664764,-2,8,14,3,2,7,0,-9
1529304672673906,7,-7,-14,-5,-1,1,4,14
1529304672673906,-14,-13,-13,-2,1,0,-16,-18
1529304672688844,6,-3,-11,-7,-3,6,24,16
1529304672688844,10,20,29,11,4,3,-1,7
1529304672689462,-10,-9,-15,-12,-5,-4,2,-7
1529304672689462,4,0,2,3,-4,-2,-9,-8
1529304672710741,-3,6,4,-3,-2,-4,0,-5
1529304672710741,-7,-8,-19,-8,-8,-5,-3,6
1529304672712387,4,4,4,2,-3,-4,-5,6
1529304672712387,9,-4,0,2,6,8,17,5
1529304672724559,-2,-4,2,0,0,0,-13,-6
1529304672724559,-17,8,26,12,-1,-8,-12,5
1529304672733049,24,1,-10,-4,-2,-2,6,1
1529304672733049,-18,-10,-14,-7,-4,6,12,-21
1529304672747011,1,-4,-3,1,-1,3,2,2
1529304672747011,2,3,8,4,3,1,-6,-6
1529304672755031,1,6,10,5,-2,-6,-9,-3
1529304672755031,15,10,11,4,-2,-3,-1,12
1529304672770944,-1,9,17,3,-2,-4,-6,-9
1529304672770944,0,-24,-45,-25,-9,-2,1,2
1529304672771942,-9,-1,0,-1,2,3,11,3
1529304672771942,5,6,3,1,4,5,7,2
1529304672783909,7,22,42,25,12,0,-11,3
1529304672783909,-17,-36,-48,-11,-3,-1,-4,-8
1529304672792885,7,-7,-8,-5,-2,1,1,-2
1529304672792885,-35,-5,3,2,-1,2,1,-8
1529304672809191,-10,-3,-1,-1,0,2,-2,-6
1529304672809191,33,18,4,-2,2,-1,11,21
1529304672814069,0,2,11,9,0,-2,-11,-8
1529304672814069,6,2,-3,-3,-1,-2,1,-1
1529304672831027,-8,-17,-24,-10,-5,0,-1,-3
1529304672831027,-6,7,16,4,1,2,0,-7
1529304672833002,-10,3,2,-4,-5,-6,-4,-5
1529304672833002,9,1,7,1,-7,-4,-9,0
1529304672844855,-4,-9,-4,-2,-1,-2,2,-1
1529304672844855,-3,-3,-4,0,5,2,-2,-6
1529304672852983,-7,-2,-5,-6,-1,-2,3,-5
1529304672852983,4,8,8,7,-1,0,-4,12
1529304672867947,1,-14,-35,-19,-5,-3,10,-1
1529304672867947,7,7,8,2,3,3,5,-1
1529304672874678,-14,-10,-9,-4,-5,-5,-14,-11
1529304672874678,9,2,-2,-6,-2,1,1,-9
1529304672890954,-9,16,17,8,-5,-8,-12,0
1529304672890954,-4,-7,-8,-13,-6,-3,4,3
1529304672892068,-4,1,8,14,3,2,2,-1
1529304672892068,6,-6,-10,-6,-5,-4,1,0
1529304672905086,4,4,11,5,11,4,-3,5
1529304672905086,-7,-7,-12,-3,-4,-4,-1,-5
1529304672913151,-1,9,16,1,8,5,-1,1
1529304672913151,-3,-10,-16,-6,-5,-4,0,-2
1529304672928095,4,-2,-6,-5,-3,-1,2,4
1529304672928095,-7,-4,-3,-7,-13,-6,2,-8
1529304672934947,-5,-3,-5,-3,4,3,-4,2
1529304672934947,21,5,8,1,1,0,-3,10
1529304672950813,-28,-5,-11,0,-6,-3,-3,-15
1529304672950813,2,0,-3,5,8,1,5,-7
1529304672951817,-4,-9,-10,-6,-9,-10,-3,3
1529304672951817,1,-1,5,4,7,8,8,10
1529304672963750,-5,-5,-4,-12,-4,2,-3,3
1529304672963750,3,3,14,9,1,0,-7,-8
1529304672973754,-2,3,2,0,-1,-2,-2,-11
1529304672973754,4,0,2,-1,-4,-7,-9,-5
1529304672987924,5,-12,-16,-12,-11,-7,3,10
1529304672987924,-9,-2,-8,-7,-3,0,-4,0
1529304672994861,4,7,11,-2,-2,-5,-11,3
1529304672994861,-5,-6,-4,7,8,4,4,-6
1529304673010847,0,-2,-4,3,-2,0,2,-5
1529304673010847,1,0,4,2,6,2,1,3
1529304673012617,3,7,5,-3,-8,-9,-2,2
1529304673012617,6,-4,-7,-2,3,4,2,-6
1529304673024584,-19,-10,-10,-6,8,11,3,-2
1529304673024584,1,1,8,-3,-5,-1,0,6
1529304673033560,2,-1,0,2,0,6,0,0
1529304673033560,-6,-3,-6,-5,-6,-8,-3,-5
1529304673048262,12,-1,-4,2,0,-5,-6,3
1529304673048262,-4,-1,-2,1,-3,0,11,8
1529304673054836,-7,-8,-10,-2,-5,-3,-6,-5
1529304673054836,-8,4,5,1,-4,-6,-11,-11
1529304673070740,0,-1,3,-2,-5,-6,-9,1
1529304673070740,0,6,19,12,5,-6,-10,3
1529304673072482,-2,-12,-16,-10,-1,4,15,2
1529304673072482,-4,-2,-1,4,-6,-7,4,-1
1529304673093861,6,4,-2,-4,4,9,-4,-1
1529304673093861,1,0,5,11,20,13,2,1
1529304673094740,-2,0,11,14,6,2,-2,-17
1529304673094740,-7,-6,-3,-7,-3,1,-1,16
1529304673107711,-1,-3,-17,-6,-5,-9,-7,-10
1529304673107711,-1,-4,-4,-4,-6,-1,2,-6
1529304673114689,1,2,2,-8,-1,2,-1,6
1529304673114689,-3,-1,-9,-11,-11,-8,-8,-10
1529304673131703,13,0,-7,-6,-9,-7,4,4
1529304673131703,-14,1,0,-9,-3,-4,-5,-1
1529304673136888,0,1,-4,3,2,-1,0,-1
1529304673136888,-4,0,12,16,5,1,4,-2
1529304673152618,2,4,3,3,3,5,-1,1
1529304673152618,5,3,0,0,-1,-7,-8,-1
1529304673154579,-2,-2,-4,3,-3,-8,-5,2
1529304673154579,-5,-9,-15,-12,-10,-2,12,-1
1529304673168544,2,-2,0,-8,-4,6,-5,-2
1529304673168544,4,7,3,3,13,12,5,4
1529304673174526,4,-1,10,9,-2,-4,-8,-5
1529304673174526,-5,-1,-10,-3,9,8,1,-4
1529304673190689,-8,-1,6,4,-4,-14,-11,-4
1529304673190689,-1,-1,0,-4,-14,-9,-3,-3
1529304673192503,2,2,-6,-12,-1,2,2,14
1529304673192503,0,1,6,21,-1,-3,-3,-5
1529304673213421,1,-1,7,-6,3,2,5,0
1529304673213421,-3,-6,-11,-9,-10,-5,-6,-6
1529304673214645,-3,-3,-13,-10,1,4,5,1
1529304673214645,1,4,8,-10,-5,2,1,-1
1529304673227247,-3,-1,-5,-2,-4,-3,0,2
1529304673227247,3,-2,-1,4,6,2,1,0
1529304673235748,-1,-1,5,4,6,1,3,-2
1529304673235748,-2,-5,-5,-2,-3,-8,-17,-2
1529304673251297,-1,0,1,1,-5,5,28,2
1529304673251297,2,-2,-1,-2,-3,-3,1,2
1529304673252012,0,0,-7,-5,0,-2,-15,3
1529304673252012,8,-1,-2,-2,6,8,6,-13
1529304673273298,-16,-1,8,4,-3,-9,-10,12
1529304673273298,2,-2,-2,-1,-7,-5,-2,-5
1529304673274951,0,3,12,11,2,1,2,-1
1529304673274951,0,-4,-8,-21,-5,0,-1,0
1529304673296286,2,-2,1,3,-1,-3,-6,-7
1529304673296286,-3,1,-4,-6,-2,3,6,-1
1529304673296907,-9,-1,4,16,1,1,-2,-4
1529304673296907,7,6,-4,-11,-10,-6,-4,2
1529304673311385,4,4,15,18,12,3,1,-3
1529304673311385,1,2,0,5,2,-2,-4,4
1529304673312364,-11,-6,-1,-1,3,4,8,-3
1529304673312364,1,-1,4,-7,1,1,6,3
1529304673333293,-1,-5,-25,-12,-4,3,-2,-14
1529304673333293,0,1,11,7,-1,-10,-19,4
1529304673335524,3,2,0,-7,-8,-3,1,-8
1529304673335524,-18,-4,0,-1,4,3,-2,7
1529304673347424,-2,0,1,4,1,6,3,2
1529304673347424,-3,-3,8,11,3,0,1,-5
1529304673355526,-2,-1,-10,-12,-7,-4,3,1
1529304673355526,2,-4,-7,-9,-3,-5,-2,3
1529304673370710,5,0,4,4,8,1,-2,-8
1529304673370710,0,-4,-4,3,-4,-1,0,-1
1529304673372480,-5,-2,0,1,-2,-3,-5,1
1529304673372480,-3,0,2,0,-2,-2,8,0
1529304673392971,4,-1,-3,-5,0,2,-3,12
1529304673392971,1,5,-1,-8,-2,-1,-7,-9
1529304673395005,4,1,4,9,7,6,5,2
1529304673395005,-8,-1,-6,8,2,-2,-11,-5
1529304673407288,5,-3,-11,-11,-3,3,10,4
1529304673407288,-3,-6,-5,-17,-11,-1,-4,-5
1529304673415910,4,3,4,3,0,0,6,-12
1529304673415910,-1,3,0,8,8,3,-2,14
1529304673430869,1,-3,5,10,-4,-11,-11,-8
1529304673430869,3,-1,0,9,6,3,6,7
1529304673432925,1,-1,-6,-12,-7,-4,-1,-1
1529304673432925,-4,-6,-9,1,-3,2,8,-5
1529304673452811,3,4,6,-6,-6,-6,-12,2
1529304673452811,-9,-14,-21,-10,1,-2,-2,-6
1529304673454806,3,5,7,0,-3,-5,-5,5
1529304673454806,1,-4,-2,1,0,4,1,-3
1529304673467160,-5,12,18,2,-4,0,-4,-4
1529304673467160,1,-12,-19,-5,-3,2,13,-1
1529304673475751,8,1,2,2,4,0,-5,7
1529304673475751,-25,-6,7,3,4,-3,-5,-6
1529304673490711,0,3,2,-1,3,-2,3,-6
1529304673490711,3,0,-5,-11,-14,-10,-12,8
1529304673491708,-1,7,12,9,4,2,6,13
1529304673491708,6,-10,-16,-3,0,2,-1,0
1529304673512655,0,-2,-13,-13,-8,-3,1,-12
1529304673512655,0,9,17,12,5,0,-5,3
1529304673514646,-4,-9,-7,-7,-6,0,-2,1
1529304673514646,2,12,27,9,-6,-11,-4,-3
1529304673526874,-9,-18,-16,4,3,-1,-3,-4
1529304673526874,1,-3,-1,-6,-2,2,3,-3
1529304673535626,-5,-6,-8,1,9,9,8,0
1529304673535626,-1,-3,-3,0,-3,-3,-4,-7
1529304673550810,3,5,4,9,6,-5,-10,4
1529304673550810,-1,0,0,-3,0,-7,-8,-5
1529304673552544,-3,-6,-8,-6,-7,-10,-10,-8
1529304673552544,-4,1,-5,4,8,10,11,-7
1529304673573758,3,2,2,1,1,16,28,18
1529304673573758,-6,-1,4,8,-1,-2,-13,-7
1529304673574485,1,3,1,-4,4,8,5,-6
1529304673574485,-9,-1,-9,-11,-6,-3,-8,4
1529304673586698,11,-4,-5,-4,-1,2,-1,-2
1529304673586698,-4,4,6,-1,5,2,2,1
1529304673595629,0,-3,-22,-9,-9,-12,-14,-7
1529304673595629,2,-1,14,7,-4,-9,-3,-4
1529304673610656,-7,3,-1,11,7,1,3,-3
1529304673610656,-1,-8,-12,-9,-3,0,6,0
1529304673612423,0,15,37,16,3,-4,-11,-2
1529304673612423,5,-13,-22,-2,1,11,17,-1
1529304673633589,-2,-6,-8,-4,7,0,-3,4
1529304673633589,-3,3,7,0,1,-5,-14,-4
1529304673635464,4,2,8,10,2,1,5,4
1529304673635464,9,8,6,-5,0,0,1,4
1529304673646590,-16,-8,-1,-4,-13,-11,-12,-24
1529304673646590,0,1,-11,-5,-5,5,15,10
1529304673655879,-8,-6,-9,-8,-2,0,1,5
1529304673655879,0,6,7,6,0,-4,-7,0
1529304673671159,6,3,5,1,-1,-2,-7,3
1529304673671159,-2,-12,-5,-4,-7,0,18,-5
1529304673672920,-12,-15,-29,-13,-8,1,-3,-10
1529304673672920,3,5,8,-1,1,-9,-15,5
1529304673693023,5,5,6,-6,-3,2,5,11
1529304673693023,-4,3,15,11,6,4,13,-2
1529304673694775,0,-8,-17,-8,-9,-11,-15,-4
1529304673694775,-4,-3,-5,-7,0,1,2,-3
1529304673707026,1,0,1,0,1,-6,-6,-4
1529304673707026,-4,3,-2,0,-2,-1,-2,4
1529304673716005,-12,-7,-4,0,-2,-4,2,-14
1529304673716005,5,-1,10,8,5,6,0,-14
1529304673731198,-9,-4,-6,-9,-8,-4,-2,14
1529304673731198,8,6,8,7,1,-1,-2,-2
1529304673732195,-4,-1,3,-7,0,2,2,5
1529304673732195,9,-3,-7,11,-3,-4,-8,3
1529304673753722,-10,-5,1,1,2,6,6,-8
1529304673753722,4,-3,-11,-11,-5,-2,1,7
1529304673754417,0,-5,-15,-7,-5,3,4,-10
1529304673754417,-4,2,5,-2,1,-6,-15,-3
1529304673767384,2,-1,0,3,-4,-7,-7,-5
1529304673767384,-3,2,3,2,0,0,-2,-1
1529304673775365,3,0,-6,-8,-6,-9,2,7
1529304673775365,-6,-6,-6,-9,-6,8,9,-4
1529304673790562,4,-2,-2,-1,7,8,-3,-5
1529304673790562,-15,-6,-10,-8,-5,-5,-7,-4
1529304673796751,1,10,25,15,6,4,1,4
1529304673796751,0,-3,-23,-16,-6,-5,-3,-1
1529304673813618,-2,-1,4,2,1,-3,-2,-2
1529304673813618,1,-3,-15,-7,-4,2,3,0
1529304673814261,1,-5,-9,-12,-11,-10,-13,-3
1529304673814261,-3,3,-11,-12,-6,5,6,3
1529304673827476,14,0,21,27,7,-3,4,3
1529304673827476,-6,1,2,4,8,6,1,-20
1529304673836436,6,7,3,2,7,10,10,20
1529304673836436,4,2,-5,-5,-4,-5,-2,-1
1529304673850514,-8,-9,-23,-21,-11,1,3,3
1529304673850514,6,1,2,-8,-7,-8,-12,-7
1529304673857296,-2,0,6,0,-3,-8,-2,-10
1529304673857296,-6,0,18,18,10,6,1,4
1529304673873403,-3,2,2,15,8,1,-1,1
1529304673873403,1,-3,-5,-5,-13,-7,-3,2
1529304673874134,1,1,-5,3,31,12,2,0
1529304673874134,-6,-6,-9,-13,-11,-11,-8,2
1529304673887139,-2,-1,-9,-11,-6,-2,-1,-1
1529304673887139,6,3,-1,-1,-1,3,8,5
1529304673896118,-6,-2,10,9,-7,-2,-9,-6
1529304673896118,0,4,13,10,9,1,4,-1
1529304673910423,11,-3,-8,-12,-5,-2,-4,-16
1529304673910423,-24,-6,2,-1,0,-5,-5,0
1529304673917317,8,-2,0,-2,-5,0,2,2
1529304673917317,-2,0,2,1,4,7,7,0
1529304673933595,-7,-1,5,-3,-7,-4,-3,6
1529304673933595,8,2,0,-2,-2,-5,4,7
1529304673935476,-1,-5,-5,-5,-7,-5,-3,2
1529304673935476,0,3,7,4,6,5,-1,-6
1529304673946552,-4,1,-8,4,1,0,-2,-1
1529304673946552,1,-4,8,14,7,1,-5,-1
1529304673955607,-4,-1,-5,-5,-7,-4,6,0
1529304673955607,4,-4,-6,-7,-12,-6,-3,1
1529304673970507,-3,1,5,1,-2,-3,-3,3
1529304673970507,-2,-2,-10,-7,3,1,-2,-5
1529304673976518,2,0,4,8,-1,-3,-1,-2
1529304673976518,-2,-2,-3,-4,0,-1,0,-1
1529304673993728,-5,-7,-8,-7,-7,-5,-3,-2
1529304673993728,2,1,10,4,-8,-3,-2,-10
1529304673994473,0,-3,-4,0,3,1,1,3
1529304673994473,-2,-3,-10,-12,-10,-3,3,1
1529304674006757,-5,-1,1,-8,-5,0,-4,-2
1529304674006757,5,0,-5,-4,0,0,-3,3
1529304674015861,2,0,2,3,2,1,-1,-4
1529304674015861,0,-2,3,6,0,-2,-1,-2
1529304674028880,-6,-4,-2,-2,2,0,1,-6
1529304674028880,2,4,0,-2,0,-2,-4,3
1529304674038142,2,7,9,6,-3,-4,-5,-1
1529304674038142,-7,-6,-1,3,1,-4,-5,-3
1529304674053320,3,3,3,1,0,3,7,2
1529304674053320,-1,-5,-2,0,-1,-1,-4,2
1529304674054974,-4,-4,-8,-5,-1,0,1,-6
1529304674054974,1,1,-1,-1,5,-1,-3,3
1529304674076165,0,-2,-4,-6,-4,-3,-5,-1
1529304674076165,-2,-3,2,4,2,2,4,0
1529304674077127,-1,-2,-4,-3,-3,0,0,-3
1529304674077127,1,1,1,-2,-4,0,-4,-4
1529304674089861,-1,1,9,14,6,1,1,0
1529304674089861,-1,-3,-7,-9,-6,-1,-8,-10
1529304674097082,-2,-2,-2,-3,-9,-2,-2,2
1529304674097082,-2,-1,0,0,15,3,8,-3
1529304674113039,2,5,2,-1,-1,-3,-13,-4
1529304674113039,1,3,4,5,2,0,4,3
1529304674114795,-4,-5,-6,-7,-7,-2,3,-2
1529304674114795,-2,-4,4,5,5,0,2,-2
1529304674136024,-3,-3,-4,-7,-4,-3,-1,-1
1529304674136024,-1,-1,2,-1,1,1,-3,-2
1529304674137021,0,-3,2,0,0,-2,1,-1
1529304674137021,2,0,-4,-1,-7,-2,-4,2
1529304674150059,-2,-4,-1,-2,-1,-2,-2,-5
1529304674150059,2,-1,-2,-2,1,0,-2,-1
1529304674157966,-16,-3,0,-2,1,-4,-9,-5
1529304674157966,5,2,-2,-3,-3,-2,-1,0
1529304674173676,-1,-3,-4,-3,-4,2,2,1
1529304674173676,-2,0,9,8,0,-1,-2,1
1529304674174393,6,2,-8,-3,4,0,-3,0
1529304674174393,0,3,-5,-9,-2,1,-1,2
1529304674195390,4,-1,12,18,4,-3,-1,-6
1529304674195390,-12,-4,-7,-3,0,-4,-2,6
1529304674197333,-2,-3,-5,-10,-4,1,11,3
1529304674197333,0,0,9,10,-6,-2,-7,-7
1529304674209356,1,-4,-9,-10,-1,-2,-7,8
1529304674209356,5,4,6,-2,-4,-1,-6,-7
1529304674218277,-3,-5,-5,3,3,1,-4,-4
1529304674218277,-2,-2,-5,-9,-4,-4,-5,3
1529304674233794,-3,-1,0,-1,-3,2,12,0
1529304674233794,3,1,0,0,1,-1,1,1
1529304674234608,4,3,-2,-6,-5,-1,7,5
1529304674234608,1,-2,-1,0,-2,3,5,-3
1529304674256106,1,1,1,3,1,-2,-1,3
1529304674256106,-9,-3,-1,2,0,-1,0,-8
1529304674257026,5,0,2,1,-1,-4,-7,0
1529304674257026,-3,-3,-1,2,-2,-3,-1,-5
1529304674269953,-2,1,-6,-7,1,2,2,1
1529304674269953,6,1,-3,-5,1,3,0,6
1529304674278247,-3,-3,1,2,1,-2,-5,-4
1529304674278247,-2,0,0,-1,1,0,1,5
1529304674293771,-6,-4,-4,-7,-6,0,3,-6
1529304674293771,2,0,1,0,1,-4,-15,-6
1529304674294573,3,2,4,5,2,-2,-2,1
1529304674294573,-2,-4,-4,-3,-4,-2,-2,-1
1529304674316404,-4,-2,-2,-1,-3,-2,1,0
1529304674316404,-2,-4,-2,0,1,1,7,1
1529304674317145,-3,0,-3,-2,-7,-1,0,-4
1529304674317145,0,-2,-2,-1,2,2,3,4
1529304674329758,1,1,-3,-3,10,-1,-6,1
1529304674329758,3,-7,-12,-5,-3,-2,2,0
1529304674338381,-1,-3,1,1,4,-1,-2,0
1529304674338381,0,-3,1,-3,-9,-6,0,-1
1529304674353938,-3,-2,-1,-3,-8,-3,-4,-3
1529304674353938,1,-2,1,-1,1,3,1,1
1529304674354757,0,-1,0,3,-1,1,-2,-3
1529304674354757,-3,-1,-4,-1,-2,0,-4,-4
1529304674376271,-1,-2,-6,-4,-4,-4,-6,-5
1529304674376271,-1,0,0,-1,1,0,1,2
1529304674377210,-3,-2,6,9,2,-1,-3,-5
1529304674377210,-1,1,1,-2,1,0,-1,-1
1529304674389180,-4,0,0,-1,-1,-2,-2,-1
1529304674389180,-1,-1,-4,-7,-7,-4,0,0
1529304674398156,0,3,1,-3,-1,0,3,3
1529304674398156,2,-3,-4,-1,1,-1,0,-2
1529304674413462,-1,-1,3,2,-5,-3,-4,-3
1529304674413462,-4,-4,4,0,-6,-4,0,-8
1529304674415124,-3,0,1,-5,-12,-6,-4,5
1529304674415124,0,3,2,16,43,14,0,1
1529304674436381,0,0,-3,-5,-3,1,2,3
1529304674436381,-1,-4,-4,-1,-1,0,2,0
1529304674438084,2,0,-4,-5,-2,-1,-1,1
1529304674438084,0,0,-4,-6,-17,-7,-1,-4
1529304674449290,-5,-2,-1,-1,-6,-3,-2,-2
1529304674449290,-3,0,2,4,11,4,2,2
1529304674458324,0,0,-2,-4,-2,-2,0,-4
1529304674458324,-2,-1,0,-2,-3,-3,-3,-1
1529304674473593,1,1,-2,1,4,4,0,-2
1529304674473593,-5,-2,-4,-3,-8,-3,0,1
1529304674474273,0,1,1,-1,3,1,-2,-2
1529304674474273,12,7,4,0,-7,-3,1,-1
1529304674495230,-4,-2,1,2,-2,-1,3,0
1529304674495230,-6,5,-5,-2,-3,-1,0,-2
1529304674497211,-1,-1,2,0,4,1,0,0
1529304674497211,-9,-10,-5,-5,-9,-6,-3,-5
1529304674509618,4,2,2,-1,3,2,-2,0
1529304674509618,4,4,2,0,-6,-3,-3,0
1529304674518166,-7,-2,-1,3,5,1,-1,-1
1529304674518166,3,0,-1,-1,-5,-2,-4,1
1529304674533115,-4,-6,-2,1,0,-2,-1,-2
1529304674533115,0,-2,-3,-3,3,1,2,-1
1529304674535380,5,2,-3,-1,-6,-1,2,-2
1529304674535380,-4,-6,-2,-1,-5,-1,-1,-2
1529304674556273,0,-2,-2,0,1,2,2,0
1529304674556273,-1,-2,-2,1,-1,0,0,1
1529304674557169,0,-2,-3,0,-2,1,0,-3
1529304674557169,-5,-2,0,1,-5,-1,4,3
1529304674569279,-1,-3,-4,0,0,-1,1,2
1529304674569279,0,0,-1,-1,-10,-5,-9,-4
1529304674578248,10,13,0,10,22,7,1,-1
1529304674578248,-6,-10,-3,-1,-4,-1,-5,-4
1529304674593452,0,2,-1,-1,-2,-1,-2,1
1529304674593452,-3,-4,-2,-4,-2,-3,-2,-1
1529304674594443,0,-3,-1,-2,-6,-3,-1,2
1529304674594443,0,7,3,-1,-2,1,0,0
1529304674615790,-4,-2,1,-5,-3,-4,-1,-1
1529304674615790,4,-2,-1,-4,1,-1,-2,-1
1529304674617448,-4,-4,-4,-7,-6,-3,-3,-3
1529304674617448,-6,-1,4,2,2,0,-1,-3
1529304674629680,3,2,-1,-7,-8,-2,2,6
1529304674629680,3,1,0,0,4,-2,-10,-13
1529304674638108,-8,-6,-3,-5,2,-3,-5,-1
1529304674638108,-1,-1,-3,-5,2,-1,-2,-2
1529304674653179,-5,-1,-2,-2,0,-1,-3,-3
1529304674653179,2,2,0,-1,-2,0,1,5
1529304674654908,-5,-3,-2,-7,-6,-3,-2,-5
1529304674654908,7,2,0,0,2,-1,0,3
1529304674676333,11,5,0,-1,-3,-2,-3,-3
1529304674676333,-6,-3,-2,-3,0,-3,1,-1
1529304674676911,-1,-5,-1,-1,-3,-2,-1,-2
1529304674676911,-4,-2,0,-3,0,-1,0,-2
1529304674690072,-2,-2,-1,-1,1,0,-1,-2
1529304674690072,2,-2,0,-2,-4,0,-1,0
1529304674698159,-4,-1,0,-1,0,0,-4,-1
1529304674698159,0,2,-2,-4,-3,-3,-3,-1
1529304674713468,-3,0,5,8,4,-3,-2,-4
1529304674713468,-3,0,1,2,3,-2,1,0
1529304674715471,-1,-1,-10,-11,-6,-2,1,1
1529304674715471,1,1,1,1,-1,-2,-2,-1
1529304674735576,-5,-3,0,-1,-1,-1,-3,-3
1529304674735576,-4,-2,-1,-2,3,0,2,2
1529304674736449,2,-1,1,0,0,-1,1,3
1529304674736449,-1,0,-3,-4,-5,-1,-1,-5
1529304674757697,0,-4,-3,-1,4,1,-3,-5
1529304674757697,-2,0,-2,1,-1,-2,-1,1
1529304674758904,-1,-3,-2,-2,-3,0,0,0
1529304674758904,-2,-2,-3,0,-1,1,1,-1
1529304674772899,-3,-3,-1,0,-1,0,1,3
1529304674772899,-1,-1,-2,-2,-1,0,-2,-2
1529304674773686,-2,-1,2,1,-3,-4,-3,-1
1529304674773686,2,0,1,-1,-4,-3,-1,0
1529304674794600,0,-1,-4,1,-1,-1,-1,-3
1529304674794600,0,1,0,-1,-1,-2,-2,-1
1529304674795596,0,0,-1,4,5,1,1,0
1529304674795596,-2,-2,0,0,-2,1,-1,3
1529304674817805,-2,-1,-3,-3,-2,-3,-4,-8
1529304674817805,-3,-2,-2,0,-1,0,4,1
1529304674818778,-4,-2,0,0,-4,-4,-7,-9
1529304674818778,2,0,-4,-3,-3,-3,-2,0
1529304674832760,1,0,-3,-3,-1,-1,3,3
1529304674832760,0,-3,7,7,5,1,-1,-2
1529304674833754,-1,0,-1,-1,-3,0,-1,-3
1529304674833754,-5,-2,-1,-1,1,-2,1,0
1529304674855694,-3,-1,-2,0,-4,-1,0,0
1529304674855694,1,-1,-5,-3,-2,0,0,-1
1529304674855694,0,-1,1,-1,0,2,0,2
1529304674855694,-2,1,0,-1,-3,-2,-3,-2
1529304674877901,0,1,1,-1,-2,-2,-1,2
1529304674877901,-3,-1,-4,-2,-2,-1,-2,-3
1529304674878906,1,-1,0,1,-1,-2,0,2
1529304674878906,-4,-3,-4,0,-3,-2,-1,-3
1529304674893102,5,1,2,0,-2,-2,-4,-3
1529304674893102,-3,0,-1,2,-1,1,0,0
1529304674893102,-2,-2,-2,-3,-3,-3,0,-1
1529304674893102,-1,1,-2,-3,1,-1,-1,0
1529304674915099,-3,-2,-3,-3,1,2,-2,-2
1529304674915099,-1,-1,-3,-1,0,0,-1,-2
1529304674915844,0,-2,2,0,-1,1,-2,0
1529304674915844,0,-1,3,1,-1,-2,-2,1
1529304674938053,0,-1,0,1,1,0,-1,-2
1529304674938053,-1,0,-1,-2,0,0,-1,-1
1529304674938053,-4,0,-1,1,-2,-3,0,-1
1529304674938053,-1,-2,-2,0,-2,-1,-1,0
1529304674953127,-2,1,-3,-4,-4,-4,-4,-7
1529304674953127,3,1,1,0,4,1,-1,2
1529304674953127,2,0,-1,-1,-2,1,-1,-1
1529304674953127,0,-1,-1,-1,0,0,0,1
1529304674975595,0,0,-1,0,0,-2,-2,3
1529304674975595,-5,-2,-2,-3,-5,-2,-2,-2
1529304674975595,2,-2,0,0,0,-2,0,1
1529304674975595,1,0,-2,0,2,-1,-1,0
1529304674997288,-4,-3,-3,-2,0,2,3,5
1529304674997288,5,1,0,-3,-4,-2,0,-2
1529304674998285,-2,-2,-2,-4,-1,-2,-4,-4
1529304674998285,-4,-2,-2,-1,0,-1,-1,-4
1529304675012497,-2,-2,-2,1,-2,-3,1,-1
1529304675012497,-2,-2,-2,-1,0,-2,-1,0
1529304675013245,-2,-1,-1,-1,0,1,1,-1
1529304675013245,-1,-1,-1,0,-1,-1,-3,-3
1529304675035647,1,-1,0,0,1,-2,-3,-1
1529304675035647,-1,-1,-1,-2,-1,-2,0,0
1529304675035647,0,0,-1,-1,-3,-2,-1,-1
1529304675035647,-1,0,0,-2,-2,0,0,-1
1529304675057494,-2,-2,-1,0,-2,1,-2,0
1529304675057494,-1,-2,-2,-1,-3,-1,-2,-2
1529304675058433,5,1,-2,0,3,1,3,4
1529304675058433,-2,-3,-2,-3,-1,-2,-2,0
1529304675072654,-1,0,1,-2,0,0,0,4
1529304675072654,-2,-1,-3,-1,0,0,-3,-7
1529304675073704,0,0,-1,-1,-1,-1,-4,-2
1529304675073704,-1,-2,-1,-1,0,0,-1,0
1529304675095517,-1,-3,-1,-1,-1,1,1,0
1529304675095517,-5,-2,0,-1,-3,-2,-1,1
1529304675095517,-3,-1,0,-1,-5,-2,1,1
1529304675095517,0,0,0,1,0,1,0,0
1529304675117993,0,-1,-1,-2,1,-2,-5,-6
1529304675117993,0,1,0,0,-2,-1,-2,1
1529304675118707,-2,-4,-2,-1,-2,-2,0,-1
1529304675118707,1,0,-1,-3,-1,-2,0,-2
1529304675133026,-1,-1,-2,0,0,0,1,-2
1529304675133026,-1,-2,-4,-4,0,0,-1,-1
1529304675133026,-3,0,-1,-2,0,-2,-2,-1
1529304675133026,-2,-1,-2,0,-2,-2,-1,1
1529304675155611,1,0,-2,-1,1,-2,1,-1
1529304675155611,-3,-3,-3,-1,-1,0,-1,-2
1529304675155611,0,-3,-2,0,-2,-1,-2,2
1529304675155611,0,0,-2,0,-2,-1,-1,-3
1529304675178114,-2,1,1,1,-2,-2,-1,-1
1529304675178114,-1,-1,1,0,-2,0,-1,-1
1529304675178114,-3,0,0,0,1,1,0,-2
1529304675178114,1,-1,-2,-3,0,0,-2,-1
