timestamp,emg1,emg2,emg3,emg4,emg5,emg6,emg7,emg8
1529294978343680,-1,-1,-2,-2,1,-2,-2,0
1529294978343680,1,1,0,-2,-2,-2,-1,-1
1529294978343680,-3,0,1,-1,0,1,-1,0
1529294978343680,-2,-1,-1,-1,0,0,0,0
1529294978344679,-1,-1,-1,0,-5,-3,-1,-1
1529294978344679,0,-1,-2,-1,-1,-1,0,0
1529294978346673,-2,1,-2,1,0,0,1,0
1529294978346673,0,-2,-2,-1,-2,-3,-1,-2
1529294978350661,-1,-1,-1,1,-1,2,0,-1
1529294978350661,-1,-2,0,-1,0,-2,0,-1
1529294978356647,0,-1,0,-2,-2,-1,-1,-3
1529294978356647,0,0,1,-1,-1,-2,1,-2
1529294978366620,0,0,-1,-1,0,-1,-1,-1
1529294978366620,-1,-2,-1,-1,0,0,-1,-1
1529294978381578,-2,0,0,-1,2,0,-1,-1
1529294978381578,0,0,1,-2,-1,-1,-1,0
1529294978387563,-2,-1,1,0,1,-1,-2,1
1529294978387563,0,-1,-1,0,1,1,-1,-2
1529294978395542,-2,-3,-1,0,-3,-2,0,-1
1529294978395542,-1,0,-2,-2,-2,0,-1,-2
1529294978412496,0,0,0,-3,-3,0,2,-1
1529294978412496,-1,-1,-1,0,-2,-2,0,0
1529294978416486,0,-1,-1,0,-1,-2,-1,-1
1529294978416486,0,-1,-1,0,0,1,-2,-2
1529294978463361,-1,-2,-1,0,0,1,0,-1
1529294978463361,-2,0,-1,0,-1,0,-1,0
1529294978464357,-1,-2,-2,-1,-2,-1,-1,0
1529294978464357,0,0,-2,-2,-3,1,0,-1
1529294978464357,-1,3,1,-2,0,-4,-2,1
1529294978464357,0,-3,0,0,1,1,-1,0
1529294978466352,-1,-1,-1,-1,0,-3,0,0
1529294978466352,-2,-2,-2,1,0,0,0,-1
1529294978476325,-1,-1,-1,0,-1,3,2,0
1529294978476325,-1,1,-1,0,-1,-3,0,1
1529294978483306,-1,-2,1,-2,-3,-2,-2,0
1529294978483306,0,-2,0,0,0,-1,-1,-2
1529294978493280,1,1,0,0,-1,-1,-3,-1
1529294978493280,-1,-3,0,1,-3,0,0,-2
1529294978507243,-1,-1,-1,1,1,3,0,-2
1529294978507243,-1,1,-1,-3,-1,-1,0,-1
1529294978513228,-2,-3,-4,-2,15,6,-1,-2
1529294978513228,0,0,1,-3,-13,-7,-1,0
1529294978521206,0,-4,-3,-3,-12,6,1,0
1529294978521206,0,1,1,1,4,-1,1,0
1529294978545142,1,0,3,3,-1,-3,0,-1
1529294978545142,-1,-3,-3,-5,9,1,-2,-2
1529294978546139,-1,0,1,0,5,-1,-1,-1
1529294978546139,-2,-1,1,-1,-6,-2,-1,0
1529294978553148,0,-3,-2,-2,-4,-1,-1,-1
1529294978553148,0,1,-3,-8,-10,2,2,0
1529294978567110,2,-1,-5,-11,-11,-7,-4,1
1529294978567110,-1,-2,-5,8,25,3,-1,1
1529294978574112,-2,-4,2,12,-11,2,0,0
1529294978574112,-4,-1,4,9,7,12,0,-3
1529294978583067,-2,-2,-10,-15,-6,-16,0,0
1529294978583067,0,2,0,-11,-22,-9,-4,-3
1529294978596005,3,5,1,9,7,5,-1,1
1529294978596005,4,8,11,1,-32,-20,-2,3
1529294978604040,-7,-8,-12,24,65,9,-7,-9
1529294978604040,-1,0,4,-14,0,7,1,-1
1529294978612962,-5,-7,-9,-20,-22,-7,-1,-4
1529294978612962,0,2,9,34,20,18,3,0
1529294978625926,1,-2,-8,-11,-16,-5,-1,-1
1529294978625926,3,-2,-6,13,2,-2,4,0
1529294978634904,0,-2,-17,-39,-10,8,7,1
1529294978634904,3,6,24,5,0,-6,-11,7
1529294978648889,0,1,3,6,-9,-18,-5,1
1529294978648889,-7,-3,-2,7,-1,2,2,-21
1529294978655846,2,4,12,6,-16,-3,-1,2
1529294978655846,-2,-4,-26,-37,12,1,0,-1
1529294978663866,1,3,19,43,-1,-2,-3,3
1529294978663866,5,0,-1,-43,1,1,0,18
1529294978672801,0,3,-2,7,4,17,7,-1
1529294978672801,-6,-8,-11,-19,5,-10,-5,-9
1529294978685799,3,0,-16,-14,-5,7,4,18
1529294978685799,-8,-1,15,18,-4,-6,-6,-32
1529294978694748,-6,-11,-4,31,19,-1,-5,-8
1529294978694748,2,2,-2,28,4,2,3,8
1529294978700725,1,-3,-15,-66,-20,6,4,-3
1529294978700725,-1,-3,-1,5,-10,-11,-5,9
1529294978715684,10,13,29,7,10,-5,-1,12
1529294978715684,-2,-2,2,24,-6,1,3,-1
1529294978723664,-5,2,4,1,-5,2,-2,-20
1529294978723664,2,-6,-19,-11,8,5,2,31
1529294978732640,-6,-6,-7,3,-4,-13,-7,-46
1529294978732640,-4,-4,-13,-48,-23,-4,2,-4
1529294978746656,-4,3,21,91,52,11,0,-10
1529294978746656,-3,7,-2,-33,-5,-1,-5,-8
1529294978755596,1,-9,-11,-5,13,-5,0,11
1529294978755596,5,8,11,9,-7,0,3,5
1529294978761564,3,-12,-8,-22,-24,-4,3,6
1529294978761564,1,5,7,18,-13,-4,0,0
1529294978776552,-1,13,2,6,8,3,0,13
1529294978776552,-1,-8,-7,-12,4,-2,0,-4
1529294978783544,1,3,-11,-4,1,15,4,0
1529294978783544,7,4,31,20,-6,-2,2,23
1529294978792494,-5,6,8,-15,-21,-28,-10,-27
1529294978792494,-4,-12,-18,-3,0,0,-4,-7
1529294978806443,3,2,11,6,14,-2,2,31
1529294978806443,-2,0,-15,-5,14,9,3,-23
1529294978821405,-1,-7,-3,-21,-25,3,-1,9
1529294978821405,-4,8,8,0,23,2,-1,-1
1529294978822401,-3,-12,-20,-6,-6,1,0,-5
1529294978822401,2,-5,5,27,14,7,6,14
1529294978836362,1,6,-3,-27,3,11,0,11
1529294978836362,-3,-7,-1,9,-2,-29,-7,-11
1529294978843344,-2,-2,6,1,-2,-8,-4,2
1529294978843344,-3,-3,-22,-4,-9,6,0,-9
1529294978860300,2,9,9,17,16,-15,1,-1
1529294978860300,11,10,17,3,-1,17,8,24
1529294978866285,0,-1,26,14,7,11,6,11
1529294978866285,-4,-10,-12,8,2,-8,-8,-38
1529294978875275,-2,-24,-23,13,5,1,-1,2
1529294978875275,1,6,-8,-36,-4,4,-4,0
1529294978881244,1,11,19,5,-14,-19,-4,-2
1529294978881244,-4,-10,1,-7,9,16,4,12
1529294978896259,-7,0,-8,0,-4,3,-1,5
1529294978896259,3,-8,-14,11,-11,-6,-1,-5
1529294978903224,-3,19,13,-3,8,8,0,-5
1529294978903224,7,2,10,-11,-12,-8,0,4
1529294978913158,2,1,0,3,11,0,1,0
1529294978913158,-9,-8,-9,2,-3,2,2,-2
1529294978927147,-4,-10,-19,-24,8,2,0,-9
1529294978927147,-3,-10,6,15,-1,10,-1,0
1529294978942082,0,-2,-22,-15,3,-5,-6,-2
1529294978942082,1,9,41,45,0,-13,3,9
1529294978943079,-4,0,-1,-17,1,0,-6,-26
1529294978943079,4,17,11,-14,-24,-20,-4,5
1529294978956044,-3,-3,0,13,12,10,-1,0
1529294978956044,1,-20,-32,1,0,17,2,25
1529294978964024,-4,1,9,-11,-6,-19,-2,-27
1529294978964024,-3,4,7,13,12,4,1,1
1529294978972999,1,0,3,7,-10,3,0,1
1529294978972999,2,13,6,8,33,6,0,-9
1529294978985963,4,-10,-10,-36,-25,9,7,49
1529294978985963,-6,-2,-13,11,-5,-7,-4,-43
1529294978994939,-4,-2,4,-11,-3,1,2,1
1529294978994939,-4,-8,0,-1,9,-1,0,-9
1529294979000923,4,-5,-21,-12,-9,-2,-1,0
1529294979000923,5,10,19,26,4,4,2,17
1529294979015938,-1,-3,-12,-21,1,-3,-1,6
1529294979015938,-3,6,24,-14,-5,-2,-6,-16
1529294979023888,-3,-2,-5,13,-14,-9,7,2
1529294979023888,-4,-14,-29,-35,11,6,-23,0
1529294979032838,3,6,13,19,22,-5,-3,-6
1529294979032838,1,3,11,-14,-41,-10,-3,0
1529294979046817,0,-1,-9,33,2,4,-3,19
1529294979046817,-6,-1,-7,-10,2,-9,3,-23
1529294979053781,-4,-3,4,-29,-57,-12,-5,-16
1529294979053781,3,1,-8,20,6,4,-5,11
1529294979069773,-3,4,8,-4,3,-10,-4,-25
1529294979069773,0,-3,-8,4,-14,-3,3,24
1529294979077718,1,1,4,-19,-1,1,1,10
1529294979077718,-1,-1,-14,4,24,8,5,-13
1529294979083749,1,-2,-15,6,-6,3,-3,0
1529294979083749,5,6,32,-28,2,5,13,29
1529294979100669,-6,-4,3,30,9,-10,-8,-31
1529294979100669,-4,-3,-22,-39,-33,-4,12,-2
1529294979106642,9,9,24,21,17,6,2,25
1529294979106642,-3,-10,-30,5,20,-2,-22,-57
1529294979113667,15,6,32,11,-7,0,1,16
1529294979113667,-11,5,21,17,10,-5,5,14
1529294979129578,-6,4,8,-16,-27,-13,-1,-18
1529294979129578,-5,-5,-20,-8,-35,-10,10,-4
1529294979136561,3,-2,-4,10,45,11,4,-3
1529294979136561,7,-4,-15,4,16,9,-9,4
1529294979143544,-6,-6,-12,-1,6,-12,-21,1
1529294979143544,4,4,20,38,-46,-20,-4,11
1529294979152534,-6,-4,-19,-53,2,33,13,-7
1529294979152534,-2,1,5,19,8,-3,-4,-21
1529294979166553,4,1,1,-23,-12,21,9,32
1529294979166553,0,0,1,12,8,-28,-12,-28
1529294979173463,-3,-5,-10,9,-12,10,10,34
1529294979173463,-2,-3,-10,-26,-14,-5,2,4
1529294979189419,3,5,6,7,8,2,0,-27
1529294979189419,4,4,1,-3,30,11,8,22
1529294979196401,0,-2,-9,13,-63,-19,2,20
1529294979196401,-6,-3,-4,-14,59,35,-3,-32
1529294979203409,5,-1,4,20,48,17,10,44
1529294979203409,-12,-6,-5,-10,-30,17,5,-45
1529294979212359,-9,-2,-3,-13,2,15,-6,-21
1529294979212359,2,-4,-15,-20,-63,-23,-14,-10
1529294979227465,-2,1,2,21,-16,3,1,-11
1529294979227465,4,-1,-3,-12,22,8,9,46
1529294979234340,6,0,-1,40,8,-8,0,-3
1529294979234340,0,2,15,-29,51,20,1,-5
1529294979249464,-6,-1,-1,19,-12,-7,-5,-14
1529294979249464,-2,-3,-4,3,-37,-7,-3,15
1529294979256585,-4,-2,-3,16,17,34,5,-13
1529294979256585,3,-2,-2,-29,14,6,-6,22
1529294979263428,-6,-6,7,28,-78,-41,-12,-33
1529294979263428,-1,2,1,-7,26,36,11,0
1529294979272403,0,4,-3,-14,30,-17,-16,-3
1529294979272403,3,1,-4,12,-6,-26,-5,9
1529294979286518,5,-2,-14,-50,-40,-7,4,16
1529294979286518,1,-1,9,16,11,17,7,3
1529294979295341,-5,-4,4,-9,-17,-30,-4,-18
1529294979295341,-2,0,5,34,6,9,19,-3
1529294979309306,0,1,0,-23,23,3,-19,-8
1529294979309306,6,6,3,36,-3,-1,4,25
1529294979316285,3,0,-7,-46,47,-6,-4,14
1529294979316285,3,-1,0,71,-1,17,4,14
1529294979323319,-8,-8,-18,-35,91,12,-16,-64
1529294979323319,-2,5,23,32,-1,4,0,8
1529294979338280,-2,3,6,21,18,17,8,7
1529294979338280,-4,-8,-14,-89,-128,-18,2,-2
1529294979347202,7,7,5,15,2,-9,10,23
1529294979347202,-1,-6,-21,4,-15,-8,-9,-5
1529294979354249,-2,-1,7,32,3,-22,-12,-5
1529294979354249,-10,-16,-24,-54,-12,-18,-4,20
1529294979377122,2,15,40,53,58,28,16,-21
1529294979377122,14,12,1,-94,-94,-59,-11,3
1529294979379116,-3,-2,-2,54,-67,-3,0,10
1529294979379116,-8,-8,-3,19,87,31,18,-9
1529294979384103,-6,-16,-22,3,62,24,-18,12
1529294979384103,-7,4,16,54,38,1,1,-21
1529294979399065,11,7,-1,-24,43,-23,-4,20
1529294979399065,10,19,5,-34,50,10,8,-7
1529294979407202,3,-10,0,-42,-43,-18,-8,45
1529294979407202,-30,-32,-32,-21,126,37,8,-50
1529294979413245,9,13,19,40,-74,-32,4,-27
1529294979413245,8,12,-4,-17,-57,-13,0,16
1529294979429223,8,24,23,-36,-106,-71,-3,-24
1529294979429223,4,-8,-5,63,-15,-24,7,28
1529294979436340,-16,-23,-28,-49,87,84,7,-8
1529294979436340,-17,-20,-30,55,-87,-88,11,-6
1529294979452139,7,6,15,-97,-32,6,5,17
1529294979452139,-3,4,8,13,-22,14,26,-8
1529294979459259,7,8,13,11,-70,-2,23,22
1529294979459259,13,12,-1,41,5,-5,-16,-17
1529294979466134,-12,-20,-41,-23,103,46,-23,13
1529294979466134,-5,-4,2,-26,45,-8,-14,-12
1529294979481082,-10,-10,-8,-23,-51,-67,-4,4
1529294979481082,-4,-8,-4,-34,44,86,-6,-18
1529294979489042,-11,-9,-12,28,-109,-38,21,25
1529294979489042,18,14,8,4,32,3,-24,4
1529294979496057,-2,-1,-26,-36,-8,6,1,7
1529294979496057,-7,2,29,10,-30,-32,-5,-5
1529294979511979,-4,-5,-9,39,-31,2,5,-12
1529294979511979,-23,-23,-19,-33,-64,93,54,7
1529294979518961,10,-2,-20,-3,28,10,-34,-2
1529294979518961,6,6,14,18,-13,-17,-12,6
1529294979534919,5,3,8,25,78,-16,-17,-34
1529294979534919,-4,-4,-15,-51,-49,7,20,22
1529294979536941,1,1,12,-6,-20,-22,-16,-3
1529294979536941,-1,-1,-4,12,18,14,-6,3
1529294979548933,-5,-6,-1,-23,-40,26,32,-11
1529294979548933,-1,-3,-15,-50,-43,-11,-21,-12
1529294979555923,-4,0,21,106,109,2,-5,-2
1529294979555923,6,3,1,-83,-25,0,9,11
1529294979571875,-1,-3,-12,17,5,4,11,12
1529294979571875,6,6,13,6,48,-45,-19,11
1529294979578801,6,6,14,14,-66,10,21,12
1529294979578801,-4,-7,-8,-27,28,16,-12,-13
1529294979594759,-3,4,9,29,16,2,6,-33
1529294979594759,3,4,2,1,20,-18,-20,7
1529294979596753,2,2,7,-18,-19,1,0,2
1529294979596753,-2,-9,-20,-28,-43,-23,0,12
1529294979608720,-7,4,19,18,6,0,-7,-28
1529294979608720,6,4,1,6,18,-18,-13,7
1529294979617698,-1,-4,-10,0,-4,-22,2,-9
1529294979617698,-2,0,14,24,14,0,-8,4
1529294979631716,1,-5,-18,-13,-56,13,7,17
1529294979631716,4,5,4,15,10,-6,6,0
1529294979638696,-5,-4,-3,2,-11,-1,-1,2
1529294979638696,9,7,19,47,16,12,4,13
1529294979654599,-6,-1,-8,-7,47,1,0,-24
1529294979654599,2,-3,-5,-4,-17,-19,-12,28
1529294979656609,-8,-1,5,-39,-56,25,11,-44
1529294979656609,-4,2,8,30,69,20,8,2
1529294979668617,4,-1,-15,-29,-19,-5,-19,7
1529294979668617,0,0,4,1,-15,3,1,1
1529294979677538,7,8,7,8,96,5,-20,12
1529294979677538,-8,-4,4,12,-68,-12,0,-24
1529294979691560,8,1,3,64,3,-14,9,38
1529294979691560,-1,-4,-7,-28,16,11,-17,-24
1529294979698535,4,4,-1,35,-3,10,0,-15
1529294979698535,3,11,16,-21,-2,-10,2,16
1529294979715475,-5,-4,-4,16,15,7,7,-3
1529294979715475,-1,2,15,19,-10,-3,2,14
1529294979716461,-2,-6,-4,-36,7,6,-2,-2
1529294979716461,-3,-6,-3,47,15,12,0,-15
1529294979728401,0,-2,-5,-28,6,14,14,11
1529294979728401,13,7,-6,-15,3,-16,1,26
1529294979737424,0,8,15,-49,0,12,6,-20
1529294979737424,-8,-14,-16,19,39,11,-12,27
1529294979752337,-5,-2,3,-4,27,-5,-6,-38
1529294979752337,-2,3,3,7,71,40,8,-9
1529294979758320,7,7,6,27,-14,1,9,41
1529294979758320,-2,-2,-10,-35,30,-3,11,-11
1529294979775277,-16,-25,-16,21,40,12,1,9
1529294979775277,7,11,10,27,38,12,-1,-19
1529294979776274,10,18,26,-68,-104,-10,19,13
1529294979776274,20,12,13,42,13,-21,-5,10
1529294979788242,-10,-10,-18,-7,-15,-38,-17,-8
1529294979788242,-9,0,24,43,-11,-8,5,-31
1529294979798214,-12,-24,-56,-77,-38,-14,-15,19
1529294979798214,2,2,15,42,-50,-1,-17,-32
1529294979812178,19,19,37,15,46,-11,-21,9
1529294979812178,-9,-10,-23,-32,-60,-48,-38,15
1529294979819162,-12,-8,7,117,31,17,17,-28
1529294979819162,-18,-11,-28,7,-37,-40,-42,-40
1529294979835274,9,-2,-53,-32,-78,12,2,14
1529294979835274,-16,-12,6,-44,94,57,-1,-5
1529294979837270,8,-4,18,50,89,-23,-18,19
1529294979837270,10,19,50,13,-54,-48,-22,-15
1529294979849242,-6,7,12,14,-42,-43,-10,-15
1529294979849242,-1,-11,-45,1,-18,20,15,8
1529294979864038,-3,-8,-19,-50,-9,-10,25,36
1529294979864038,0,-3,2,11,55,27,19,-14
1529294979872039,-9,-1,0,-6,-45,-12,-9,-33
1529294979872039,9,12,23,32,-67,-29,-5,11
1529294979878998,-6,-4,-6,-15,1,13,1,-23
1529294979878998,22,14,1,-17,-29,-27,18,47
1529294979894955,15,-4,4,20,33,55,31,0
1529294979894955,-34,-10,-12,-15,5,-6,9,17
1529294979896979,-3,2,17,5,-4,5,1,-4
1529294979896979,-20,-9,-26,-38,-20,6,-2,-11
1529294979909251,5,7,13,-19,78,14,4,5
1529294979909251,14,0,-7,54,3,-12,6,-2
1529294979917495,9,7,10,-20,-24,-32,-13,52
1529294979917495,8,5,21,24,29,16,-7,-21
1529294979932435,-8,2,14,6,2,1,-15,-32
1529294979932435,5,0,-7,-17,3,10,-1,-12
1529294979939283,-2,-1,-9,5,-13,2,11,2
1529294979939283,-6,-12,-22,-28,-34,31,31,12
1529294979955568,2,2,7,22,15,3,9,19
1529294979955568,13,15,21,2,-17,-42,-34,-9
1529294979956444,-3,-6,-8,-13,-28,26,18,-25
1529294979956444,2,0,3,3,43,-6,-15,27
1529294979968405,-6,0,2,-1,-13,17,6,-1
1529294979968405,4,-2,4,8,9,-19,2,11
1529294979977474,10,0,-1,5,12,11,-21,-33
1529294979977474,-21,-5,-8,-9,26,21,25,4
1529294979991475,-3,-2,-4,-20,29,-2,-9,13
1529294979991475,5,3,4,-18,-47,-5,3,-9
1529294980000295,-2,-3,-5,11,2,-13,-2,7
1529294980000295,-2,-4,-3,-14,4,4,5,-24
1529294980015593,-3,-1,3,60,-13,25,12,3
1529294980015593,-8,-11,-23,-108,-10,8,6,6
1529294980016447,-7,0,5,36,3,14,-9,-18
1529294980016447,11,8,14,-2,-18,-15,0,23
1529294980028666,4,0,-2,-12,-23,-21,-24,15
1529294980028666,-3,-1,0,33,4,16,6,-20
1529294980037599,-1,-4,-9,-13,-4,7,1,26
1529294980037599,-5,-7,-10,-4,-22,5,-2,-27
1529294980051720,0,-2,0,-14,-17,-1,8,0
1529294980051720,4,4,2,8,28,9,14,18
1529294980058698,-4,1,5,3,23,-20,-16,-17
1529294980058698,-4,0,-2,7,8,13,5,3
1529294980075632,0,0,-1,-10,-13,-8,4,4
1529294980075632,2,0,3,6,-20,-9,-9,-4
1529294980076515,-1,-2,-3,-3,13,23,9,4
1529294980076515,0,-3,-4,5,29,20,1,3
1529294980088620,4,-1,-5,-27,-27,-1,8,21
1529294980088620,-1,3,5,23,15,-14,-9,-19
1529294980097489,-1,3,-1,-2,17,-8,-17,-6
1529294980097489,-2,-3,-5,8,2,-17,-4,-11
1529294980111401,1,0,1,-43,28,-11,-6,5
1529294980111401,2,-2,1,14,-8,4,6,17
1529294980118755,-4,-2,-1,-11,-5,-4,4,-25
1529294980118755,5,2,3,2,-8,-2,-1,17
1529294980134756,-3,1,0,3,-35,-7,-12,1
1529294980134756,-4,-3,-2,2,-2,-1,-2,-10
1529294980136761,1,1,-1,-3,18,-4,-5,7
1529294980136761,-1,-6,-7,-11,36,3,-1,-7
1529294980149195,1,1,-1,8,25,5,8,19
1529294980149195,-4,-3,-2,-7,-7,-5,-9,-19
1529294980158293,-1,0,0,3,1,-4,0,-2
1529294980158293,5,3,3,3,-2,10,2,-2
1529294980172324,0,-1,2,5,-9,0,0,-10
1529294980172324,-3,-8,-7,-2,-15,2,4,3
1529294980178307,-3,-5,-5,0,-3,5,1,-1
1529294980178307,4,5,2,0,-13,-7,-1,2
1529294980194814,0,9,10,9,-2,1,-1,-4
1529294980194814,8,4,5,4,-7,2,5,7
1529294980196829,-3,3,7,0,-2,-9,-1,-9
1529294980196829,-9,-4,-3,-7,-12,-11,-6,4
1529294980217914,-6,-7,-6,-1,-6,4,1,-5
1529294980217914,-4,-4,-2,-2,-3,4,11,-2
1529294980218883,3,-1,-1,1,-2,-4,-10,-11
1529294980218883,2,-2,-5,-5,-4,6,0,1
1529294980232712,-2,-1,-2,1,2,1,2,0
1529294980232712,0,-1,0,2,25,11,2,-7
1529294980238838,-3,-4,-5,-2,3,-13,2,-4
1529294980238838,1,-1,-1,-5,-10,0,-7,21
1529294980254812,0,-1,0,2,3,6,-10,-16
1529294980254812,2,0,0,-3,-14,-2,7,18
1529294980255706,0,0,0,2,-11,-6,-5,-5
1529294980255706,-2,0,1,4,21,12,4,-7
1529294980276757,1,4,2,5,27,11,7,2
1529294980276757,-1,1,-3,-4,-11,-7,-6,-4
1529294980277592,2,3,6,4,-24,-5,4,8
1529294980277592,-2,-1,-5,0,-14,0,4,-5
1529294980292552,-4,-9,-2,1,0,4,-2,-6
1529294980292552,-2,-1,-2,-1,-16,-2,-2,2
1529294980298695,-5,-1,-3,-2,16,7,0,-2
1529294980298695,-4,-4,-4,-5,17,2,2,4
1529294980313693,2,6,1,-3,-13,-3,-4,-5
1529294980313693,2,-1,0,2,1,-4,-4,-5
1529294980321790,1,0,2,-3,-2,0,2,5
1529294980321790,-4,-1,-6,-2,4,-2,-1,-2
1529294980336796,0,-3,-4,-5,-25,-15,-3,0
1529294980336796,-5,-3,-4,-2,8,8,1,-5
1529294980337632,-2,6,-4,-4,11,3,1,1
1529294980337632,2,-11,-2,1,0,0,0,-5
1529294980352592,-2,-7,-2,2,2,6,8,0
1529294980352592,4,7,3,0,-7,-11,-4,6
1529294980358977,-2,-1,-5,2,10,3,-11,-12
1529294980358977,-1,5,4,-4,0,-2,-4,-3
1529294980373746,-8,-9,0,2,-9,-3,3,0
1529294980373746,2,4,3,0,-9,-10,2,1
1529294980381773,1,5,1,0,4,6,2,5
1529294980381773,4,-5,-2,2,-13,-4,-2,0
1529294980396915,4,4,2,6,14,-10,-4,2
1529294980396915,-4,-2,-1,-6,2,2,2,-4
1529294980397879,-3,-6,-9,-9,-4,-6,0,0
1529294980397879,-2,1,10,12,-1,1,1,1
1529294980412838,3,20,1,1,-12,-9,-8,-1
1529294980412838,-3,-25,0,5,4,7,1,-2
1529294980419176,2,0,-2,-5,-4,-20,-1,6
1529294980419176,-4,0,0,-5,3,6,-1,-1
1529294980434139,0,-2,-6,-3,15,4,1,-1
1529294980434139,1,11,2,-1,-2,-4,-1,-2
1529294980441118,-1,-7,-2,0,-20,4,0,0
1529294980441118,4,5,4,2,-5,-10,1,1
1529294980457089,-5,-4,-2,2,5,1,1,0
1529294980457089,-4,-8,-15,-16,-7,1,-1,-4
1529294980458075,4,-2,-8,1,2,5,2,1
1529294980458075,5,9,37,30,3,-4,-3,3
1529294980473298,1,6,2,-13,-7,3,3,0
1529294980473298,0,2,4,6,8,1,-1,-7
1529294980487427,-5,-9,-7,-6,-5,5,4,12
1529294980487427,-3,-1,-17,-6,-2,0,-1,-3
1529294980493403,0,-9,-2,-4,-8,0,-1,0
1529294980493403,-3,-1,3,1,0,0,-2,-2
1529294980501382,1,3,1,0,3,-1,0,-3
1529294980501382,-5,-4,-8,-11,-8,6,1,-3
1529294980517447,-2,14,2,-8,1,-3,-2,-2
1529294980517447,0,-11,-2,10,0,0,-1,-1
1529294980517447,-1,0,3,2,-2,2,-2,-4
1529294980517447,-2,-6,-6,-3,1,-6,0,0
1529294980532459,-6,13,11,-8,0,5,2,-4
1529294980532459,11,-8,-22,-5,-8,-4,-2,5
1529294980538725,7,9,12,10,4,4,3,3
1529294980538725,-2,-8,1,-2,12,-2,-2,-2
1529294980553688,4,6,-1,6,1,3,1,3
1529294980553688,-3,13,10,1,2,-2,0,1
1529294980561541,-3,-11,-4,-4,-8,0,2,-2
1529294980561541,-2,-5,-15,-14,-4,3,2,0
1529294980576462,-1,-12,-2,4,0,-4,-4,-1
1529294980576462,-2,0,3,-1,-2,0,0,0
1529294980577470,-2,0,-1,1,3,1,-2,-4
1529294980577470,-1,0,-1,-2,-2,-5,-2,0
1529294980592438,2,-8,-3,0,-8,-5,-1,0
1529294980592438,-3,7,3,6,13,4,0,0
1529294980598549,1,1,5,3,5,4,2,2
1529294980598549,1,2,-3,-1,-6,-2,-3,0
1529294980613562,0,-7,-7,4,22,3,2,0
1529294980613562,-5,-3,-4,-8,-12,3,0,-2
1529294980621708,0,0,4,3,1,-2,0,-1
1529294980621708,1,1,-1,-1,-7,1,0,0
1529294980637082,0,-4,-4,-2,-2,-1,-2,0
1529294980637082,-2,-1,2,3,8,-1,0,0
1529294980637918,-1,-2,1,-1,-2,-2,-3,-1
1529294980637918,2,1,-4,1,5,-3,-2,-1
1529294980653085,0,-5,-1,-1,-5,0,-1,-2
1529294980653085,0,2,0,1,4,-6,-2,-2
1529294980659209,-1,0,0,-4,-8,-1,2,-2
1529294980659209,-1,2,-1,-3,-1,-2,0,2
1529294980674170,-3,-6,-1,3,-1,0,0,-2
1529294980674170,1,5,5,0,-2,-2,-2,2
1529294980681010,0,-3,-2,0,0,-5,-2,0
1529294980681010,-2,-2,-2,0,0,2,2,-2
1529294980698110,-1,-4,0,0,-4,-4,-1,-1
1529294980698110,0,1,-2,-4,-6,1,0,0
1529294980698962,-1,-1,-1,-3,0,-3,-2,-2
1529294980698962,-1,-2,0,0,-2,2,0,-2
1529294980712924,-1,11,2,-3,-5,-2,-1,-1
1529294980712924,-1,-9,-5,-3,-2,-4,-1,-1
1529294980718909,0,1,-1,1,0,0,-3,0
1529294980718909,1,1,1,0,-3,0,-1,1
1529294980733869,0,1,0,0,0,-1,-1,0
1529294980733869,0,1,2,-2,-1,1,0,1
1529294980740849,-1,-1,-3,0,2,1,1,-1
1529294980740849,1,-1,-3,-2,-3,-2,-2,-1
1529294980764816,0,-3,-3,-1,-2,-1,-1,0
1529294980764816,-2,0,0,0,0,-1,-1,-1
1529294980764816,-2,-2,0,0,-2,0,-2,-1
1529294980764816,0,3,-1,-2,0,-5,-1,0
1529294980772765,1,-3,-2,-1,-1,-1,-1,1
1529294980772765,-2,-1,0,1,1,0,1,-1
1529294980778749,-2,-2,-1,1,2,-1,1,-5
1529294980778749,1,3,2,0,-4,-3,1,0
1529294980793708,1,-2,-3,0,0,0,2,2
1529294980793708,0,0,-1,-2,-2,0,0,1
1529294980800690,-1,0,2,1,1,1,0,0
1529294980800690,-1,-2,-2,-1,-1,0,-1,-1
1529294980816648,0,-2,-3,1,-2,-1,0,0
1529294980816648,-1,2,0,-1,-2,-1,-1,-2
1529294980817644,0,1,1,-2,-3,-1,0,-1
1529294980817644,-2,-1,-2,-2,-2,0,0,-1
1529294980832605,-1,-3,0,-3,1,1,-1,-1
1529294980832605,-2,-2,0,-4,0,0,-2,0
1529294980838588,-1,2,1,-1,0,-2,-1,-1
1529294980838588,-2,-4,-1,-1,1,-2,-2,-2
1529294980853741,0,-3,-1,-1,2,-2,0,-2
1529294980853741,-1,2,-3,-1,0,-2,0,-2
1529294980860858,-2,-3,-2,-1,1,0,0,-2
1529294980860858,0,1,-2,-2,-1,0,-1,-3
1529294980876682,-2,-1,0,-1,-2,0,0,0
1529294980876682,0,-1,1,1,1,1,-1,0
1529294980877694,-1,1,0,-2,0,0,-2,1
1529294980877694,-2,-2,1,-1,0,0,1,-1
1529294980892636,-1,-3,-1,1,1,0,0,-1
1529294980892636,0,0,2,-1,-2,0,1,-1
1529294980898782,1,0,0,-3,-3,-3,-1,0
1529294980898782,-1,-2,0,1,-1,-1,-1,-1
1529294980913745,1,0,0,1,-1,0,-1,-1
1529294980913745,0,-2,-1,0,-1,0,0,-1
1529294980921563,-2,-3,-3,1,-1,0,-1,0
1529294980921563,0,0,-1,0,-1,1,0,0
1529294980936887,-1,-2,-1,0,-1,2,1,-1
1529294980936887,-1,0,-1,-3,-3,0,-2,-2
1529294980937722,0,-1,-1,0,-2,-1,0,0
1529294980937722,0,-1,-1,-2,0,1,1,0
1529294980952682,0,-2,0,-2,-3,-1,-2,0
1529294980952682,-1,1,-2,-1,-1,-2,-2,0
1529294980958669,0,-1,0,-1,1,0,0,-1
1529294980958669,-2,-1,-2,0,-1,0,-1,0
1529294980973752,-1,-1,0,1,-1,-1,-1,0
1529294980973752,-2,-2,-1,1,0,-2,-3,0
1529294980980866,0,1,-1,0,-1,-3,-2,0
1529294980980866,-2,-1,0,-1,1,-1,-1,0
1529294980996707,-1,2,-1,-1,-1,-2,-3,0
1529294980996707,0,-1,0,-1,0,-1,-1,2
1529294980997678,-2,0,-2,0,0,1,0,0
1529294980997678,-1,0,-1,-3,-3,0,-1,0
1529294981012638,-3,-1,0,-2,-1,1,1,-3
1529294981012638,0,-1,-3,0,-1,-3,-1,-1
1529294981018625,-1,-2,0,-2,-1,-1,0,0
1529294981018625,-1,-1,-1,-2,-1,-1,-1,1
1529294981033584,0,-1,-1,0,-2,1,-2,0
1529294981033584,0,0,0,-1,-1,-1,-1,0
1529294981041701,1,0,1,-2,-1,0,-1,-1
1529294981041701,1,-2,-1,0,1,-1,-1,-1
1529294981056644,3,3,0,-2,-2,1,1,-1
1529294981056644,-2,-3,0,-1,-1,-2,0,-1
1529294981057518,-2,0,-1,0,0,-1,1,1
1529294981057518,-3,0,-1,0,0,0,-1,1
1529294981072503,-2,-2,-1,1,2,0,1,0
1529294981072503,0,-1,0,1,0,-1,0,-3
1529294981078807,-1,0,0,-1,0,1,0,-3
1529294981078807,0,-1,-2,-1,0,-1,-1,-2
1529294981093765,-3,0,-2,0,-2,0,-1,-1
1529294981093765,0,-1,0,-1,-2,-2,1,0
1529294981100893,-2,-2,0,0,0,-1,-2,-1
1529294981100893,0,0,2,-1,-1,1,0,-1
1529294981117181,0,-1,0,-2,0,-1,-1,-1
1529294981117181,0,1,0,1,0,0,0,-1
1529294981118021,1,1,-1,1,-1,0,1,0
1529294981118021,0,-1,0,1,1,0,0,0
1529294981133255,0,-2,-2,-3,-3,-4,-2,0
1529294981133255,0,-2,-1,-1,-1,1,-1,-1
1529294981147377,-3,-1,0,-2,0,-2,0,-1
1529294981147377,-1,1,1,-2,0,0,0,0
1529294981154283,0,-2,-1,-1,0,-1,0,1
1529294981154283,0,0,0,-1,0,-1,-1,1
1529294981161195,0,-2,-1,1,-1,1,-1,-2
1529294981161195,-2,-1,0,0,0,-1,-1,-1
1529294981177432,-1,-1,0,0,0,-1,0,-1
1529294981177432,-1,1,-1,-2,0,0,0,0
1529294981177432,2,-1,0,-1,-1,0,-1,1
1529294981177432,0,-1,1,-2,-3,-1,0,-2
1529294981192299,0,-1,-1,-1,1,-2,0,-1
1529294981192299,1,0,0,-2,-1,-2,-1,-3
1529294981198280,-1,-2,-3,-1,-1,-1,-2,0
1529294981198280,0,-1,-1,1,0,0,-1,-1
1529294981213450,-2,0,0,1,0,1,-1,-2
1529294981213450,0,0,1,1,0,2,21,16
1529294981221470,-4,-1,-2,-1,5,-1,-25,-27
1529294981221470,0,-2,-2,-1,0,4,18,6
1529294981236697,-2,-1,-1,-4,-18,-10,-9,-3
1529294981236697,-1,0,0,-1,-3,0,-1,-2
1529294981252655,2,0,1,0,0,1,8,6
1529294981252655,-3,-1,-1,0,4,0,0,-2
1529294981254512,0,0,0,2,4,2,1,-1
1529294981254512,-1,-1,-1,1,-1,-2,-5,-4
1529294981258504,0,-2,-1,-3,-5,-1,4,4
1529294981258504,0,-1,-1,0,0,-2,-9,-5
1529294981273597,0,0,-1,0,1,2,5,4
1529294981273597,-1,-1,1,0,-1,-2,-9,-4
1529294981281449,0,0,-1,0,0,1,2,2
1529294981281449,-1,1,0,-1,-3,-3,-1,0
1529294981296544,-1,-1,1,-1,2,-1,0,-3
1529294981296544,-2,-2,-1,-1,-1,1,0,0
1529294981303539,-1,-1,0,2,-2,-1,1,0
1529294981303539,1,-1,-1,1,5,-3,-5,-1
1529294981312357,0,-4,-5,-9,-55,-9,-4,-4
1529294981312357,-2,1,-1,6,38,10,-1,-2
1529294981318709,-1,-1,-2,-6,-24,-16,2,5
1529294981318709,-1,-2,-1,5,30,1,-3,-3
1529294981333536,0,-1,0,0,1,-1,1,0
1529294981333536,-1,0,0,-2,1,-2,-2,-3
1529294981341760,1,0,-1,-2,-8,3,1,1
1529294981341760,0,0,-1,-2,-5,1,1,-1
1529294981356755,0,-1,0,2,18,1,-1,1
1529294981356755,1,-1,0,-2,-10,-1,-2,-1
1529294981363860,0,0,1,1,14,5,2,2
1529294981363860,-1,-1,-1,-4,-14,-2,-4,-1
1529294981372680,0,-1,0,2,17,5,2,-1
1529294981372680,-2,-2,-2,-4,-14,-3,-3,-3
1529294981378664,0,-2,0,-2,-2,-1,0,0
1529294981378664,0,-1,-1,-1,-2,-2,-1,0
1529294981394236,-1,-1,1,1,-2,-2,-1,-1
1529294981394236,-1,-3,-2,0,-3,-1,-1,-1
1529294981401222,-1,0,-1,1,5,0,-1,1
1529294981401222,0,0,0,-2,-7,0,0,1
1529294981416335,0,0,-1,0,10,3,-1,0
1529294981416335,0,0,-1,0,-6,-2,-1,-1
1529294981423613,1,3,-1,0,5,1,1,-1
1529294981423613,0,-1,-1,0,-6,-3,-1,1
1529294981439434,-1,-1,-1,-2,3,0,-1,0
1529294981439434,0,-3,0,-1,-1,-2,-2,-1
1529294981440428,-1,1,-1,0,-3,-1,-1,1
1529294981440428,1,0,-1,0,-1,0,0,-2
1529294981453522,0,0,-1,0,3,0,-2,0
1529294981453522,-2,-1,-1,-1,-1,1,0,-1
1529294981461399,0,-2,0,-1,3,2,-1,1
1529294981461399,-1,-1,-2,-2,-5,-1,0,0
1529294981476702,0,0,-1,0,1,-1,-1,0
1529294981476702,0,1,1,0,-5,-4,0,0
1529294981483893,-2,0,0,-1,0,0,-1,0
1529294981483893,-1,1,0,0,-2,-3,-1,-1
1529294981499845,3,2,2,2,10,-4,4,2
1529294981499845,-2,0,-2,-1,13,2,-5,-4
1529294981499845,-2,-3,-3,-4,-25,-10,-2,-3
1529294981499845,-1,-1,0,-1,-10,-2,-1,0
1529294981514147,0,1,1,2,8,0,2,1
1529294981514147,2,1,-2,-1,-5,-1,-1,-1
1529294981521005,-2,-1,-2,0,9,2,1,-1
1529294981521005,-1,-2,-1,-1,1,-2,-2,-2
1529294981536092,-4,-1,-2,-6,-13,-1,-2,-4
1529294981536092,0,-1,0,-1,0,-2,0,1
1529294981543322,0,0,1,0,3,1,-1,0
1529294981543322,-1,1,-1,-1,-2,0,0,0
1529294981559287,1,0,-2,-1,1,1,-3,-1
1529294981559287,-2,0,0,-2,-3,-2,-1,-1
1529294981560283,0,1,1,2,7,0,1,0
1529294981560283,-1,-1,0,-4,0,0,-1,-1
1529294981574198,0,0,0,0,-1,0,0,-1
1529294981574198,0,-1,-1,-1,-4,-3,0,1
