timestamp,emg1,emg2,emg3,emg4,emg5,emg6,emg7,emg8
1529564364792997,0,-1,-1,0,-1,-2,-1,-1
1529564364792997,-1,0,1,-1,0,-1,0,1
1529564364806962,-1,-1,-1,-1,0,-1,-2,-1
1529564364806962,-1,1,-2,-1,-1,-1,0,-1
1529564364814973,0,0,0,1,0,2,-1,-1
1529564364814973,-2,0,-1,0,-1,0,0,-1
1529564364820925,0,-1,0,0,-1,-2,0,-1
1529564364820925,-1,0,-1,1,0,-1,0,-1
1529564364835882,-1,-1,0,-1,0,0,-1,0
1529564364835882,-1,-2,-4,0,-1,-1,0,-1
1529564364843861,1,0,-1,-1,0,-1,0,-1
1529564364843861,-2,-1,-1,1,-1,0,-1,-2
1529564364852837,-3,0,-1,1,1,0,1,-1
1529564364852837,-1,-1,0,0,1,0,-1,0
1529564364866801,0,-1,-1,-1,-1,1,-1,0
1529564364866801,0,-1,1,-1,0,-2,2,-1
1529564364873783,0,-1,0,-2,-2,-1,0,-1
1529564364873783,-1,-2,-1,-2,-2,-1,0,0
1529564364881761,-1,-1,-1,-1,-1,1,-2,1
1529564364881761,0,-1,0,-1,-1,-1,-1,0
1529564364896721,-1,-1,-2,-3,-2,1,-1,-2
1529564364896721,1,-1,-2,0,0,0,1,0
1529564364903703,0,-1,0,-2,0,0,-2,-1
1529564364903703,1,0,-2,0,0,0,-1,-2
1529564364912678,-1,-1,-1,0,-1,-2,-2,1
1529564364912678,-1,0,1,0,-2,-2,-1,-1
1529564364926641,1,-1,-3,0,0,-1,0,-2
1529564364926641,-1,-3,-1,-1,-1,0,1,1
1529564364933623,0,1,0,0,-1,-2,0,-1
1529564364933623,0,-1,-1,-1,-1,-2,0,-1
1529564364941601,-2,-2,-1,0,0,-3,0,-1
1529564364941601,-1,-1,-2,-1,-1,-2,0,-1
1529564364956563,0,0,0,1,0,0,0,-2
1529564364956563,1,-1,-1,0,0,0,-1,-1
1529564364963543,-2,-1,0,1,0,-1,0,-2
1529564364963543,-1,-2,-1,-1,0,-2,-1,0
1529564364972517,-2,1,-1,-1,0,-1,-1,-1
1529564364972517,-1,0,-2,0,-1,0,0,-1
1529564364986517,0,1,-1,-1,-1,0,0,-1
1529564364986517,-1,1,0,-1,-2,0,-2,-1
1529564364993499,-1,-1,0,1,-1,-1,0,-1
1529564364993499,0,0,-1,-2,-2,-2,0,0
1529564365001479,1,0,-1,-1,-1,-1,-1,0
1529564365001479,-2,0,-1,-1,1,0,-3,0
1529564365016435,0,-1,0,-2,0,-2,-1,0
1529564365016435,0,0,-1,-1,1,0,-1,-1
1529564365023382,-1,-2,-2,-3,0,0,-1,0
1529564365023382,1,0,1,-1,-1,-2,0,1
1529564365032359,-2,-1,-2,2,1,-3,-1,2
1529564365032359,-1,-2,0,-1,0,-1,0,-2
1529564365047317,0,0,-2,0,-1,-1,1,-2
1529564365047317,1,-1,-1,0,0,1,-1,-1
1529564365053302,-2,-1,-1,0,-2,1,0,-1
1529564365053302,0,-1,0,-1,0,-1,0,0
1529564365061282,-1,-1,-1,-2,0,-2,-1,0
1529564365061282,-2,-1,-1,-1,-1,-2,0,-2
1529564365076242,-1,0,-1,-1,0,0,0,0
1529564365076242,-1,-1,-1,-2,-2,1,-2,0
1529564365084220,0,-1,-2,-1,-1,-1,-1,-1
1529564365084220,1,-1,-2,-2,-3,-1,-1,-1
1529564365093195,0,0,-2,-2,0,-1,-1,0
1529564365093195,-1,0,-1,1,0,1,-1,0
1529564365107205,-2,-2,-1,1,1,-1,-2,0
1529564365107205,-2,-1,1,-1,-1,-1,-1,-1
1529564365114139,-1,0,0,-1,-1,0,0,0
1529564365114139,0,0,1,-1,0,-1,-1,0
1529564365129101,0,-2,2,-2,-1,0,-1,-1
1529564365129101,0,-1,-2,0,1,0,0,-1
1529564365136118,-1,-1,-2,-1,1,-1,-2,-3
1529564365136118,-1,1,-1,-1,0,-1,0,-2
1529564365144097,-2,-1,0,0,-2,0,-1,1
1529564365144097,0,-1,0,-1,0,-1,-2,-1
1529564365153036,-2,-1,1,-1,-3,-1,0,0
1529564365153036,0,-1,-1,0,-1,-1,-2,0
1529564365167036,0,0,-1,0,-1,-1,-1,-1
1529564365167036,0,0,0,-1,0,-1,-1,0
1529564365173979,0,-1,-1,0,2,2,-2,-1
1529564365173979,1,0,-2,-1,-1,0,0,-1
1529564365189959,-1,-1,-1,0,0,0,-1,-1
1529564365189959,-2,-1,-2,-1,-2,-2,0,0
1529564365195967,0,0,-1,0,0,-2,0,0
1529564365195967,-2,-1,0,-1,0,-1,0,-1
1529564365203945,-1,0,0,-2,0,1,-1,-2
1529564365203945,0,-1,0,1,-1,-1,0,-1
1529564365212876,1,-2,-2,-1,-1,-2,-1,0
1529564365212876,0,-2,0,1,-2,0,0,-1
1529564365226875,0,0,0,-3,-1,-1,0,-1
1529564365226875,-1,-1,-2,1,0,-1,1,-1
1529564365233854,-1,-2,-1,0,-1,0,0,-1
1529564365233854,0,-1,-1,0,1,0,-2,-2
1529564365249778,-1,-2,0,0,0,-2,-1,-1
1529564365249778,1,-1,-1,-2,-1,0,-1,0
1529564365255760,0,0,-2,-1,-1,0,-2,0
1529564365255760,-2,1,0,0,0,-1,0,-1
1529564365263774,0,0,-1,0,-2,-1,0,-1
1529564365263774,-2,-1,-1,0,0,0,1,-1
1529564365272716,0,-1,-1,-1,-2,-1,-2,-1
1529564365272716,-1,-1,1,-2,-1,-1,0,0
1529564365286715,0,1,0,-1,0,1,2,0
1529564365286715,0,0,0,-1,0,0,-2,-1
1529564365293706,-1,-1,-1,-1,-1,-2,-1,-1
1529564365293706,-1,-2,-1,0,0,0,-1,0
1529564365309619,0,0,-1,-1,0,-2,-1,-1
1529564365309619,0,1,-1,0,-1,0,0,0
1529564365316598,-2,0,0,1,3,1,-2,-3
1529564365316598,0,-1,-1,-3,-2,-2,0,-2
1529564365323579,-1,-1,0,0,-1,0,-1,0
1529564365323579,0,-1,0,0,-2,0,-1,-1
1529564365332557,1,0,0,-1,-1,0,0,-1
1529564365332557,-1,0,0,-2,1,0,-1,-1
1529564365346564,0,0,-2,0,0,-2,-2,-2
1529564365346564,0,-1,-1,-2,0,-1,0,-1
1529564365353537,-1,0,-1,0,-2,0,-3,1
1529564365353537,0,-2,-1,0,-1,-1,0,-1
1529564365369511,0,-2,0,0,-1,0,1,-1
1529564365369511,-1,0,0,0,2,-2,0,-1
1529564365376477,-1,-2,2,-2,0,-1,-2,0
1529564365376477,-1,0,-2,1,-1,0,-1,1
1529564365383419,-2,0,-2,-1,0,-1,-1,0
1529564365383419,0,-2,0,1,0,0,1,-1
1529564365398380,0,-1,0,-1,0,1,1,1
1529564365398380,-1,1,-1,0,0,-1,-1,0
1529564365407365,0,0,0,-1,0,-1,-2,0
1529564365407365,-1,1,-2,-1,0,0,0,0
1529564365413339,0,0,-2,-1,0,1,1,-1
1529564365413339,-1,0,1,-1,-1,0,0,-1
1529564365429296,-1,-2,-1,0,-1,-1,0,0
1529564365429296,0,-2,1,-3,0,0,-2,-1
1529564365436277,0,-1,0,0,0,0,0,-2
1529564365436277,0,-2,-1,0,-1,1,-1,-1
1529564365444256,1,-2,-2,-1,-1,-1,1,-1
1529564365444256,0,0,0,0,1,-1,0,-2
1529564365460214,0,1,0,2,-1,-1,-1,-1
1529564365460214,0,-1,-1,-1,0,0,-1,-3
1529564365467229,0,1,0,-2,-2,0,-1,0
1529564365467229,0,-1,-2,-1,-2,-1,-3,-2
1529564365474176,-1,-1,0,0,-1,0,0,-1
1529564365474176,-1,0,-2,1,-1,-3,0,-1
1529564365489136,-1,-1,0,0,0,0,-1,0
1529564365489136,2,0,0,-1,-1,-1,0,-1
1529564365496117,-1,1,-1,-2,-1,-3,1,-1
1529564365496117,-1,0,1,0,1,0,-1,0
1529564365504096,1,-1,-1,0,0,0,0,-1
1529564365504096,-1,1,0,-1,-1,-1,-1,0
1529564365519058,-1,-1,-1,0,-1,1,-1,-1
1529564365519058,1,0,0,-1,0,-1,-2,-1
1529564365527034,0,0,-2,0,1,-1,0,1
1529564365527034,-1,0,-1,-1,-1,1,-2,0
1529564365534016,-1,-1,-1,-2,-2,0,0,-1
1529564365534016,-1,0,-2,-2,-1,-1,-1,-1
1529564365548977,-3,0,1,0,-1,0,-1,-1
1529564365548977,0,-1,-2,0,-1,0,-2,-2
1529564365555959,-1,-1,-1,0,0,-1,-1,-2
1529564365555959,-1,-1,-1,0,-2,0,1,0
1529564365564936,-1,-1,-2,0,0,-2,-1,1
1529564365564936,-1,-1,0,-1,-1,-1,-1,0
1529564365578896,0,0,-2,-2,1,0,0,0
1529564365578896,0,0,0,0,0,-2,-2,-1
1529564365586874,1,0,2,0,0,0,-1,-1
1529564365586874,-2,-1,0,-1,0,-1,1,-1
1529564365593903,1,-1,-1,0,0,-1,0,-1
1529564365593903,-3,0,-1,0,-1,-1,0,-1
1529564365609815,-1,-1,0,-2,-1,-1,-1,0
1529564365609815,0,-2,0,-1,-1,0,0,0
1529564365615846,0,-1,1,0,-1,1,-1,0
1529564365615846,0,-1,1,0,0,0,-1,0
1529564365623825,-1,0,-1,-1,-1,1,-1,-1
1529564365623825,-1,1,1,0,0,-2,-1,-1
1529564365638784,-2,1,-1,0,0,0,0,1
1529564365638784,0,-2,-1,0,0,0,1,-1
1529564365646754,-1,0,-1,0,1,0,1,-1
1529564365646754,-1,0,-1,-1,-2,-2,-3,-3
1529564365653744,-1,-1,-1,-1,0,0,-1,-1
1529564365653744,-1,1,1,0,1,0,-1,0
1529564365669700,0,0,-1,-1,-1,0,-1,-1
1529564365669700,0,0,0,0,0,-1,-1,-1
1529564365676634,0,-1,-2,-1,-1,-2,-1,0
1529564365676634,0,-2,-2,1,-1,0,-3,0
1529564365691597,-1,-1,-1,0,-2,-1,0,-2
1529564365691597,0,-1,-2,-1,-1,-2,1,-1
1529564365698614,-1,-1,-1,-2,0,-1,-1,-1
1529564365698614,1,0,-2,-1,-1,-1,0,0
1529564365715568,0,-1,-1,-1,-1,-2,-2,-1
1529564365715568,1,1,-1,0,-1,-1,-1,1
1529564365716529,-1,-1,0,-1,-1,0,0,0
1529564365716529,0,-1,0,-2,-1,0,0,-2
1529564365729494,-1,1,-1,-1,0,-1,-1,-1
1529564365729494,0,-1,-1,-2,1,0,0,0
1529564365736495,-1,-2,-1,-1,-1,-2,-2,-1
1529564365736495,0,0,-1,-1,-2,2,-1,0
1529564365752433,0,-1,-2,-2,-1,-1,-1,0
1529564365752433,0,-1,0,-2,-1,0,-2,1
1529564365758463,1,-1,0,0,0,-2,-1,-1
1529564365758463,-2,0,-1,0,-1,-1,0,-1
1529564365775427,1,0,-1,0,-1,-2,0,-1
1529564365775427,-1,-1,0,0,-1,1,-2,-1
1529564365776423,2,0,-3,-1,1,0,0,0
1529564365776423,-1,0,0,-1,-2,-1,0,1
1529564365789387,-1,0,0,0,-1,-2,-2,-1
1529564365789387,0,0,-1,0,0,0,-1,-3
1529564365796770,0,0,0,0,1,0,-1,0
1529564365796770,0,-1,-3,0,-1,-2,0,-1
1529564365812563,0,-1,0,1,-2,1,0,1
1529564365812563,-2,-2,-1,-2,0,-1,-1,0
1529564365818529,0,0,-2,0,-2,0,-1,0
1529564365818529,0,-1,-1,-1,1,-2,-1,-1
1529564365835650,0,-1,-1,0,0,1,1,0
1529564365835650,0,-1,-1,0,-1,0,1,-1
1529564365836532,-1,-1,-1,-1,-2,0,-1,-1
1529564365836532,0,0,-2,-2,-1,0,-1,1
1529564365850440,-1,-2,-1,-2,-2,-2,-1,-1
1529564365850440,-1,0,0,1,-1,-2,-1,1
1529564365856429,0,0,0,0,-1,-2,-2,-1
1529564365856429,-1,-1,-1,0,0,0,-1,-2
1529564365871746,-1,0,0,0,1,-1,0,-1
1529564365871746,0,-2,-2,-1,1,0,-2,-1
1529564365878406,-1,0,-1,-1,1,-2,0,0
1529564365878406,-2,0,-1,-3,0,-1,-2,-3
1529564365895136,-2,0,-1,-1,-1,0,-1,1
1529564365895136,-1,-1,-1,-1,0,0,0,0
1529564365895136,0,0,-1,-1,-3,0,0,-1
1529564365895136,1,-2,-1,1,-1,1,0,-1
1529564365910758,0,-2,-3,0,2,-2,-2,-1
1529564365910758,0,1,-1,-1,0,-1,0,-2
1529564365924749,0,0,0,-2,-1,1,-1,0
1529564365924749,-1,-1,-1,-1,-1,-1,0,0
1529564365931905,0,-1,0,1,-1,-1,0,-2
1529564365931905,-1,0,0,-2,-1,-1,-1,0
1529564365939634,0,0,-1,-1,1,0,1,-1
1529564365939634,-2,0,0,-1,-2,0,-3,0
1529564365954932,-1,1,0,-2,-1,-2,-1,-1
1529564365954932,-1,-1,0,-2,0,-1,-1,1
1529564365955589,-1,1,1,0,-1,-1,-1,-2
1529564365955589,-1,0,-1,-2,0,-1,0,0
1529564365970546,-1,-2,-1,-1,-1,0,1,-1
1529564365970546,-1,1,-2,0,-4,0,0,-1
1529564365976531,-2,0,0,-1,-1,-2,1,-1
1529564365976531,1,-1,-1,0,-1,-1,0,1
1529564365991491,0,-1,0,-2,0,0,-1,0
1529564365991491,0,-2,0,-1,-1,-2,1,-1
1529564365998473,-1,-1,1,-1,1,2,-1,-1
1529564365998473,-1,0,0,0,-1,-1,1,-2
1529564366014432,-2,1,1,-1,0,-1,0,-1
1529564366014432,-1,-1,0,0,1,0,0,-1
1529564366015427,-2,-2,-2,0,0,0,-2,0
1529564366015427,0,0,1,-1,1,-1,0,2
1529564366030413,-1,-2,-1,0,0,0,-1,0
1529564366030413,-1,0,-1,0,-2,-1,0,-1
1529564366036527,-1,-1,-1,1,-2,-1,-1,-1
1529564366036527,1,-1,0,0,0,0,-1,-2
1529564366051688,0,0,-1,0,0,1,-1,0
1529564366051688,-1,-2,-1,-1,0,0,-3,0
1529564366058640,0,-1,0,0,-1,0,-1,-1
1529564366058640,-1,-2,-2,0,-1,-2,-1,-1
1529564366074816,0,0,0,-2,-1,0,-1,-2
1529564366074816,0,0,-1,0,0,-1,0,-2
1529564366074816,0,0,1,-1,0,-2,-2,-2
1529564366074816,-1,1,-1,-1,0,0,0,-1
1529564366089777,-1,-1,-1,0,0,-1,-1,-2
1529564366089777,1,-1,0,-1,-3,-1,-1,0
1529564366096770,-2,-1,-1,0,-1,0,1,0
1529564366096770,-1,0,-2,0,0,-1,0,-1
1529564366111413,1,-3,-1,-1,-2,0,1,1
1529564366111413,-3,0,-3,1,2,1,1,0
1529564366119062,0,-1,0,-1,1,-1,0,-1
1529564366119062,-1,-1,0,-1,0,0,1,0
1529564366134202,0,0,-2,-1,1,-1,-1,0
1529564366134202,-1,1,1,-1,0,0,-1,0
1529564366135019,0,-3,-2,1,-2,0,0,-1
1529564366135019,-1,-1,-1,-3,0,-1,-1,-1
1529564366150141,-1,0,-1,-1,-1,0,0,0
1529564366150141,0,-1,-2,-2,0,-2,-1,-1
1529564366156183,-2,0,0,-1,0,-1,-2,-1
1529564366156183,0,0,0,0,1,-1,-3,-1
1529564366171475,-1,-2,0,0,0,2,0,-1
1529564366171475,-2,1,0,-1,-1,-2,0,0
1529564366178604,-2,-1,-2,-1,-1,-3,-2,0
1529564366178604,0,-2,-2,0,-1,-3,1,0
1529564366194711,0,-1,0,-1,-1,0,-2,0
1529564366194711,1,0,1,3,-1,1,-1,-1
1529564366195709,0,-2,0,-4,-3,0,1,-1
1529564366195709,-1,-1,0,-1,0,0,-2,0
1529564366210669,-2,1,-2,-2,-2,-3,-1,-2
1529564366210669,0,-2,-1,1,0,0,-3,-1
1529564366216659,0,1,1,1,0,0,-1,-1
1529564366216659,0,-1,-3,3,1,-1,-1,-1
1529564366231615,-1,-1,0,1,1,0,0,0
1529564366231615,-2,-2,-2,-8,-3,-1,1,-1
1529564366238763,-3,-1,-1,0,0,0,1,0
1529564366238763,-1,0,-1,-1,-3,0,1,-1
1529564366255012,-1,1,0,2,1,-1,-1,-1
1529564366255012,1,-1,0,0,0,-2,0,-1
1529564366255012,0,0,-1,-2,-1,-1,-1,-1
1529564366255012,0,-1,2,0,1,-1,-2,0
1529564366269852,-2,-1,1,-1,-1,-1,0,-1
1529564366269852,-1,0,-1,0,0,-1,1,0
1529564366275836,0,-1,-1,0,0,-2,0,-1
1529564366275836,0,-1,0,-1,1,0,-1,0
1529564366290796,1,-1,0,0,-2,-2,-2,0
1529564366290796,-1,0,-2,1,0,-2,-3,0
1529564366298774,1,0,-1,0,1,-1,-1,0
1529564366298774,-1,-1,0,-1,-4,0,-1,-1
1529564366314735,-1,-2,-1,-1,-2,-1,0,-1
1529564366314735,0,0,-1,-1,0,-1,-1,0
1529564366314735,-2,1,-1,0,-1,-1,-1,0
1529564366314735,0,-1,-2,0,-1,0,-2,-2
1529564366330691,0,-1,0,-2,2,-1,-1,-1
1529564366330691,-1,-2,-3,2,-1,1,-2,0
1529564366337179,-1,0,-1,0,-1,-1,-1,0
1529564366337179,-2,-2,1,-2,-1,-1,0,0
1529564366351922,0,0,-2,1,0,-2,0,-1
1529564366351922,0,-2,0,-1,0,-1,0,-1
1529564366359247,0,-1,-2,-1,0,-1,1,-1
1529564366359247,0,-1,1,-1,0,-3,0,-2
1529564366374019,-1,-3,-3,-2,-1,-1,-1,0
1529564366374019,0,-1,0,-1,0,0,-1,-1
1529564366381178,-1,-1,-2,0,0,-2,0,0
1529564366381178,0,1,-1,0,-1,-1,-1,1
1529564366390135,0,-1,-1,-1,0,0,0,0
1529564366390135,0,1,1,0,-1,0,0,0
1529564366396146,-1,0,1,1,2,1,1,0
1529564366396146,-1,-1,-3,-4,-2,-1,0,-1
1529564366411933,0,1,1,-1,-1,1,0,0
1529564366411933,-1,-1,-1,-1,1,-1,-1,-1
1529564366419312,0,-2,1,0,-3,-1,-2,-3
1529564366419312,-2,-1,0,3,1,-1,1,-1
1529564366435270,-1,0,-1,-8,-5,-1,-1,-1
1529564366435270,-2,-1,-1,1,1,0,-1,-2
1529564366441067,1,0,-2,0,0,1,0,0
1529564366441067,-1,-1,-1,1,0,-1,0,1
1529564366450276,-1,0,-1,2,-1,0,0,0
1529564366450276,-1,0,-1,0,-1,-2,-2,1
1529564366456226,0,0,-1,-3,-2,-2,-1,0
1529564366456226,1,1,-1,0,-1,0,-1,-1
1529564366472052,0,-1,0,2,1,0,0,0
1529564366472052,0,0,-2,-4,-1,-1,1,-1
1529564366479163,-2,-2,-1,0,0,-2,-3,-1
1529564366479163,0,0,-2,-1,-2,0,0,-1
1529564366493957,-1,0,1,-1,1,0,0,-1
1529564366493957,-1,-1,1,-2,-1,-1,1,-2
1529564366501939,0,0,-1,-3,-1,-1,0,0
1529564366501939,-1,-1,-1,0,0,0,1,0
1529564366510229,0,-1,0,0,-1,0,-1,1
1529564366510229,0,-1,-1,1,-2,-1,-1,0
1529564366517074,-2,0,0,0,-1,-2,0,0
1529564366517074,-1,-1,0,-2,1,-1,0,-2
1529564366531859,1,1,-1,2,0,-1,-1,-1
1529564366531859,-1,-1,0,-1,1,-2,-1,0
1529564366539176,-1,-2,-1,-1,-1,-1,-2,-1
1529564366539176,0,1,-1,-1,-1,0,-1,-1
1529564366554016,-1,-2,0,0,-1,0,1,0
1529564366554016,0,0,-1,-1,-2,0,1,-1
1529564366561181,0,-1,-1,0,0,-1,-2,0
1529564366561181,0,0,0,-2,1,-2,0,-1
1529564366576961,-1,-1,-2,0,1,-2,-2,0
1529564366576961,1,0,-1,0,-2,-1,0,0
1529564366577955,-1,0,-1,-2,-1,-1,0,1
1529564366577955,0,0,-3,-2,-2,-1,-1,-1
1529564366590920,1,1,-1,1,0,-1,-2,-2
