timestamp,emg1,emg2,emg3,emg4,emg5,emg6,emg7,emg8
1529306911130722,0,1,-2,4,9,-5,-3,0
1529306911130722,2,3,2,0,4,10,4,0
1529306911137703,-3,-3,-4,-9,-15,-8,-2,-3
1529306911137703,-2,0,1,8,14,4,-2,-1
1529306911145682,-2,-5,-7,-13,-24,-17,-6,-4
1529306911145682,0,-3,4,5,5,3,2,-1
1529306911160642,-2,-3,-1,0,-4,0,-1,-1
1529306911160642,0,4,4,6,6,3,2,1
1529306911168620,-1,-2,-2,-4,-10,-7,-2,-4
1529306911168620,-3,-2,-2,-4,2,-9,-2,-2
1529306911182584,0,2,1,2,-2,0,0,0
1529306911182584,-2,0,-1,-7,4,15,6,2
1529306911190562,-1,-2,1,10,9,4,-2,0
1529306911190562,-3,-1,-3,-4,-2,-1,-3,-1
1529306911205521,0,0,1,-1,4,-1,0,-1
1529306911205521,5,2,2,3,-6,-7,0,1
1529306911212504,-2,-1,1,7,4,2,0,0
1529306911212504,1,4,-3,-8,-10,-1,-3,0
1529306911227465,-1,-1,-1,9,2,-15,-3,0
1529306911227465,0,-4,-5,-10,6,15,2,-2
1529306911235443,1,3,7,14,2,1,3,1
1529306911235443,-1,-3,-2,-2,5,13,5,-1
1529306911250401,-3,-3,1,-2,5,5,-1,-3
1529306911250401,-2,-2,-3,-6,-12,-19,-6,-4
1529306911268353,2,2,-1,-1,5,9,6,2
1529306911268353,-3,-5,-5,-12,-18,-14,-6,-4
1529306911273342,-2,-2,-4,-3,2,2,-1,-2
1529306911273342,-2,-1,3,7,-3,-6,-5,-2
1529306911287304,0,1,2,5,0,0,-1,0
1529306911287304,-3,-2,-7,1,2,1,-4,-3
1529306911295281,0,-5,-8,-24,-12,-6,-4,-2
1529306911295281,-3,1,-5,-6,-4,0,-1,-1
1529306911310241,-3,-4,-1,8,-17,-24,-7,-4
1529306911310241,2,3,6,9,17,28,12,4
1529306911325243,-3,-4,-8,-17,-8,9,-1,1
1529306911325243,-3,-5,-6,-19,-21,-21,-5,-3
1529306911332198,3,4,9,34,30,20,10,2
1529306911332198,1,-1,-4,-7,-6,-2,1,-3
1529306911348157,-1,-2,-1,5,1,-1,-2,-1
1529306911348157,-4,-4,0,0,-2,2,-3,-2
1529306911355121,-3,0,-4,-19,-14,-12,-6,-3
1529306911355121,-1,-1,-2,-2,-3,-10,-1,-1
1529306911371079,0,2,6,15,10,15,5,-2
1529306911371079,-1,0,-2,-7,5,-1,-1,0
1529306911385041,-2,-4,-4,-13,-9,-6,-5,-1
1529306911385041,-1,2,6,11,-3,-11,-3,-2
1529306911393035,-4,-3,0,6,17,7,1,0
1529306911393035,-1,0,-5,-10,-3,2,0,0
1529306911407981,-2,0,-3,-3,5,5,-1,-1
1529306911407981,2,-1,-1,6,4,-1,1,-1
1529306911414961,2,1,4,4,-1,-4,-1,-3
1529306911414961,1,-1,-1,-2,-5,-1,1,-1
1529306911437901,0,4,9,20,9,1,0,-1
1529306911437901,-3,-3,-6,-15,-6,-2,2,-1
1529306911452861,-3,-6,-2,4,-12,-4,-2,-3
1529306911452861,-3,0,-8,-11,3,0,-1,0
1529306911459842,0,3,4,3,0,0,-3,0
1529306911459842,-1,0,-2,-4,0,1,0,0
1529306911474801,-2,-6,-13,-18,-5,3,1,-1
1529306911474801,-3,-2,-1,-11,-6,-5,-3,-2
1529306911489762,2,5,10,39,21,7,3,3
1529306911489762,-4,-4,-6,-20,-13,-3,-1,-2
1529306911505720,-3,-4,-5,-9,-2,-4,-3,-4
1529306911505720,0,-3,-4,-1,1,-3,-2,-2
1529306911512700,-2,-1,1,-5,-3,-1,2,0
1529306911512700,-3,-2,-6,-9,-4,-1,-3,-2
1529306911527660,1,2,1,-4,0,-1,1,1
1529306911527660,-2,-3,0,6,1,2,1,-3
1529306911534644,-2,0,-4,-9,-3,-2,-1,-2
1529306911534644,-2,-3,0,12,3,-4,-4,-3
1529306911549602,-1,-1,-1,-11,-1,1,2,1
1529306911549602,1,3,1,5,-1,0,-1,-1
1529306911565558,1,-2,2,-1,-3,-2,-1,1
1529306911565558,1,3,3,8,10,3,-2,-1
1529306911572543,-5,-1,0,7,0,-5,-2,-3
1529306911572543,0,-2,-5,-8,1,1,1,-2
1529306911587501,-2,1,-2,-12,-7,-3,-3,-2
1529306911587501,1,-3,-1,4,-2,-5,-2,0
1529306911595531,2,1,1,-5,-2,-2,-2,0
1529306911595531,-2,-4,-3,6,-2,1,-1,-2
1529306911610458,-2,-1,-6,-15,-6,-1,-4,-3
1529306911610458,-3,-2,5,9,5,2,-2,-3
1529306911625399,0,0,-3,-5,-2,-2,-2,0
1529306911625399,-2,2,-2,-5,-1,-2,0,0
1529306911632416,-1,-3,5,12,5,0,-2,-1
1529306911632416,1,2,-2,3,1,2,-1,0
1529306911647340,-1,-1,-2,-4,-1,0,0,-1
1529306911647340,-2,-2,1,2,-2,-1,-2,-2
1529306911655323,-1,-3,-5,-8,-7,-5,-3,0
1529306911655323,1,0,0,-2,-2,-2,1,0
1529306911670279,1,0,2,9,6,6,-1,-1
1529306911670279,-2,-1,-3,-6,-4,-5,-4,-1
1529306911685241,-4,-6,-8,-9,-5,-2,-3,-4
1529306911685241,1,0,1,2,-1,2,4,2
1529306911692222,-1,-3,-2,-8,-8,-1,-2,-2
1529306911692222,0,2,-1,-2,-2,-5,-2,-1
1529306911708179,0,-3,1,6,7,6,0,0
1529306911708179,1,-3,-2,-5,-2,-4,1,2
1529306911715160,-2,-2,-1,3,7,2,-4,-3
1529306911715160,1,-1,0,-12,-13,-8,-4,-1
1529306911730121,2,6,3,12,9,4,2,2
1529306911730121,-3,0,1,4,-2,1,-4,-2
1529306911745079,-2,-2,-1,0,-5,-9,-3,-5
1529306911745079,0,0,-1,-2,-1,-1,-2,-2
1529306911753058,1,-2,-1,0,0,-2,-3,-3
1529306911753058,-2,-5,-5,-3,0,2,-1,-1
1529306911768028,-1,0,-2,-3,-5,-1,1,1
1529306911768028,0,2,2,-3,-6,-4,-2,-1
1529306911774999,-5,-2,-4,-5,-4,-1,-1,-2
1529306911774999,-1,3,-1,1,1,2,1,0
1529306911789959,-1,0,3,5,5,-2,-4,-1
1529306911789959,-4,-7,-10,-15,-7,-10,-1,-2
1529306911804932,-2,-4,-5,-9,-5,-2,-2,-2
1529306911804932,0,0,1,4,-3,4,1,1
1529306911812935,1,1,1,-1,11,-1,0,0
1529306911812935,1,0,4,18,0,-2,1,1
1529306911827860,-1,-1,-1,-14,-6,-3,-1,-1
1529306911827860,-3,-2,-7,-2,1,2,0,-1
1529306911834884,1,3,2,-1,4,2,0,-2
1529306911834884,-1,2,6,12,7,2,0,0
1529306911849838,-1,0,0,-4,1,-2,-1,-1
1529306911849838,0,0,2,24,1,0,1,0
1529306911864759,0,0,1,4,-7,-1,1,2
1529306911864759,1,2,5,9,12,4,2,-1
1529306911872740,1,-1,4,14,1,2,0,0
1529306911872740,-1,0,1,7,5,2,0,0
1529306911887699,0,-2,-1,-2,-8,-1,0,0
1529306911887699,0,-2,-6,-23,1,2,-1,0
1529306911894692,-2,-2,-3,-9,-10,-7,-2,-1
1529306911894692,0,2,7,21,12,6,1,-1
1529306911909639,0,0,-2,-7,0,2,1,1
1529306911909639,-3,-1,-1,-4,-9,-4,-3,-1
1529306911924601,-1,-2,-5,-8,2,1,0,-1
1529306911924601,-1,-3,-3,2,4,0,-1,-1
1529306911932579,1,4,12,13,5,3,2,3
1529306911932579,-4,-3,-3,-5,-7,-5,-3,-3
1529306911947539,1,1,2,15,5,-2,-1,-1
1529306911947539,-1,0,-4,-12,-7,-3,0,-1
1529306911955519,0,0,-1,1,0,-2,-3,-1
1529306911955519,-2,-2,-3,-6,-3,-3,-3,-1
1529306911970475,-2,-2,-3,-11,-7,-4,-1,0
1529306911970475,-1,-3,0,-6,-2,-2,0,-3
1529306911985435,-1,-1,-9,-18,-5,-3,-3,-2
1529306911985435,-1,1,8,26,2,-1,-4,-2
1529306911992417,0,-1,-6,-15,-9,-3,1,-3
1529306911992417,-3,-3,0,0,-1,-3,-3,-2
1529306912007377,1,0,2,7,5,1,0,-1
1529306912007377,-1,0,-3,-9,-5,0,1,1
1529306912015356,-2,-2,-4,-7,-4,-4,-3,-4
1529306912015356,-2,0,-4,-7,-2,-3,1,-1
1529306912030316,-3,0,0,6,-1,-1,-2,-2
1529306912030316,0,-2,-1,-8,-6,-1,-3,-2
1529306912045276,1,-2,3,4,3,-1,-2,-1
1529306912045276,-1,-1,-2,-5,-5,-3,-2,-1
1529306912052257,-4,-6,-9,-11,-6,-1,-2,-5
1529306912052257,2,1,1,-2,-5,-3,-1,0
1529306912067217,0,2,1,3,-4,-2,-1,-2
1529306912067217,1,-1,-1,-3,2,-1,-1,1
1529306912075196,-3,0,3,10,2,-1,0,0
1529306912075196,-1,-3,-3,-8,-4,-1,1,-1
1529306912090158,-1,0,-1,0,0,-2,0,-1
1529306912090158,-1,-1,2,-3,-7,-4,-2,-2
1529306912105132,-1,1,0,0,-3,0,-3,0
1529306912105132,-2,-2,-3,4,-4,-2,-1,-1
1529306912113134,1,-1,-3,-12,-8,-2,1,1
1529306912113134,-2,-2,2,3,4,0,0,-1
1529306912128110,2,1,1,-5,-1,2,2,0
1529306912128110,0,0,0,-2,2,0,0,-1
1529306912135091,-1,-3,0,4,-1,-3,-3,0
1529306912135091,-3,-3,-5,-6,1,-1,-1,-1
1529306912150049,-2,-4,-3,-2,-3,-2,-3,-1
1529306912150049,-3,0,3,3,2,-1,0,-3
1529306912158030,2,1,-2,1,2,3,2,-1
1529306912158030,0,0,-4,-5,-2,-1,-3,-2
1529306912165010,-1,-2,-2,-2,-2,-2,1,-1
1529306912165010,0,1,-2,-3,-1,-1,-1,0
1529306912172988,-2,-1,2,1,3,0,-1,-2
1529306912172988,-1,0,-1,-3,-2,-2,-2,-1
1529306912187935,1,-1,-2,3,2,3,-1,0
1529306912187935,-1,-2,-3,-1,0,0,-1,-1
1529306912194876,2,0,-1,0,-1,-5,-3,-2
1529306912194876,-2,-5,-2,-2,-1,-2,-2,-4
1529306912210867,-3,0,-1,-1,-3,-3,1,-2
1529306912210867,0,0,1,3,3,0,0,0
1529306912218337,1,-1,-2,-5,-2,1,1,-1
1529306912218337,0,-2,-3,-3,-6,-5,-4,-3
1529306912233334,0,-2,1,6,14,6,2,1
1529306912233334,-2,-4,-5,-6,-3,-1,-2,-1
1529306912240140,-1,-2,0,-2,-8,-5,-2,0
1529306912240140,1,1,4,6,1,3,2,1
1529306912254964,-2,-2,-2,-4,-5,-6,-4,-2
1529306912254964,-2,0,-2,-5,-1,1,0,-1
1529306912263315,-1,0,1,1,0,0,0,1
1529306912263315,-2,-1,-1,-1,1,-2,-1,-3
1529306912277870,-3,-4,-3,2,2,-2,-3,-3
1529306912277870,-1,-1,-2,-3,-7,-3,-2,1
1529306912285879,1,0,0,2,1,3,0,1
1529306912285879,-4,-4,-3,-3,-1,-8,-4,-4
1529306912293069,1,0,2,3,3,13,5,0
1529306912293069,-3,-2,-3,-6,-6,-3,-1,-2
1529306912308412,-1,-4,0,-2,-3,-4,-2,-3
1529306912308412,1,2,0,-3,-5,-3,-2,-1
1529306912315468,-2,-2,-1,5,1,-2,-4,-2
1529306912315468,-2,-2,-5,-8,-5,-3,-3,-2
1529306912337512,1,1,1,3,0,3,-2,1
1529306912337512,-2,-1,-1,2,2,0,-1,-1
1529306912345566,0,-1,1,-4,-6,-5,-1,1
1529306912345566,0,0,-1,-3,2,3,1,-1
1529306912352693,-1,-2,1,1,0,-5,-4,-1
1529306912352693,1,-1,1,0,1,2,-1,1
1529306912360341,-2,0,1,4,0,-4,-4,-4
1529306912360341,1,-2,-4,-4,-1,1,1,-1
1529306912375301,-7,-5,-5,-5,-7,-5,-5,-2
1529306912375301,2,-1,-3,0,0,2,1,-1
1529306912390265,-11,-7,-4,-4,-3,-2,-3,-6
1529306912390265,4,1,1,3,1,2,7,8
1529306912398242,-1,-1,0,-1,-3,-1,-2,0
1529306912398242,-8,-4,-3,-5,-5,-8,-4,-5
1529306912405470,-1,2,-2,-3,1,2,2,-2
1529306912405470,2,-2,0,-2,-4,-2,-4,7
1529306912420694,0,0,1,-2,-2,-1,-1,-1
1529306912420694,-9,-6,-2,-2,-1,-2,-7,-6
1529306912427673,0,0,-1,1,-2,-1,0,2
1529306912427673,-2,-1,-1,-6,-1,3,-1,-2
1529306912450599,-2,-6,-4,-4,-7,-5,-5,-4
1529306912450599,3,1,0,3,2,0,2,0
1529306912458358,-6,-3,-3,-5,-1,-1,-1,-4
1529306912458358,4,2,2,6,2,1,-1,0
1529306912472292,3,2,0,-2,-4,-1,2,7
1529306912472292,-1,2,1,-1,-1,0,-2,-1
1529306912480843,1,-3,-2,0,1,1,1,0
1529306912480843,-5,1,0,-1,-1,-2,-1,-3
1529306912495192,2,0,-2,-1,1,0,-1,4
1529306912495192,0,-2,-3,-1,-3,-5,-3,-2
1529306912510499,4,3,-2,-1,-2,-2,0,-3
1529306912510499,-14,-3,-3,-2,-2,0,3,-2
1529306912518421,0,0,-1,-1,-1,0,1,3
1529306912518421,2,0,0,1,1,2,4,5
1529306912525461,1,1,-1,2,-1,0,0,-3
1529306912525461,-2,-1,-4,-6,-6,-4,-4,-4
1529306912540191,1,2,-2,-2,-1,-3,2,0
1529306912540191,-4,-4,-2,-1,0,0,-2,-3
1529306912548327,-1,1,1,0,-1,-1,0,-1
1529306912548327,-1,-2,2,5,3,0,-2,-2
1529306912563362,0,-3,-1,-1,-3,-4,-2,-1
1529306912563362,-4,-2,-1,-3,-4,-9,-6,-2
1529306912570804,4,3,-1,2,7,13,4,1
1529306912570804,-1,1,1,-1,2,3,0,-2
1529306912585876,-4,-1,0,-2,-2,-6,-4,-5
1529306912585876,4,3,-2,-4,-3,-2,1,-1
1529306912600896,-2,-4,-2,-2,1,3,0,-3
1529306912600896,-7,1,-1,0,1,-5,-3,-5
1529306912607904,1,-1,1,0,6,9,7,5
1529306912607904,0,-2,0,1,-2,-2,1,-3
1529306912622833,-1,-2,-1,-1,-5,-4,-3,-1
1529306912622833,-3,-2,1,0,-4,-4,-3,-3
1529306912629811,-1,-2,-3,-2,-5,-9,-5,-2
1529306912629811,1,0,1,1,5,10,3,1
1529306912645814,-1,-1,0,1,2,0,-1,-2
1529306912645814,0,-1,-3,0,-4,-5,-1,0
1529306912660816,-6,-2,-2,-1,-2,0,-2,-1
1529306912660816,-3,0,-3,-4,-3,-1,-1,-5
1529306912667949,-1,-4,-1,1,-2,-6,-2,-2
1529306912667949,1,-3,-3,-5,1,5,0,0
1529306912682915,2,0,-2,0,-5,-5,-1,0
1529306912682915,-1,0,0,0,5,11,1,-2
1529306912690813,-4,-2,-2,-4,-8,-11,-4,0
1529306912690813,-1,1,-1,1,-1,-7,-4,-3
1529306912704916,1,-2,-3,-2,-5,-6,-1,-2
1529306912704916,-2,-2,-1,-1,2,-3,-1,-3
1529306912728165,3,0,0,0,0,0,1,2
1529306912728165,-1,-3,-1,-3,-3,-3,-1,-1
1529306912735146,-1,0,0,0,2,5,1,0
1529306912735146,-1,-3,-2,-1,-4,-5,-2,-4
1529306912750107,-1,2,-1,0,-1,-4,-2,-1
1529306912750107,-1,-2,-1,-1,1,5,1,1
1529306912758527,-2,-3,-2,-1,-5,-4,-4,-3
1529306912758527,-2,-2,-3,0,-1,-4,-1,-1
1529306912773044,-2,-1,1,0,4,6,2,-1
1529306912773044,2,-1,-1,-2,-1,1,0,0
1529306912787583,-2,-1,-2,0,0,0,-2,-1
1529306912787583,-2,0,-1,0,-3,-2,-1,-1
1529306912803396,-1,1,-2,-2,0,-6,-1,-2
1529306912803396,-2,0,1,1,1,4,0,-1
1529306912810522,1,0,-2,-2,0,1,2,0
1529306912810522,-2,-3,0,-2,-1,-2,-2,-2
1529306912825354,-2,-2,0,-2,-1,1,-1,-1
1529306912825354,-3,-1,-1,-1,-4,-1,-1,-2
1529306912840072,4,-1,-1,0,1,2,-1,0
1529306912840072,0,-1,0,0,-1,1,-1,-2
1529306912848371,-4,-2,-2,-1,-1,-3,-1,-1
1529306912848371,-1,-2,0,0,-2,-1,1,0
1529306912863253,-2,0,0,-2,1,2,0,0
1529306912863253,-1,-3,-1,-1,-2,-3,-3,-2
1529306912870227,-3,-2,-2,0,-2,-3,-1,0
1529306912870227,-3,-1,-1,-1,2,0,-2,0
1529306912885188,1,-1,-2,-1,0,0,1,3
1529306912885188,-1,-3,-1,-1,1,2,0,-2
1529306912899889,-3,-2,0,0,0,-1,-1,0
1529306912899889,2,1,1,-1,-1,-1,0,0
1529306912907864,0,-1,-1,0,-1,-2,-1,-2
1529306912907864,2,0,2,-1,-2,-1,-1,0
1529306912922241,-3,-3,-1,-2,-1,-3,-2,-1
1529306912922241,-3,-1,-2,-3,-1,0,1,0
1529306912930563,2,2,-1,-1,-3,1,0,-2
1529306912930563,-2,0,-2,-2,-1,-2,-1,-1
1529306912945322,0,-2,-2,0,0,1,-2,-1
1529306912945322,-1,-1,0,0,-1,1,-3,-1
1529306912953381,0,-2,0,-1,-1,-1,-1,-2
1529306912953381,-5,-1,-3,-1,0,-3,-2,-7
1529306912968384,-2,0,-2,-1,-1,0,-3,0
1529306912968384,-1,-2,-2,0,-1,-1,0,2
1529306912983495,-4,-1,-1,-1,-1,-1,-4,-3
1529306912983495,4,1,-1,-1,-1,-2,-2,1
1529306912990666,1,0,0,-1,-2,-2,-2,0
1529306912990666,-10,-3,-1,-2,-2,1,-1,-3
1529306913005172,0,0,-2,-1,-2,-1,1,-3
1529306913005172,0,-1,-1,-1,-1,0,0,-1
1529306913013388,-3,0,-1,0,-1,0,-2,-2
1529306913013388,4,-1,0,-1,-2,1,0,5
1529306913028090,-1,0,0,-1,-1,-1,-1,-2
1529306913028090,3,2,-2,0,-1,0,-2,3
1529306913043526,-7,-1,-1,-1,-1,-1,-3,-11
1529306913043526,4,-3,-1,-2,0,1,1,9
1529306913050676,-3,-1,0,-2,0,0,-2,-2
1529306913050676,-2,1,0,-2,-1,-1,-1,0
1529306913065560,-2,-1,-1,-2,-2,-3,0,-3
1529306913065560,-3,-1,0,-1,-2,-4,-2,-6
1529306913073322,-1,-2,-1,0,0,-2,-2,1
1529306913073322,0,-1,-2,-1,-2,-1,1,0
1529306913087993,-3,-3,-2,-2,-1,-2,-1,1
1529306913087993,-2,-1,0,0,-1,0,-3,-3
1529306913103011,-7,-2,-1,0,-1,0,0,2
1529306913103011,1,1,-2,-1,-1,0,0,0
1529306913109731,-3,-2,-1,0,-3,-1,-3,-3
1529306913109731,3,-1,-1,0,1,-3,-3,-1
1529306913125982,-1,-1,-1,0,0,0,0,-1
1529306913125982,-1,-1,0,-1,0,-1,-1,-1
1529306913140951,2,-2,-2,-1,0,-3,0,-2
1529306913140951,-3,0,-2,-2,-1,-2,-3,-6
1529306913148120,7,1,-1,0,-2,0,4,10
1529306913148120,1,-2,-1,1,-1,-1,-1,-2
1529306913163086,1,-1,-1,-1,-1,-1,-2,2
1529306913163086,-3,-1,-2,-2,-3,-1,-2,-5
1529306913170848,-5,-2,-2,0,-2,-2,-2,-4
1529306913170848,-1,-1,-1,-1,-4,0,0,0
1529306913185875,1,-1,-2,-2,-1,0,0,-3
1529306913185875,-1,0,-3,0,-1,-1,1,-1
1529306913193022,-2,-2,-1,-2,0,-1,-3,-1
1529306913193022,2,0,0,0,0,-2,-2,-1
1529306913207722,-2,0,-2,-1,-1,-2,0,-3
1529306913207722,-2,-2,-2,-1,-2,-2,-2,-2
