timestamp,emg1,emg2,emg3,emg4,emg5,emg6,emg7,emg8
1529306914766470,4,8,7,8,10,2,1,-1
1529306914766470,-2,-1,1,-5,-1,-1,-1,-2
1529306914767465,-1,-2,-1,-8,-12,-5,-5,-2
1529306914767465,1,5,2,1,-1,2,0,-2
1529306914768461,-5,-13,-5,3,3,1,-2,-2
1529306914768461,-3,-11,-13,6,6,1,-1,0
1529306914771453,7,13,13,9,8,4,2,1
1529306914771453,-3,-6,-6,-10,-9,-4,-2,-2
1529306914779433,-1,0,-7,-6,-12,-4,-1,-1
1529306914779433,-6,-7,-1,0,3,-1,-4,-4
1529306914786414,0,-6,0,3,5,1,-1,0
1529306914786414,3,1,-1,-1,-2,0,0,1
1529306914794394,-1,3,6,0,4,1,1,-3
1529306914794394,-1,-9,-9,-10,-12,-4,-2,2
1529306914807358,2,9,5,5,2,3,3,2
1529306914807358,5,6,3,4,6,4,0,1
1529306914820325,2,4,1,5,6,0,0,2
1529306914820325,0,-3,-2,-8,-11,-3,0,-3
1529306914822322,-1,1,1,1,1,2,-1,0
1529306914822322,1,2,3,4,8,-2,1,1
1529306914838275,-3,-3,-3,-4,-7,-2,-3,-3
1529306914838275,1,9,9,9,10,2,1,-1
1529306914846253,-7,-18,-13,-11,-6,-3,-3,-4
1529306914846253,-1,0,-2,-4,-7,-2,-1,-2
1529306914886148,2,3,0,2,-2,-1,1,0
1529306914886148,-3,-4,1,7,13,4,2,-3
1529306914887144,-2,-4,-8,0,-1,0,2,2
1529306914887144,6,13,12,2,-4,-1,0,4
1529306914888142,-3,-5,-5,-6,-5,-3,-4,-1
1529306914888142,2,1,1,-2,-4,-1,0,0
1529306914891135,-3,-4,-5,0,1,0,-1,-2
1529306914891135,2,6,5,3,8,5,1,1
1529306914898116,-1,-1,0,6,7,2,2,-1
1529306914898116,4,10,4,-3,-6,-3,0,0
1529306914905096,0,2,3,-1,5,2,2,-1
1529306914905096,-2,-4,-7,-6,-7,-3,-1,-1
1529306914914073,-2,-11,-4,1,4,1,-2,0
1529306914914073,1,0,5,6,8,3,-1,1
1529306914929032,3,1,-2,-11,-12,-6,-3,-1
1529306914929032,-4,-6,-8,-4,-4,-5,-4,-2
1529306914937011,-2,2,6,4,1,2,1,1
1529306914937011,-4,-11,-11,-5,-7,-2,-2,-1
1529306914942995,-2,1,2,2,2,-1,-3,-3
1529306914942995,-2,-9,-11,-3,-3,-1,0,-1
1529306914957955,1,7,4,0,-1,-1,1,-2
1529306914957955,-4,-7,-9,-5,0,-1,-2,-6
1529306914964937,2,8,11,6,0,3,1,4
1529306914964937,-3,-5,-2,-5,-7,-3,2,0
1529306914974910,0,3,-6,-7,-6,-5,-4,-2
1529306914974910,0,2,3,2,-1,1,-2,-4
1529306914987876,-2,-15,-14,-5,0,2,1,5
1529306914987876,-1,4,5,6,9,1,-3,-7
1529306914996852,0,-3,-4,-3,-4,2,-1,-2
1529306914996852,7,9,9,-4,-8,-7,9,16
1529306915002835,1,1,2,4,4,0,-1,-3
1529306915002835,3,0,1,-3,-5,-1,-2,5
1529306915017795,-4,-5,-4,2,9,3,-2,-9
1529306915017795,-4,-4,-3,1,2,-1,-4,-7
1529306915024776,-3,1,-1,-9,-22,-10,-1,0
1529306915024776,4,3,1,3,4,1,1,-6
1529306915033752,-2,-2,1,3,8,2,-4,4
1529306915033752,-1,-3,-4,-7,-12,-4,-1,1
1529306915047716,1,1,1,3,11,9,3,1
1529306915047716,-4,4,1,2,1,-1,-2,-7
1529306915056695,-2,-7,-6,-3,-2,0,1,-1
1529306915056695,-1,0,-1,0,1,1,1,2
1529306915062674,-2,1,-1,-7,-7,0,-2,-5
1529306915062674,-3,-1,5,10,5,-5,-3,1
1529306915085614,-1,-2,-5,-3,-5,-2,0,-5
1529306915085614,-1,0,0,2,1,-2,-3,8
1529306915086612,0,-1,-1,0,2,2,2,-2
1529306915086612,1,-4,-4,-2,1,3,3,1
1529306915094589,5,3,3,-1,2,2,1,6
1529306915094589,-3,-4,-2,-2,-3,-6,-2,-12
1529306915107555,2,0,-1,1,3,4,-1,7
1529306915107555,0,0,-4,-14,-18,-13,-1,5
1529306915116532,-2,3,3,5,-12,-7,-5,-7
1529306915116532,-5,-15,-12,-8,7,13,0,1
1529306915122516,3,14,13,16,12,1,-2,-3
1529306915122516,-1,-4,-2,0,1,0,2,4
1529306915137486,2,2,0,-5,-5,-2,0,0
1529306915137486,1,2,0,1,-6,-5,-3,-2
1529306915145468,-2,-5,-4,3,5,5,2,-1
1529306915145468,-2,-5,-1,-2,-3,2,-1,-6
1529306915154440,0,0,-2,-7,-7,-6,-2,0
1529306915154440,0,1,2,2,6,0,3,2
1529306915167396,-1,-5,0,3,11,7,0,-4
1529306915167396,-3,4,-2,3,3,1,-3,-5
1529306915176371,-1,-1,-1,-12,-5,0,1,11
1529306915176371,-1,3,7,15,0,-5,-3,-3
1529306915182386,-3,-3,-2,-7,-7,-5,-7,-2
1529306915182386,0,-8,-3,-1,6,9,-1,0
1529306915197358,-2,-5,-9,-4,0,-2,0,-2
1529306915197358,8,20,24,11,3,6,3,2
1529306915205295,-3,-8,-5,0,7,-5,-1,-1
1529306915205295,2,10,12,4,-4,7,4,3
1529306915214270,2,3,5,-1,5,2,3,0
1529306915214270,3,2,-1,8,-1,-7,-2,0
1529306915227234,-2,-5,-6,-3,-4,2,0,-2
1529306915227234,-3,-2,-5,-15,-11,-11,-5,-3
1529306915236212,0,-4,-1,12,7,4,2,-1
1529306915236212,-2,-5,-9,-17,0,5,1,-2
1529306915251171,-2,2,-1,-2,-9,-7,-5,-7
1529306915251171,-1,-8,-8,0,6,-4,-2,9
1529306915258155,-3,-3,-3,0,-5,0,-3,-6
1529306915258155,-5,-1,-2,0,-1,3,-3,-9
1529306915274138,-5,-9,-6,-3,-6,-5,3,8
1529306915274138,5,10,8,5,15,5,-2,-5
1529306915275144,2,0,1,-2,-6,-2,4,7
1529306915275144,0,4,2,-1,-1,3,-1,-7
1529306915288074,0,2,1,-5,-17,-11,-5,0
1529306915288074,-2,-4,-3,8,14,7,2,1
1529306915297049,-1,1,0,5,3,-7,-5,-3
1529306915297049,1,-1,-4,-12,-14,-2,-1,1
1529306915311011,3,2,0,3,9,3,2,0
1529306915311011,-6,-11,-6,-3,-4,-3,-5,-4
1529306915318028,1,3,2,-3,-2,0,0,-3
1529306915318028,-3,-4,-3,-2,-1,-3,0,3
1529306915324986,-2,-2,-2,-3,-4,0,-3,-8
1529306915324986,-1,1,1,8,5,0,2,0
1529306915333951,1,2,-1,-6,-8,-1,6,7
1529306915333951,-5,-12,-8,-6,-6,-4,-6,-8
1529306915347971,3,9,9,11,9,-5,-7,2
1529306915347971,-5,-6,-3,-5,3,7,-4,-7
1529306915356890,0,1,1,6,9,1,-2,-4
1529306915356890,1,1,-1,-5,-12,-9,1,7
1529306915370865,-2,-2,2,-2,-4,2,-3,-7
1529306915370865,1,-1,-2,-2,-1,0,0,-6
1529306915377832,-3,-6,-3,2,2,-1,-2,8
1529306915377832,1,-2,-2,3,7,2,2,1
1529306915384850,0,3,3,0,1,-2,3,1
1529306915384850,-1,-2,1,0,-6,-5,1,3
1529306915393789,1,0,-2,-6,-2,5,-1,-6
1529306915393789,0,-6,-2,5,10,2,0,1
1529306915407781,-2,-2,-3,-3,-5,-3,-3,-8
1529306915407781,7,4,4,2,1,6,5,7
1529306915416734,-4,-2,-2,-1,-2,-4,-1,7
1529306915416734,-2,-1,-4,-3,-10,-2,-3,1
1529306915430693,1,-1,0,-1,7,0,6,5
1529306915430693,-2,2,-1,-12,-22,-12,-4,-9
1529306915437675,3,5,6,6,6,3,7,8
1529306915437675,-4,0,-2,3,7,0,-3,-7
1529306915445653,-1,0,1,9,12,2,-7,4
1529306915445653,-1,-2,-4,-8,-15,-9,-10,-7
1529306915454627,-2,-2,-2,-8,-4,2,2,5
1529306915454627,1,2,1,10,13,11,5,0
1529306915467643,-2,-6,-2,-4,-6,-2,-1,-8
1529306915467643,1,1,-1,3,0,-4,2,3
1529306915476568,-1,-2,0,-2,-2,-4,-7,-9
1529306915476568,1,-1,-2,-3,2,5,3,-3
1529306915490567,-2,-3,-4,-6,-19,-9,-5,-5
1529306915490567,-1,-1,1,2,4,4,1,4
1529306915497565,3,4,1,3,6,1,-1,-5
1529306915497565,-2,-1,2,7,10,2,1,2
1529306915505502,2,5,1,-9,-16,-4,3,3
1529306915505502,-3,-3,-4,-4,0,4,1,-2
1529306915514508,-3,-6,-5,2,-1,-11,-6,-5
1529306915514508,4,7,3,-3,-4,-4,-3,-2
1529306915527435,-1,-6,-1,-2,-1,0,-1,4
1529306915527435,-2,2,-2,2,4,2,-1,-1
1529306915536588,0,1,3,-2,-1,-1,2,4
1529306915536588,-3,-3,-3,-3,-3,-1,-4,0
1529306915550371,1,4,4,6,12,7,5,1
1529306915550371,-3,-8,-8,-4,-8,-4,-1,-2
1529306915557355,1,3,8,-2,-1,1,0,-2
1529306915557355,0,-4,1,6,-3,0,-1,-2
1529306915565370,1,4,0,-1,7,-7,-1,0
1529306915565370,2,-2,-1,-1,-5,4,5,8
1529306915580293,-2,-1,0,3,0,2,-3,-6
1529306915580293,3,3,3,0,1,0,1,8
1529306915587320,-3,-5,-5,-6,-6,3,0,-4
1529306915587320,-1,1,4,13,19,5,-1,0
1529306915596249,0,-5,-8,-10,-7,-2,-1,-1
1529306915596249,3,12,8,-4,-11,-9,-2,1
1529306915611208,3,-2,-2,4,0,3,1,3
1529306915611208,-2,-3,-1,-6,-11,-4,-2,-4
1529306915617195,3,13,10,8,9,0,0,-3
1529306915617195,-3,-7,-7,-5,0,11,3,-5
1529306915625173,0,-1,-2,-8,-3,-2,1,3
1529306915625173,0,-1,0,8,5,-5,0,1
1529306915640132,-4,-5,-5,-3,-8,-2,-5,-8
1529306915640132,0,-3,-6,-8,-3,-4,2,6
1529306915648110,-2,1,-2,4,6,4,0,-1
1529306915648110,-2,-4,-2,-11,-4,1,0,-2
1529306915657130,3,1,-3,8,2,-10,-2,-2
1529306915657130,-2,0,-1,-5,-7,-9,-9,-4
1529306915671051,1,2,6,2,-2,3,4,2
1529306915671051,0,-1,-1,4,18,4,1,1
1529306915678032,-2,-1,-3,-8,-7,-3,-4,-4
1529306915678032,0,0,11,14,7,1,1,0
1529306915685234,-3,-8,-8,2,6,-3,-2,0
1529306915685234,3,9,6,-5,-19,-8,-2,0
1529306915700018,-1,-3,-3,-4,5,7,4,3
1529306915700018,-3,-5,-6,-4,5,3,-1,-2
1529306915707973,0,1,-3,-3,-6,0,-2,-3
1529306915707973,0,2,0,-3,-7,-8,-2,0
1529306915716926,-5,-10,-3,6,7,8,2,0
1529306915716926,3,5,3,3,-3,0,-1,-2
1529306915730889,1,-4,-4,-1,5,-3,1,2
1529306915730889,2,1,-2,-5,-7,2,-2,-2
1529306915737913,0,-5,2,11,11,4,3,0
1529306915737913,-3,4,2,-5,-5,-7,-4,-6
1529306915753964,-3,0,-3,-5,0,3,3,5
1529306915753964,-4,-5,-1,8,8,1,0,0
1529306915760051,-3,0,1,0,-3,5,0,-2
1529306915760051,2,-2,3,1,2,-2,1,1
1529306915768003,-2,-2,-6,-7,-5,-7,-8,-7
1529306915768003,-2,-3,-3,0,-6,-3,0,-3
1529306915776772,2,3,-1,-1,3,4,1,1
1529306915776772,-3,1,-4,-6,-5,2,1,-1
1529306915791079,1,7,12,3,1,-2,-2,0
1529306915791079,0,-4,-5,-1,8,3,0,2
1529306915798006,-4,-7,-9,-12,-20,-8,-4,-4
1529306915798006,1,0,6,7,4,5,2,2
1529306915804987,-1,-6,-6,-5,-7,-3,-2,2
1529306915804987,5,10,6,8,11,5,4,5
1529306915828950,-3,1,1,-1,-6,-5,-2,-5
1529306915828950,-3,-9,-13,-9,-9,-7,-1,6
1529306915828950,-3,-3,-4,0,-3,0,-1,-3
1529306915828950,-3,-3,-2,-6,-4,-3,-4,-3
1529306915843907,4,0,0,-2,1,-1,4,8
1529306915843907,-4,-2,-4,-4,-6,-7,-3,-4
1529306915850863,0,0,4,8,4,1,0,-2
1529306915850863,-1,-3,-3,-2,-1,5,2,-3
1529306915857845,0,-5,-4,1,-1,-2,2,-3
1529306915857845,1,6,6,2,4,-1,-3,0
1529306915873802,2,2,0,-7,-9,-4,0,1
1529306915873802,-1,-1,2,6,7,6,4,-4
1529306915888031,4,7,4,-3,-2,2,1,10
1529306915888031,-1,-7,-5,4,8,2,0,-3
1529306915897232,0,1,0,-4,-7,-6,-4,-4
1529306915897232,-3,-6,-6,-5,0,-5,0,-1
1529306915898006,3,5,14,15,8,1,-1,1
1529306915898006,0,3,-1,0,0,0,0,-2
1529306915910971,-3,-1,0,4,3,2,-4,-4
1529306915910971,-4,0,-1,-3,-8,-3,-5,0
1529306915918491,-2,0,-3,-6,-7,-1,1,0
1529306915918491,0,3,1,-1,3,1,3,0
1529306915933931,-1,-4,0,5,4,3,3,2
1529306915933931,1,0,4,2,1,-1,0,-3
1529306915940181,-2,0,-5,-2,-6,-11,-4,-5
1529306915940181,-1,-4,-6,-4,-1,7,0,-3
1529306915957122,0,4,0,1,6,4,1,-1
1529306915957122,-1,3,3,1,-4,-6,-6,-6
1529306915958926,-1,-2,-3,-4,0,2,3,9
1529306915958926,-1,-4,-4,1,0,-1,1,-2
1529306915970835,-3,0,0,-3,-4,-2,1,-1
1529306915970835,-1,-5,-2,-2,-1,-1,-1,-1
1529306915977817,1,4,4,4,6,3,-3,-4
1529306915977817,0,-3,-3,-4,-4,-9,-2,1
1529306915992809,2,-1,0,-4,-8,3,2,0
1529306915992809,-2,-3,-2,1,-6,-4,0,1
1529306916001752,-1,-2,-1,-3,-1,-5,-4,-5
1529306916001752,-1,-1,2,-1,-2,0,-4,0
1529306916016743,-1,-1,-3,2,5,-2,0,-2
1529306916016743,2,-1,-5,-7,-8,-4,2,7
1529306916017710,-2,-7,-2,-1,1,3,-1,-3
1529306916017710,3,6,4,2,-1,2,1,0
1529306916029679,-1,-4,-3,1,4,-5,-3,-4
1529306916029679,-2,-3,1,3,0,3,-4,-6
1529306916038654,0,8,5,-2,-2,-1,-1,-4
1529306916038654,-1,-7,-6,0,11,2,2,5
1529306916053614,1,1,-1,-11,-15,-3,-2,-3
1529306916053614,-1,-2,-5,3,3,-2,-1,3
1529306916059598,-1,1,-2,-1,-3,-3,-6,-4
1529306916059598,-2,-2,0,-1,0,0,0,-2
1529306916076553,-1,-2,0,-1,2,-2,-2,1
1529306916076553,3,3,0,-1,2,3,-1,-1
1529306916078564,-3,-3,-3,-3,-2,0,0,-3
1529306916078564,0,-1,-4,-3,-7,-6,-1,-3
1529306916090571,-2,-3,-3,3,8,5,2,1
1529306916090571,-1,-3,-2,-5,-7,-4,-2,-1
1529306916099491,0,2,2,1,1,2,0,1
1529306916099491,-3,-3,-5,-2,-6,-4,-1,-1
1529306916113506,-4,-2,-4,-6,-1,0,-2,0
1529306916113506,-2,-2,1,2,4,2,1,-1
1529306916120489,-2,-1,2,-2,0,1,1,0
1529306916120489,2,1,1,4,-1,-1,-3,-1
1529306916136451,1,0,1,3,-3,-6,-3,-3
1529306916136451,1,0,-1,-4,3,3,0,1
1529306916138387,0,-1,-4,-3,3,0,-1,0
1529306916138387,1,-1,-2,-5,-10,-5,-3,-1
1529306916150408,1,3,4,2,1,-1,0,2
1529306916150408,0,0,-1,-2,1,-1,1,0
1529306916159332,0,-3,-2,1,-2,-1,0,-3
1529306916159332,-3,-3,-2,0,2,3,1,-2
1529306916173348,0,1,3,4,1,-1,-3,-1
1529306916173348,-3,0,-2,-4,-2,-3,-3,-2
1529306916180329,1,2,6,6,0,-1,4,2
1529306916180329,-1,-3,-3,-2,0,3,1,0
1529306916196286,0,-1,-3,0,0,2,1,1
1529306916196286,0,1,3,0,2,0,-2,1
1529306916198228,-1,-1,-3,-3,-2,-2,-3,-1
1529306916198228,0,0,-1,-3,0,0,-3,-2
1529306916210252,-2,-6,-3,-3,0,0,0,-1
1529306916210252,1,5,1,2,-2,-1,-2,0
1529306916219183,-1,-4,-6,-4,-1,-4,-1,-1
1529306916219183,1,1,-1,0,-3,-4,-3,-1
1529306916233189,0,3,8,7,4,1,2,1
1529306916233189,-1,-2,-1,1,-1,1,2,-2
1529306916240169,-3,-5,-4,-1,-1,0,-1,-1
1529306916240169,-4,-3,-5,-3,-3,-1,-3,-2
1529306916256127,2,3,-2,0,0,-2,-1,0
1529306916256127,1,-1,0,-2,0,1,2,0
1529306916258068,-1,-4,-3,-4,-2,-2,-2,-3
1529306916258068,0,0,3,2,0,-1,1,0
1529306916270035,-1,0,-1,-3,-1,-1,0,2
1529306916270035,0,2,-1,0,-1,-2,-2,-1
1529306916279021,-3,-2,-1,-2,-2,0,0,-2
1529306916279021,-2,-4,-4,-1,1,1,1,-1
1529306916293028,-1,-2,-2,1,-1,-3,2,0
1529306916293028,1,5,2,1,0,-2,1,2
1529306916307935,2,3,4,1,2,1,0,1
1529306916307935,0,1,1,2,2,-1,-1,0
1529306916316909,-2,-8,-3,-3,-1,0,-1,-2
1529306916316909,0,0,-5,-6,2,-2,-2,0
1529306916317908,1,-1,-4,-1,0,3,2,0
1529306916317908,-1,2,2,2,-1,-2,-1,-4
1529306916330257,-1,1,-2,-3,-1,-1,-2,-2
1529306916330257,-2,0,3,2,-1,-1,-2,-1
1529306916339236,-1,2,2,2,1,-1,-3,1
1529306916339236,-2,-5,-4,-4,-1,-2,-1,1
1529306916353465,2,6,5,-1,-2,0,0,2
1529306916353465,2,-2,-1,4,0,2,0,-1
1529306916360481,0,-3,-4,0,0,0,1,0
1529306916360481,1,7,5,3,4,1,-1,1
1529306916377117,-2,1,-1,-3,-3,-2,-1,0
1529306916377117,-5,-7,-7,-2,-2,0,0,-3
1529306916377746,-3,0,2,-3,-2,-3,-1,-3
1529306916377746,2,7,3,1,2,0,1,3
1529306916390014,0,0,-1,-1,1,0,1,-1
1529306916390014,-1,-1,2,1,-1,-1,-3,-1
1529306916398994,-1,-5,-6,-4,-3,-1,-2,-3
1529306916398994,-4,-8,-5,0,-2,-4,-4,-4
1529306916414208,5,9,8,0,-1,3,2,2
1529306916414208,-3,-11,-5,-3,-2,0,-2,-1
1529306916420975,4,11,9,4,0,1,-2,2
1529306916420975,-3,-4,-5,-2,-2,-3,0,-2
1529306916437228,-6,-4,-2,0,1,1,-3,-2
1529306916437228,-1,0,1,0,0,-1,-1,-1
1529306916437889,-1,-4,-5,-2,-1,0,2,0
1529306916437889,0,-4,-3,-4,0,0,2,0
1529306916449856,2,0,0,-1,1,0,3,0
1529306916449856,1,-2,-1,3,1,0,-1,0
1529306916459103,0,6,3,-1,-1,-2,-3,0
1529306916459103,0,-4,-1,-1,-3,-1,-2,-2
1529306916474047,0,-3,2,3,3,2,1,1
1529306916474047,0,-3,-4,-1,1,-1,1,-1
1529306916480214,0,-2,-3,-3,-2,-2,1,0
1529306916480214,-3,-4,-3,-1,-2,1,2,-1
1529306916496042,-1,0,1,0,-1,-1,-3,-1
1529306916496042,0,2,0,-3,-2,-2,0,1
1529306916503388,-2,0,1,2,0,0,-1,0
1529306916503388,-2,1,-1,-3,-2,0,-1,-1
1529306916510444,-2,-9,-9,-2,-3,-1,-3,-1
1529306916510444,-2,3,1,-1,-1,-4,-1,-2
1529306916519424,4,2,3,5,3,1,2,1
1529306916519424,0,-2,2,-1,-1,0,-3,-1
1529306916533738,-1,2,1,2,1,2,3,1
1529306916533738,2,1,0,-3,-1,1,-1,1
1529306916540769,-3,-6,-10,-5,-2,-1,-2,0
1529306916540769,2,2,3,1,2,1,1,3
1529306916556746,-3,-6,-1,0,-2,-3,-3,-3
1529306916556746,2,4,2,-1,-1,-1,0,0
1529306916563518,-1,0,1,1,-1,-2,-2,-1
1529306916563518,0,1,2,2,1,0,1,1
1529306916579143,0,-4,-5,-4,-2,-1,-2,-1
1529306916579143,-1,-3,2,-1,-2,0,0,-1
1529306916579143,-2,-4,-4,-1,-1,-1,-1,-2
1529306916579143,-2,1,0,0,0,-1,-1,0
1529306916594851,-1,-4,-4,-1,-1,-1,1,-2
1529306916594851,3,5,4,4,3,1,1,1
1529306916600900,-1,-1,0,-1,0,-1,-1,-1
1529306916600900,-2,-3,-3,-1,-2,0,-1,-1
1529306916615245,0,1,-1,-1,0,-1,0,1
1529306916615245,-3,-4,-3,-2,-1,2,0,-1
1529306916623199,-2,-3,1,-3,-2,-1,-1,-2
1529306916623199,0,0,1,-3,-1,-1,-1,-1
1529306916637957,-3,-2,-2,0,0,-3,-3,-4
1529306916637957,-1,-1,1,1,-3,-1,-2,-1
1529306916638912,-2,0,0,2,0,0,-2,0
1529306916638912,1,-1,-3,-1,-2,-3,-2,-1
1529306916653871,2,2,0,0,-1,-2,-1,0
1529306916653871,0,0,-2,-3,-2,0,-1,-1
1529306916659876,-2,-2,-2,0,-1,-1,-1,-2
1529306916659876,-1,0,2,-1,0,1,1,-1
1529306916675377,1,0,-2,0,0,1,0,-1
1529306916675377,-2,-3,-1,0,-1,-3,-2,-1
1529306916683408,0,1,3,0,1,-1,-1,1
1529306916683408,-2,-2,1,1,1,1,-2,-1
1529306916698614,-1,2,1,-1,0,0,-1,-1
1529306916698614,-2,-6,-4,-3,-3,-2,-3,-3
1529306916699613,0,-1,-1,-1,-2,-1,0,0
1529306916699613,1,1,1,0,0,-2,-2,1
1529306916714327,1,-2,-1,-3,0,0,-1,0
1529306916714327,-1,-2,1,0,1,-1,0,-2
1529306916720579,-2,-1,-2,-1,0,0,1,0
1529306916720579,2,1,0,-1,-1,-2,1,1
1529306916735272,-1,-1,-1,-2,0,-2,0,-2
1529306916735272,0,-1,-1,-2,-1,-1,2,1
1529306916743487,-3,-1,0,0,0,0,0,-1
1529306916743487,-1,-1,0,0,-2,0,0,-2
1529306916758593,2,0,0,2,-1,-2,0,-1
1529306916758593,-1,0,-1,-1,0,-1,0,-2
1529306916759210,-1,-3,-2,0,-1,0,0,0
1529306916759210,1,0,-1,-2,0,0,3,2
1529306916774183,-3,-3,-1,1,0,0,-2,-1
1529306916774183,-1,-1,-1,0,-2,1,1,-1
1529306916780190,0,-2,0,-1,-1,-1,-2,-2
1529306916780190,-1,-2,0,-1,-2,-2,-1,1
1529306916795341,2,1,1,1,-1,0,0,2
1529306916795341,0,0,-1,1,0,-3,-1,-1
1529306916803304,0,-2,-2,-2,-1,0,-2,1
1529306916803304,0,-1,-1,1,1,-2,-1,-1
1529306916818289,-3,-1,-1,-1,-1,0,-2,-2
1529306916818289,-1,0,0,-1,0,1,-1,-1
1529306916819047,0,-1,-1,0,-3,0,-2,0
1529306916819047,0,-2,0,0,-1,0,-3,-2
1529306916834040,-1,-3,-1,-2,-2,0,1,-1
1529306916834040,-1,-2,0,0,-1,1,-3,-1
1529306916840234,-1,0,1,-1,0,-2,0,0
1529306916840234,0,1,-1,1,-1,1,0,0
1529306916854953,-1,-2,0,-1,-1,0,-1,1
1529306916854953,1,0,1,-2,-2,-1,-1,1
1529306916863190,-1,-3,-2,0,-1,0,0,-1
1529306916863190,0,-1,-2,-2,-1,0,0,-1
1529306916879037,-1,-2,1,0,0,1,-1,0
1529306916879037,-1,-1,-1,-2,0,-2,0,-1
1529306916879037,-1,1,-1,-2,-1,-2,-1,-2
1529306916879037,-1,-1,-1,-1,0,-1,-1,-1
