timestamp,emg1,emg2,emg3,emg4,emg5,emg6,emg7,emg8
1529302240163028,-2,-1,-1,-1,0,0,0,1
1529302240163028,0,-1,0,-1,-1,-1,0,-1
1529302240175993,-1,-1,1,0,0,0,0,-2
1529302240175993,-1,-2,0,-1,1,0,0,-1
1529302240182974,2,0,-1,-1,-2,-1,-1,-1
1529302240182974,-2,-1,-1,9,2,0,1,1
1529302240189955,-2,-2,0,-7,-12,-3,0,-1
1529302240189955,3,3,1,-4,11,0,1,0
1529302240198932,0,-1,-3,-4,-9,-2,0,-1
1529302240198932,-2,-7,-15,-8,-4,-1,-1,-2
1529302240212938,-6,-7,-10,11,3,0,-1,-3
1529302240212938,2,2,11,-8,9,3,1,2
1529302240221871,-4,-8,-3,-17,-6,-6,-3,-2
1529302240221871,-7,-7,8,33,4,0,-3,-4
1529302240234838,1,1,-6,4,8,3,2,2
1529302240234838,5,0,-15,-10,-3,0,0,3
1529302240243812,1,9,7,-2,3,1,2,1
1529302240243812,-1,-1,-14,-26,-9,-4,-2,2
1529302240249796,-10,-10,26,3,-25,-3,-3,-7
1529302240249796,1,-4,-7,6,4,0,0,2
1529302240264756,-3,-2,-4,8,5,2,2,-2
1529302240264756,3,3,16,3,4,14,2,1
1529302240272735,1,-9,-21,-4,1,-12,-1,0
1529302240272735,0,19,-3,-11,-14,3,2,-1
1529302240281712,5,-8,-43,1,3,-4,-4,-1
1529302240281712,16,28,60,2,-4,-7,-1,6
1529302240294728,-6,-8,-5,1,12,6,0,-3
1529302240294728,-9,-22,20,2,-14,-8,-5,-4
1529302240303665,-13,6,-11,2,13,1,-1,-6
1529302240303665,2,-3,-14,2,6,8,4,-1
1529302240309636,16,27,21,-8,-7,4,8,11
1529302240309636,-5,-13,-13,0,-8,-28,-11,-2
1529302240318613,-3,5,40,15,6,6,-13,-10
1529302240318613,-7,-3,-41,-15,-3,-12,-4,-6
1529302240332575,1,-13,-13,-8,-5,5,1,-1
1529302240332575,0,1,-8,4,3,17,5,6
1529302240341552,2,-5,-1,5,3,-3,5,4
1529302240341552,6,23,28,-8,4,13,-1,1
1529302240355514,-2,-7,-5,7,6,-7,-3,-2
1529302240355514,-12,-38,-3,9,-18,-10,-1,-4
1529302240364489,3,18,-10,-18,-3,5,0,3
1529302240364489,-1,5,22,23,7,-8,3,0
1529302240370473,3,0,-23,-12,-4,-8,2,3
1529302240370473,9,29,32,5,5,15,4,5
1529302240379450,-7,-21,-1,0,0,14,4,-3
1529302240379450,-12,-17,-25,-14,-13,-39,-14,-9
1529302240392465,5,0,6,-2,4,20,10,3
1529302240392465,5,3,-16,-6,-16,-12,-17,-18
1529302240401390,5,1,-6,14,1,3,1,6
1529302240401390,7,14,0,10,19,-1,8,7
1529302240415355,-10,-9,15,21,3,-13,-8,-5
1529302240415355,8,10,1,-8,6,18,15,15
1529302240424344,-5,-10,-2,-8,-23,-2,-10,-11
1529302240424344,-1,-8,13,15,9,2,-6,-4
1529302240430365,-8,-6,-31,-30,-4,-8,-7,-6
1529302240430365,-5,5,-7,10,18,8,0,-7
1529302240439289,4,1,22,-20,-20,-21,-5,-2
1529302240439289,-4,-13,-21,22,-4,25,17,10
1529302240452254,10,13,16,38,50,-6,-8,5
1529302240452254,-6,-9,-19,-31,-26,16,3,1
1529302240461230,-10,-3,-1,1,14,-8,0,-11
1529302240461230,6,5,5,21,-6,-14,-1,5
1529302240476191,2,7,33,-32,-4,12,3,-4
1529302240476191,2,3,-1,14,20,-19,-3,4
1529302240482174,-4,-13,-30,9,4,14,-2,1
1529302240482174,-2,2,27,-18,-4,11,-5,-6
1529302240490152,-3,5,-15,-12,0,26,5,1
1529302240490152,-7,-10,-8,5,-18,-57,-20,-11
1529302240505158,8,8,7,1,-13,15,16,15
1529302240505158,-7,-2,-6,-23,-3,-13,-11,-10
1529302240513095,3,-2,0,13,-12,-2,-2,1
1529302240513095,-1,-3,-2,17,16,8,12,7
1529302240521136,-4,0,-9,-18,-4,-22,-12,-8
1529302240521136,-1,-11,-2,-4,-20,4,2,3
1529302240536073,-3,-6,-30,-27,-4,5,-4,-3
1529302240536073,-11,0,50,19,19,39,4,-10
1529302240550991,0,14,14,14,-18,-53,-7,1
1529302240550991,9,0,-9,3,20,42,12,13
1529302240551997,25,8,0,-6,-18,-22,-2,3
1529302240551997,-7,-9,-19,-3,14,-13,-7,-1
1529302240564953,-1,0,22,-8,-17,21,-5,-8
1529302240564953,-7,-3,-11,-16,-5,-34,-12,0
1529302240572933,-3,1,13,15,2,9,11,11
1529302240572933,-2,-4,-8,-2,2,2,1,-3
1529302240581908,-4,0,2,-10,-2,0,-1,-2
1529302240581908,0,-5,-7,-8,-2,9,11,-4
1529302240595870,-4,1,13,21,-3,3,-7,-8
1529302240595870,-8,-3,-11,-9,-16,-17,-3,2
1529302240602862,-11,-4,-2,0,32,34,2,-23
1529302240602862,14,-1,-7,11,-18,-6,4,29
1529302240610545,0,4,9,6,0,-9,7,3
1529302240610545,11,-3,-8,-32,3,32,-3,-1
1529302240625507,0,-1,-10,-3,24,-36,-6,-4
1529302240625507,2,-2,0,15,-38,-13,-4,-2
1529302240632527,-13,-6,-11,-20,-21,-6,-4,8
1529302240632527,2,-4,-9,-1,-35,1,1,-8
1529302240641465,11,10,24,36,23,43,13,15
1529302240641465,-13,-13,-13,-11,1,-16,-17,-26
1529302240656424,-5,-2,12,18,-2,-20,-9,-2
1529302240656424,2,11,-6,-15,11,-1,1,-2
1529302240662634,-6,-8,-7,-1,-8,3,-1,-5
1529302240662634,14,4,7,-9,27,-14,2,19
1529302240670432,-14,-9,-17,7,21,12,5,-5
1529302240670432,0,3,3,-7,-11,-12,-10,-13
1529302240685348,13,-2,2,11,-4,1,12,17
1529302240685348,2,2,-4,-7,23,-9,-12,-11
1529302240693365,2,-7,-14,-26,-60,-28,-15,-5
1529302240693365,0,1,24,43,4,19,7,5
1529302240701314,0,-1,-15,-1,-5,1,2,5
1529302240701314,-13,-6,3,-16,-15,-3,2,-9
1529302240716514,8,9,2,-2,49,-11,2,-3
1529302240716514,0,-1,3,-2,-17,-8,-8,-7
1529302240722249,1,-9,-13,-11,-26,-6,4,9
1529302240722249,-10,-12,-43,2,43,20,-2,-9
1529302240730228,2,15,64,9,-19,10,-4,-3
1529302240730228,6,6,-6,8,-5,7,9,6
1529302240745188,0,-1,-6,18,17,-27,-7,14
1529302240745188,-5,-11,-37,-6,-5,11,0,-2
1529302240752425,6,11,52,14,9,6,3,3
1529302240752425,-3,1,-11,-8,11,36,3,2
1529302240761407,-1,4,19,-20,-2,-19,-2,-2
1529302240761407,1,3,15,5,5,13,1,-3
1529302240775365,-7,-13,-30,14,-16,-3,-1,-5
1529302240775365,4,3,8,-32,-3,4,2,7
1529302240782395,-4,-8,-23,-7,2,-7,-10,-10
1529302240782395,-6,5,14,8,14,-4,1,-2
1529302240790375,1,2,-9,4,35,12,-1,-1
1529302240790375,1,-3,-13,-7,-1,-6,6,4
1529302240805729,-2,-11,-18,3,-2,-5,1,5
1529302240805729,7,27,87,13,-12,-15,-5,-2
1529302240812325,-6,-28,-95,-19,-9,36,5,-5
1529302240812325,10,37,96,29,24,-19,5,10
1529302240821268,-1,4,9,10,25,19,-1,-3
1529302240821268,-6,-12,-17,-10,-31,-20,-10,-6
1529302240835205,5,5,-22,-10,0,14,7,3
1529302240835205,-5,-15,1,-6,21,0,1,0
1529302240844180,-4,4,-11,-33,-34,-3,0,-6
1529302240844180,3,0,4,7,-6,8,0,4
1529302240858143,-1,5,19,10,31,-9,-3,1
1529302240858143,-11,-13,-31,5,-22,-10,-8,-9
1529302240865831,13,8,17,-2,-10,-4,-2,2
1529302240865831,7,-5,-16,-8,-4,14,7,3
1529302240888795,-8,-4,-3,4,8,-22,-5,-9
1529302240888795,-1,3,-3,-18,-1,14,-2,-3
1529302240890837,-4,-2,3,-1,5,7,1,-1
1529302240890837,-10,-3,-10,8,-10,-17,-3,-4
1529302240895042,-3,-9,-12,-6,-20,8,-7,-4
1529302240895042,1,17,43,16,17,-1,7,0
1529302240904098,-6,-3,0,-5,-25,-37,-11,-6
1529302240904098,0,-7,-29,-21,-3,31,1,-1
1529302240918015,-11,-4,5,4,-13,-30,-4,-6
1529302240918015,7,-4,-5,18,16,-1,-5,-1
1529302240925243,16,7,-9,-37,-21,15,5,7
1529302240925243,-8,4,15,13,5,-9,1,-1
1529302240942323,11,-5,-10,-13,-10,-18,-5,0
1529302240942323,-3,-11,-29,-7,-11,12,0,0
1529302240943285,-11,-4,10,13,10,10,5,-2
1529302240943285,1,-1,-14,-3,12,20,0,-4
1529302240955227,-8,-3,4,-9,-7,-6,-5,-2
1529302240955227,-4,1,-20,-2,-6,-29,-6,0
1529302240964203,-2,-1,10,24,-1,10,6,-1
1529302240964203,-4,-1,4,-9,1,13,-2,1
1529302240978167,2,4,0,0,19,-5,-2,-1
1529302240978167,7,7,-3,1,-8,-9,-3,-1
1529302240985147,7,-1,2,-4,0,12,5,10
1529302240985147,4,-4,-5,22,4,-7,-2,0
1529302241001130,1,5,15,-5,1,10,6,2
1529302241001130,-2,-10,-22,-8,-11,-3,-3,-5
1529302241003105,-7,4,1,10,19,14,-4,-3
1529302241003105,7,4,7,-2,10,-18,6,6
1529302241015306,-3,0,0,7,-6,6,-1,1
1529302241015306,-5,-4,-1,-6,-6,-11,-4,0
1529302241024043,-4,-7,-2,3,6,-6,-3,-5
1529302241024043,2,-1,2,-4,-9,7,3,0
1529302241039043,3,5,6,6,6,6,3,0
1529302241039043,-11,-4,-10,9,31,0,2,-4
1529302241045245,11,0,-2,1,-13,-2,-4,5
1529302241045245,-5,-10,-9,-4,-2,-12,-1,0
1529302241061514,3,13,11,-19,-9,2,3,0
1529302241061514,-7,-13,-9,1,-21,-4,-8,-7
1529302241063510,2,6,7,-2,13,-10,1,0
1529302241063510,-4,-3,-11,-10,-2,-2,-5,-4
1529302241075489,-7,-8,-4,3,-3,3,-3,-3
1529302241075489,1,-3,-4,-7,-17,-15,-1,2
1529302241084450,-4,-3,-2,23,13,4,1,-3
1529302241084450,0,2,-7,-32,-12,-17,-2,-5
1529302241098448,5,4,9,12,15,-3,-1,7
1529302241098448,6,9,1,3,-31,20,3,1
1529302241105395,-12,-11,-20,-12,20,17,5,-6
1529302241105395,6,5,21,7,-19,-28,-3,6
1529302241121391,0,1,0,7,8,16,1,-3
1529302241121391,7,-5,-11,15,37,8,10,19
1529302241123346,4,10,20,-6,-35,6,-2,2
1529302241123346,-2,4,2,-4,-42,-19,-1,-3
1529302241135313,-6,-5,-4,-2,4,1,-2,-6
1529302241135313,1,1,4,9,18,-1,-2,-6
1529302241144289,9,3,0,11,5,-3,-5,4
1529302241144289,-9,-3,-1,-1,17,15,1,-6
1529302241158252,7,-11,-12,-15,-5,3,-2,7
1529302241158252,1,13,31,15,-10,-13,-2,0
1529302241165233,-5,-9,-28,-61,2,-10,0,-2
1529302241165233,-5,0,9,34,19,5,-2,-4
1529302241181193,-1,10,10,-2,-10,-12,-1,3
1529302241181193,-8,-13,-6,-2,-1,1,-1,-4
1529302241183187,0,-2,-17,-20,-6,-5,0,-2
1529302241183187,0,2,6,-3,11,1,-4,2
1529302241195203,2,5,16,29,3,14,6,-1
1529302241195203,-2,-5,-7,-26,12,10,-2,-1
1529302241204129,-2,3,13,19,-22,-9,-3,-2
1529302241204129,-4,-6,-18,-1,20,10,2,-1
1529302241218099,0,-9,-13,-7,-2,-29,-2,0
1529302241218099,1,-2,4,-5,-14,14,8,2
1529302241225126,-4,-7,21,36,19,-4,-3,-2
1529302241225126,4,6,-12,-22,-21,17,3,1
1529302241241090,2,11,18,-9,-9,-12,-2,-1
1529302241241090,-7,-16,-53,-4,3,3,-4,-4
1529302241243025,4,4,25,-1,-7,1,0,0
1529302241243025,0,-6,4,-2,11,16,3,-5
1529302241255049,-5,-3,-18,-7,-3,-8,-5,-5
1529302241255049,6,15,25,-10,-35,-10,-3,0
1529302241270010,-11,-3,-1,14,15,0,1,-2
1529302241270010,-3,-2,5,-1,3,16,4,0
1529302241277988,12,-5,-15,3,7,8,4,8
1529302241277988,-5,-4,-17,-10,-6,-9,-3,-5
1529302241284914,-5,-12,-23,-5,-6,-2,-3,-3
1529302241284914,2,13,25,9,7,-4,4,1
1529302241301900,-5,-4,-13,-11,-29,1,-2,-4
1529302241301900,2,3,22,-2,13,-21,-6,2
1529302241302872,7,5,-7,16,14,4,0,2
1529302241302872,-3,-9,-16,-2,-27,3,0,-1
1529302241314886,-4,-4,1,7,1,1,-2,-2
1529302241314886,-1,2,7,-8,16,-7,-3,-1
1529302241323823,-14,-12,-15,-6,2,-5,0,-8
1529302241323823,13,6,3,-1,2,4,0,11
1529302241338805,6,10,19,9,-15,0,2,2
1529302241338805,-5,-3,-15,4,16,-10,0,-3
1529302241344754,6,-2,-6,-23,-16,12,1,6
1529302241344754,-5,-1,1,0,-6,-10,-3,-4
1529302241361769,-2,1,0,-1,12,2,0,-2
1529302241361769,-2,-2,-3,-5,-6,9,0,0
1529302241362761,-2,10,12,4,14,-28,-4,-4
1529302241362761,0,-3,-14,-9,-6,12,-2,0
1529302241374729,-3,3,26,2,3,16,5,0
1529302241374729,4,-6,-22,6,14,6,3,3
1529302241383704,1,4,10,5,4,10,-1,-2
1529302241383704,4,-7,-22,-6,1,-3,0,2
1529302241398610,-2,3,4,-3,3,-4,-4,-3
1529302241398610,-4,-10,-2,13,-2,-4,-2,-5
1529302241404595,4,4,-7,-19,-3,4,3,4
1529302241404595,-4,1,-6,1,2,-12,-5,-7
1529302241420588,-3,-5,-7,-12,-11,-5,-4,-2
1529302241420588,-6,-1,13,9,-2,3,-1,-1
1529302241427789,2,-5,-19,4,-7,-5,-2,1
1529302241427789,-7,1,15,21,20,10,6,0
1529302241444810,1,-3,-2,-9,-7,-3,-1,-4
1529302241444810,4,9,3,0,0,7,4,4
1529302241445782,-6,-3,1,6,-10,-14,-5,-4
1529302241445782,-5,-1,2,-9,-11,-12,-8,-2
1529302241459079,1,0,2,3,0,0,4,3
1529302241459079,2,-6,-17,-5,-1,3,1,1
1529302241465394,-5,-2,11,5,8,10,1,-2
1529302241465394,13,10,7,-9,-10,-7,-1,2
1529302241481277,1,-6,-17,2,-7,-12,-10,-2
1529302241481277,-6,1,7,-1,0,4,4,-1
1529302241488259,-1,0,-1,-5,-1,1,3,3
1529302241488259,-13,-7,-9,-1,-1,-7,-4,-8
1529302241495627,6,-3,0,1,10,10,1,4
1529302241495627,2,6,7,3,-8,-4,-3,-1
1529302241503879,3,1,2,6,5,1,-2,-2
1529302241503879,-5,-4,-4,-5,0,2,2,1
1529302241518152,-2,2,-3,2,3,-2,5,1
1529302241518152,-5,0,3,-8,-9,-8,-11,-3
1529302241525469,1,0,-4,-5,-9,-7,-4,-1
1529302241525469,0,0,1,3,-1,3,2,-2
1529302241541090,-6,-1,3,4,4,-1,-3,0
1529302241541090,6,1,-1,0,-10,-1,0,1
1529302241548321,-4,-1,2,2,12,5,1,-1
1529302241548321,0,0,0,0,2,-6,-2,-1
1529302241555621,-2,-2,-2,-4,-2,0,3,0
1529302241555621,-1,-1,-1,-3,1,-5,-9,-4
1529302241564329,2,2,-1,-1,-3,-4,0,0
1529302241564329,0,-4,4,11,6,5,6,3
1529302241578868,-5,-3,-7,-3,4,-1,1,-2
1529302241578868,3,4,4,-1,4,17,9,0
1529302241585044,-1,-3,-2,-8,-10,-8,-19,-5
1529302241585044,3,0,1,1,2,-3,2,3
1529302241601138,-6,-6,-7,-3,-6,-5,-5,-3
1529302241601138,0,0,3,12,9,4,-3,-1
1529302241607986,1,-3,-1,-8,-9,-20,-5,-3
1529302241607986,2,0,-1,16,10,24,27,7
1529302241624525,0,2,8,6,0,3,-1,1
1529302241624525,-3,-2,-1,-9,-9,-1,3,0
1529302241626335,-1,2,-1,2,3,9,-1,1
1529302241626335,0,0,-1,-2,0,-16,-15,-3
1529302241637797,-1,-1,-2,-1,6,5,7,0
1529302241637797,-2,-1,2,2,-3,-8,1,0
1529302241646707,-2,-1,0,3,-5,-6,-11,1
1529302241646707,-4,-1,1,7,4,-2,-11,-9
1529302241660716,2,-4,-1,-16,0,-2,-5,1
1529302241660716,-3,0,1,6,-4,-7,-8,-5
1529302241667743,6,1,1,2,1,4,16,2
1529302241667743,-2,0,-2,-9,-4,-5,-5,-2
1529302241683915,-3,0,-3,8,5,4,-8,-4
1529302241683915,1,-2,-3,-25,-4,-5,5,1
1529302241685664,-2,-1,-1,-3,1,7,7,-2
1529302241685664,0,0,-1,-7,-6,-7,-4,-1
1529302241697620,-3,-2,2,9,2,9,2,-1
1529302241697620,0,0,-2,2,4,-2,-1,-1
1529302241706621,-4,-4,-2,7,1,7,6,0
1529302241706621,4,6,2,-15,3,-1,-9,1
1529302241720820,-3,-2,2,-3,-20,-9,3,-1
1529302241720820,0,-3,1,3,2,-2,-6,-1
1529302241727540,-1,0,-2,-7,-4,2,-2,-2
1529302241727540,-1,-5,-6,-2,1,-1,2,-1
1529302241744689,-1,0,-2,-3,4,1,1,-1
1529302241744689,2,-1,-2,2,0,-1,8,4
1529302241745562,1,1,2,3,4,1,2,-1
1529302241745562,-2,-3,0,1,-3,-5,-5,-4
1529302241757726,0,0,-1,-4,0,1,0,-1
1529302241757726,-1,-3,-3,-2,-5,-3,0,0
1529302241766731,0,1,0,8,6,0,2,1
1529302241766731,-3,1,-2,-4,-4,1,0,0
1529302241781213,-1,-2,-2,-2,-3,-4,-5,-1
1529302241781213,-9,-2,-2,0,3,-1,-3,-2
1529302241788512,9,0,0,-5,-2,-1,2,2
1529302241788512,0,0,0,2,-3,1,-2,-1
1529302241804358,-2,-3,-3,1,2,-3,-1,-1
1529302241804358,1,-1,-2,1,-1,2,0,1
1529302241805352,-2,2,2,2,0,1,-1,-1
1529302241805352,0,1,0,-3,-3,2,3,0
1529302241817660,-1,1,-1,-2,1,-2,-2,0
1529302241817660,1,-1,0,0,0,0,-3,-2
1529302241826635,-6,-1,1,-1,-1,-2,-3,-4
1529302241826635,2,-2,-4,-1,-1,-1,2,0
1529302241840859,-1,1,0,-1,1,-1,-2,0
1529302241840859,1,1,0,0,-1,0,-3,-3
1529302241847848,-2,-2,-2,-2,-2,-2,-1,0
1529302241847848,-2,-2,1,2,1,0,-1,1
1529302241864586,1,-1,0,1,-2,-1,-2,-2
1529302241864586,0,-1,-1,-1,0,-1,-1,0
1529302241870466,-1,1,0,-1,-1,1,0,1
1529302241870466,-3,-4,-5,-2,-1,-1,-1,-3
1529302241878342,0,-2,1,1,1,2,0,-1
1529302241878342,4,5,1,-2,-3,-3,-1,0
1529302241886418,-1,0,-1,4,0,0,0,0
1529302241886418,1,1,3,1,0,0,1,0
1529302241901153,1,-2,-11,-4,-2,-1,0,-1
1529302241901153,-1,2,7,2,-2,-2,-2,-2
1529302241908408,0,-2,-2,-2,1,0,1,0
1529302241908408,-1,-3,1,-1,-1,-2,-1,0
1529302241923634,-4,-6,-13,0,0,-2,-1,0
1529302241923634,9,11,20,3,4,3,0,4
1529302241930626,-2,-2,-3,-1,5,5,2,0
1529302241930626,1,-1,-2,-1,-10,-6,-1,1
1529302241937901,-2,-6,-2,-2,-3,-9,-4,-4
1529302241937901,-5,-7,-12,-2,-2,0,0,-3
1529302241946727,0,4,7,1,2,1,-1,1
1529302241946727,-3,-3,-2,0,3,4,1,0
1529302241961652,0,0,0,0,0,0,0,0
1529302241961652,1,1,-6,-1,-2,-2,0,1
1529302241975342,-1,0,3,-1,-2,-2,-1,-2
1529302241975342,-2,1,-2,-2,0,3,0,0
1529302241984435,1,-1,2,-2,-2,-1,0,-1
1529302241984435,-3,-2,-3,-4,1,2,-1,-3
1529302241985315,2,0,-4,1,-1,0,-1,0
1529302241985315,-1,-3,-1,-1,0,-2,-2,-2
1529302241997721,2,7,8,1,0,0,0,-1
