timestamp,emg1,emg2,emg3,emg4,emg5,emg6,emg7,emg8
1528451609016161,0,1,1,-1,-1,0,0,-1
1528451609016161,-2,-2,-2,0,-1,-3,-1,-1
1528451609018152,-1,-1,-1,0,-1,-2,-1,-3
1528451609018152,0,-1,0,1,0,-2,0,0
1528451609023151,1,-1,-3,-6,-1,-2,-1,-3
1528451609023151,1,0,0,1,-1,0,0,-2
1528451609025135,-1,0,0,0,0,0,-2,1
1528451609025135,-1,-1,-2,0,-1,1,0,-2
1528451609028126,1,-1,-2,4,-2,0,-1,-2
1528451609028126,-1,-2,-1,-4,-2,-1,-1,-1
1528451609045080,-2,-1,1,2,1,-3,0,0
1528451609045080,-1,-1,-1,-5,-2,1,0,-1
1528451609051064,0,-1,1,2,1,-1,-1,1
1528451609051064,1,-1,-1,-1,0,0,-1,0
1528451609060040,-1,-1,0,2,-2,1,0,-2
1528451609060040,-1,0,-1,0,-1,-1,-1,-1
1528451609067023,-2,0,0,1,0,-1,0,0
1528451609067023,0,-1,0,2,1,-1,-2,-2
1528451609079989,0,0,-2,-5,0,-2,-1,-1
1528451609079989,-1,1,0,3,-1,-1,-2,-1
1528451609089961,-1,-2,1,-1,-1,0,-1,-2
1528451609089961,-1,0,-5,-9,-2,0,0,-1
1528451609096943,0,0,-1,-2,-1,-1,-1,-1
1528451609096943,0,-1,-1,-3,0,-1,0,-1
1528451609143816,0,-2,-3,1,0,-2,-1,0
1528451609143816,-1,-1,0,-2,0,-1,-1,0
1528451609144814,-2,-1,0,-1,1,-2,0,-1
1528451609144814,-2,-2,-2,0,-2,0,-1,-1
1528451609145811,-1,-1,0,-1,-1,0,-2,1
1528451609145811,-1,0,-1,0,0,0,-1,-1
1528451609147807,-1,-1,0,-1,0,0,-1,0
1528451609147807,0,-2,-1,-1,-1,-1,0,-1
1528451609156782,-1,0,0,0,1,-2,0,-2
1528451609156782,-3,-1,-2,1,-1,-2,0,-2
1528451609163777,-1,-2,0,-2,0,-1,0,-1
1528451609163777,0,-1,0,0,0,1,-1,-1
1528451609171742,0,-3,1,-1,1,-1,-1,-1
1528451609171742,1,0,0,-1,-1,-1,1,-1
1528451609184707,0,0,-1,2,-1,-1,-1,-1
1528451609184707,-2,0,-1,-3,-1,-1,-1,-2
1528451609193683,0,1,0,0,-1,0,-3,-1
1528451609193683,-1,-1,-1,0,-1,0,-1,0
1528451609199667,1,-1,-1,-1,-1,-1,0,0
1528451609199667,0,-1,-1,0,0,-2,-1,0
1528451609216622,-1,0,1,0,-1,-1,2,-1
1528451609216622,-2,-1,0,-1,0,-2,-2,0
1528451609231583,0,-1,-3,-1,0,1,-1,-1
1528451609231583,0,0,0,3,-2,1,-1,-1
1528451609232579,0,-1,-4,-12,1,-2,0,-2
1528451609232579,2,-2,-2,0,2,1,-2,-2
1528451609244548,-2,1,-2,0,0,0,0,0
1528451609244548,1,0,0,-1,0,0,-1,-1
1528451609253524,0,1,0,1,-2,0,-1,0
1528451609253524,-1,-1,-1,-1,-3,-1,0,0
1528451609259508,1,-1,-2,-1,-2,-2,-1,-2
1528451609259508,0,-1,-1,1,1,0,0,0
1528451609276462,-1,-2,-1,1,0,0,0,0
1528451609276462,-2,1,-1,-3,-1,0,-1,-1
1528451609291422,-1,1,0,1,0,-1,0,1
1528451609291422,-1,-1,-2,-2,0,-2,-1,-1
1528451609293417,-1,-1,1,0,0,1,-1,-1
1528451609293417,1,-1,0,0,-2,1,0,0
1528451609305385,0,0,0,-1,-3,1,-1,-1
1528451609305385,-1,-2,-1,-2,-1,-2,1,-1
1528451609314361,1,1,-1,2,-2,-1,0,-1
1528451609314361,1,0,0,1,1,0,-1,0
1528451609320345,0,-2,1,-2,0,1,-1,-1
1528451609320345,-2,1,-1,-1,1,0,-1,-1
1528451609336302,-1,-1,-2,1,-1,1,-1,0
1528451609336302,0,-1,0,-1,-1,-1,-1,-1
1528451609342286,0,-1,-2,-1,-1,-2,-2,1
1528451609342286,-1,0,-1,-1,0,1,-2,0
1528451609351262,-1,0,0,-2,-1,-1,0,0
1528451609351262,1,-1,-1,-2,-1,0,0,0
1528451609365225,-1,0,-1,-2,0,1,0,-1
1528451609365225,0,-1,-1,-1,0,-2,-1,0
1528451609374201,-3,0,-1,0,-2,-1,-2,0
1528451609374201,0,0,-1,0,-1,-2,-2,-1
1528451609380186,-2,0,-1,-1,-1,-1,0,0
1528451609380186,1,0,-2,-1,-3,-1,-1,-1
1528451609396143,1,-3,-1,1,-1,1,1,0
1528451609396143,-1,1,-1,-1,-1,-1,-1,0
1528451609402127,-2,-1,-1,0,0,0,0,-1
1528451609402127,0,1,-1,1,1,0,0,-1
1528451609411103,-2,1,-1,-2,1,0,0,-2
1528451609411103,-1,1,2,0,1,0,1,0
1528451609425066,-1,0,0,0,-2,-2,0,0
1528451609425066,0,-1,-2,1,-1,-1,-1,-1
1528451609441051,-1,-2,-1,-3,-2,-3,1,-1
1528451609441051,-1,-2,-2,0,-3,-2,0,0
1528451609441051,0,0,0,0,1,1,-1,0
1528451609441051,-2,-2,0,-1,2,0,-1,0
1528451609456980,0,0,-1,-1,-1,0,-2,-1
1528451609456980,0,0,-2,-3,0,-1,-1,-3
1528451609462964,-1,-1,-1,-2,-2,-1,1,-1
1528451609462964,-1,0,0,-3,-2,-1,-2,0
1528451609471939,1,0,-1,0,0,-1,-1,-1
1528451609471939,-2,0,-2,0,0,0,-2,0
1528451609484905,1,1,-1,0,0,-1,0,-1
1528451609484905,-1,-1,1,-1,-1,-1,-1,0
1528451609493882,-1,1,1,1,-1,-1,-1,0
1528451609493882,-1,-1,2,1,-1,1,0,0
1528451609507844,1,-1,0,1,-1,-2,-1,-1
1528451609507844,-1,1,0,-2,-1,-1,1,0
1528451609516821,0,-1,-1,1,-1,-1,-1,-1
1528451609516821,-2,-2,-2,0,0,-1,-1,0
1528451609522804,-2,-1,0,0,-1,-1,-3,-1
1528451609522804,1,1,0,-2,-2,-1,0,-1
1528451609531780,0,1,0,1,-1,1,-1,-1
1528451609531780,1,2,-1,0,0,1,0,-1
1528451609544746,0,-1,-1,-2,0,-1,-2,1
1528451609544746,-2,0,-2,-2,-1,0,-1,0
1528451609553728,-3,-1,-1,0,0,-2,-1,0
1528451609553728,0,-1,0,-1,-1,-2,-3,-3
1528451609567684,-1,0,0,0,-1,-1,-1,-1
1528451609567684,0,-1,-1,0,0,0,1,0
1528451609576660,0,-1,0,-1,0,-1,0,-1
1528451609576660,0,0,0,0,-1,-3,-1,0
1528451609582644,-1,-1,0,-1,1,-2,-1,-2
1528451609582644,-1,-1,-2,2,0,0,-1,-2
1528451609591620,0,0,-2,-2,-1,1,-1,-1
1528451609591620,0,-2,-2,-1,0,0,-1,0
1528451609604585,-1,-2,-2,0,-1,-1,0,-2
1528451609604585,-1,-1,0,-1,0,0,0,0
1528451609613562,0,-1,0,0,0,1,-1,0
1528451609613562,-1,-1,-1,0,-1,0,0,-1
1528451609627524,1,0,-2,0,-1,0,-2,-1
1528451609627524,1,0,0,-1,-1,0,-1,0
1528451609636500,0,0,-1,0,0,-2,0,0
1528451609636500,-1,2,-1,-1,-1,-1,-2,0
1528451609642485,-1,1,-1,0,0,0,0,0
1528451609642485,1,1,-1,1,0,-1,-1,-2
1528451609651460,1,-1,-1,-1,0,-2,0,-1
1528451609651460,-2,-1,-1,0,1,0,0,1
1528451609665423,-2,-1,0,-2,-2,0,-2,-1
1528451609665423,0,-3,0,-1,0,-1,-1,0
1528451609674399,-1,-2,1,0,-1,-2,0,-2
1528451609674399,-2,-1,-2,0,-1,-2,-1,-1
1528451609687364,0,0,1,-1,0,0,-1,-1
1528451609687364,-2,-1,-2,0,-1,0,-1,0
1528451609696341,-1,1,-2,-1,1,-2,-2,0
1528451609696341,1,0,-1,0,0,-1,-1,0
1528451609702324,-2,-1,-1,-1,0,-2,0,0
1528451609702324,1,0,1,0,-2,-1,-1,-1
1528451609719280,-1,0,-1,1,-2,0,0,-1
1528451609719280,1,-1,0,-1,1,-1,-2,0
1528451609725263,1,-1,-1,-1,0,0,-1,0
1528451609725263,-1,-1,0,0,-1,1,-1,-1
1528451609734239,-1,-1,-1,-2,-1,0,-1,0
1528451609734239,-1,1,-1,-1,-1,0,1,-3
1528451609747221,0,-2,-1,0,1,0,-1,0
1528451609747221,0,-1,-2,-2,-1,0,-1,-1
1528451609763161,1,1,-1,-1,-1,-1,-1,-1
1528451609763161,0,-2,2,0,0,1,0,0
1528451609764166,-2,-1,0,-1,-1,-1,0,-2
1528451609764166,1,0,-2,0,-3,-1,-1,0
1528451609777124,0,-1,-1,0,0,-2,0,-2
1528451609777124,0,-1,0,-1,-1,0,-3,-2
1528451609785141,-1,1,-2,1,-1,-1,0,0
1528451609785141,-1,-2,0,-1,-1,-1,-1,0
1528451609794079,-1,-1,-1,-2,0,0,-2,1
1528451609794079,0,-1,-1,-1,-1,-4,0,1
1528451609808139,-1,-1,-2,0,-1,0,-1,1
1528451609808139,0,0,-1,-2,0,-1,-1,0
1528451609816020,-1,1,0,1,-1,1,-2,-1
1528451609816020,0,0,-1,1,0,-1,-1,-1
1528451609830982,-3,-1,-1,-1,-2,-3,-2,-2
1528451609830982,0,0,0,-1,0,-3,-1,-1
1528451609838099,0,-3,0,-2,-1,-1,-1,0
1528451609838099,-2,-1,-2,-1,-1,0,-2,-1
1528451609845083,-1,1,0,-2,-1,0,-1,-1
1528451609845083,-1,0,-1,0,0,1,-1,-1
1528451609853936,-1,-3,-2,0,0,-2,1,0
1528451609853936,0,-2,-1,0,1,-1,0,1
1528451609867883,2,-2,-1,0,-1,0,1,1
1528451609867883,-2,0,-2,-1,-1,0,-1,-1
1528451609876858,-1,0,0,-2,0,0,-1,-1
1528451609876858,0,-1,-1,-1,0,0,0,-1
1528451609882849,-1,-1,-1,0,-1,-1,-1,-2
1528451609882849,0,-1,0,-1,-1,-1,0,-1
1528451609897801,0,-1,-1,0,1,0,-1,-1
1528451609897801,-1,0,-2,-2,-1,-2,0,0
1528451609905138,0,0,-1,-1,1,0,-2,-1
1528451609905138,-1,-1,-1,-1,0,0,0,-1
1528451609913956,-1,1,-1,0,0,1,1,-2
1528451609913956,-1,1,-1,-1,-3,0,-1,-1
1528451609928150,1,-1,-1,-1,0,0,-2,0
1528451609928150,-1,-2,0,-1,-1,-3,0,0
1528451609936097,0,0,0,0,0,1,-1,-1
1528451609936097,1,0,-1,-1,1,0,0,-1
1528451609942262,-1,1,0,0,-2,0,1,0
1528451609942262,0,-1,0,1,0,-1,0,0
1528451609957225,1,-1,0,0,-1,0,1,0
1528451609957225,1,-2,0,-1,-1,-1,-1,0
1528451609965239,-1,0,-1,0,0,0,-2,-1
1528451609965239,-1,-1,-2,0,0,1,1,-1
1528451609974179,-2,1,-1,-1,-2,-1,-2,-1
1528451609974179,0,0,0,-2,0,-1,-1,0
1528451609987302,0,-2,0,-1,1,0,-1,1
1528451609987302,-1,0,0,2,-1,-1,-1,0
1528451609996119,-2,-1,-1,0,-1,0,-1,-1
1528451609996119,-2,-2,0,-1,0,0,0,-1
1528451610002266,-1,-1,-2,-1,-1,-2,-1,-3
1528451610002266,-1,0,-1,-1,-1,0,-1,0
1528451610018110,-1,0,-2,-2,0,-1,-1,1
1528451610018110,0,1,0,-2,-1,0,-1,-1
1528451610025306,0,-2,0,0,0,1,-1,0
1528451610025306,-1,-2,0,-1,-1,0,0,-1
1528451610034129,0,0,-1,0,-2,0,0,0
1528451610034129,-1,-1,-2,-1,-2,0,1,0
1528451610047437,0,1,0,-1,1,0,-1,-1
1528451610047437,0,1,-1,1,0,-1,-1,-1
1528451610056413,-1,-2,-1,-1,-1,-1,0,-3
1528451610056413,-1,-1,1,1,-1,2,-1,-3
1528451610062434,-2,0,1,-1,-2,0,-2,0
1528451610062434,0,-1,-2,-1,0,0,0,0
1528451610077358,0,-1,0,-1,0,0,-1,1
1528451610077358,0,0,-1,0,-1,-1,-1,-2
1528451610085494,-1,1,-2,-1,-2,-1,0,0
1528451610085494,-2,0,0,-2,0,0,-2,0
1528451610094621,-1,0,0,-1,0,-1,0,0
1528451610094621,-2,0,-1,-1,-1,-1,0,0
1528451610107477,-1,-1,-2,0,-1,-1,-1,-3
1528451610107477,1,-2,1,-1,0,-1,-1,-1
1528451610124432,1,-2,-2,-1,-1,0,0,0
1528451610124432,-1,-1,1,-2,0,-1,1,-1
1528451610130438,0,-1,-2,0,-1,1,2,0
1528451610130438,-1,-2,0,-1,0,0,-1,0
1528451610137430,-2,-1,2,1,0,-2,-2,1
1528451610137430,-2,-1,-1,-1,-1,0,0,0
1528451610153355,-1,-1,-1,-1,-2,-1,-2,1
1528451610153355,-2,-1,-2,0,-1,-2,0,-2
1528451610155350,-1,0,-1,-1,-1,-1,-2,0
1528451610155350,-1,-1,-1,-1,-1,-2,-1,0
1528451610167459,0,0,0,0,-1,0,0,1
1528451610167459,0,1,0,-3,-1,-2,-1,-2
1528451610176352,1,-1,-2,1,-1,0,-1,-1
1528451610176352,0,-2,-1,0,-1,-1,-1,-2
1528451610191294,0,-3,1,-2,0,-1,-1,0
1528451610191294,0,-1,0,0,-1,-1,-1,0
1528451610197269,0,0,-2,-1,0,0,1,0
1528451610197269,-1,0,-1,1,0,1,0,0
1528451610214194,-1,-1,-2,0,-1,-2,-1,-1
1528451610214194,-1,-3,0,1,0,0,0,0
1528451610215190,-1,-1,-1,0,-1,-1,1,-2
1528451610215190,0,0,1,1,1,-1,-1,0
1528451610227158,1,-1,2,-1,-1,-2,-1,-1
1528451610227158,0,-1,-1,-2,0,0,-1,-1
1528451610236135,-1,-2,-1,-2,-2,-1,-2,-2
1528451610236135,1,1,-1,-1,-1,0,0,0
1528451610251240,1,0,-1,0,-1,-1,-1,1
1528451610251240,-1,-1,0,0,-1,2,-1,-1
1528451610257242,-1,0,0,-2,0,-1,0,0
1528451610257242,1,1,0,-2,-2,0,-3,-2
1528451610274191,-2,0,-2,-2,1,0,0,0
1528451610274191,-1,-1,-1,-2,-1,0,-1,-1
1528451610276073,0,0,-1,2,0,0,1,0
1528451610276073,-1,0,-1,-1,0,-2,1,0
1528451610288117,-1,1,0,0,0,-1,0,-1
1528451610288117,-2,1,-1,-1,-1,-2,-1,0
1528451610296181,-1,-1,1,-2,0,-1,-1,0
1528451610296181,-1,-1,-2,0,0,-1,2,-2
1528451610311299,0,-2,0,0,1,-1,1,-1
1528451610311299,0,-2,0,1,0,-1,0,0
1528451610317285,-1,-1,-1,-1,-2,-2,1,-1
1528451610317285,-1,-2,0,-1,-2,-1,-1,0
1528451610334436,-1,1,0,-3,0,1,-1,0
1528451610334436,0,0,-2,-3,0,-1,0,0
1528451610335281,0,-1,1,-2,0,0,-1,-1
1528451610335281,-1,1,-2,0,0,-1,-1,-1
1528451610347420,0,0,-1,-1,0,0,0,0
1528451610347420,-2,-1,-2,-1,-1,-2,0,-1
1528451610356397,0,-1,-3,-1,-1,1,-1,-1
1528451610356397,-1,-3,0,0,-2,0,-1,0
1528451610370361,-1,0,0,0,-2,-1,-1,-1
1528451610370361,0,-1,-1,1,-1,-1,0,-1
1528451610377386,0,-2,-1,-3,0,-2,-1,-1
1528451610377386,-1,0,-1,0,-1,0,-1,1
1528451610393300,0,0,0,0,1,-1,-2,0
1528451610393300,-1,0,1,-1,-1,1,2,-1
1528451610400282,0,1,1,-1,-1,0,-1,0
1528451610400282,0,-2,-1,0,0,-1,0,0
1528451610407263,0,-1,-1,-1,-1,-3,1,0
1528451610407263,1,1,0,0,-2,0,0,0
1528451610416292,-1,-2,-2,-1,-2,0,0,0
1528451610416292,0,0,0,-1,0,-1,-1,-1
1528451610430398,-1,-3,-2,1,-1,0,-1,-1
1528451610430398,1,-1,1,0,0,-3,-1,0
1528451610438163,-1,-1,0,-1,0,0,-1,-1
1528451610438163,0,0,-2,-1,-1,0,0,0
1528451610454283,-1,0,1,-2,0,-1,-2,-1
1528451610454283,0,0,-2,-1,-1,0,-1,-1
1528451610456123,1,-1,0,1,-1,-1,0,0
1528451610456123,-1,0,0,-2,-1,-1,0,-1
1528451610468116,-1,0,-3,1,-2,-2,1,2
1528451610468116,-3,-1,-2,-1,0,-1,-1,0
1528451610476416,-3,1,-2,0,-1,0,-1,-1
1528451610476416,0,-1,-2,-1,0,2,-1,-1
1528451610490382,0,-2,-1,-1,1,0,-1,-2
1528451610490382,1,-1,-1,-3,-1,-1,-2,-2
1528451610497243,0,1,0,1,0,0,0,1
1528451610497243,-1,1,1,-1,-3,-2,0,1
1528451610514364,-2,-1,-2,-1,-2,0,0,1
1528451610514364,0,-1,-1,0,-1,0,0,-1
1528451610515277,1,-2,-1,-2,0,0,0,-2
1528451610515277,-1,-1,0,0,-1,-1,-1,-1
1528451610528319,0,-2,-3,-1,-3,-1,-3,-1
1528451610528319,-3,-2,-1,0,-1,-1,0,0
1528451610536358,-1,-2,-1,0,-1,0,0,-1
1528451610536358,-2,-2,-1,0,0,-2,1,-1
1528451610551342,0,0,2,0,-1,1,1,0
1528451610551342,0,1,-3,-1,0,0,-1,0
1528451610557281,-1,-1,-2,0,0,-1,-1,-1
1528451610557281,0,-1,-1,-1,-2,-1,0,0
1528451610574237,0,0,0,0,1,-1,-1,0
1528451610574237,-1,-1,-1,-1,-1,0,-1,0
1528451610575233,-1,-2,0,-1,0,-2,0,1
1528451610575233,0,0,-2,0,0,-1,-1,-2
1528451610587351,-1,-1,0,0,0,-1,0,0
1528451610587351,-1,0,1,1,-1,-2,0,0
1528451610596177,-3,-1,-1,0,0,-1,0,-1
1528451610596177,-2,0,-1,-1,0,0,1,-1
1528451610611300,0,-1,1,-2,0,-2,0,-1
1528451610611300,0,0,1,-1,-2,1,-1,-2
1528451610617120,1,-1,-1,-1,-1,0,-1,0
1528451610617120,-1,-1,0,0,0,0,-1,1
1528451610634076,0,-1,-2,-2,0,-1,-2,-2
1528451610634076,0,-2,-1,0,-1,-1,0,1
1528451610636070,0,1,-2,0,0,-2,-1,1
1528451610636070,0,-1,0,-1,-1,0,1,-2
1528451610648038,-2,-2,-1,-2,-1,0,2,0
1528451610648038,0,1,0,1,-1,0,0,0
1528451610657016,0,-1,0,-1,-2,0,-2,-1
1528451610657016,0,-1,0,0,-1,1,-2,1
1528451610670032,-1,0,-1,-1,-1,-2,1,-2
1528451610670032,-1,-1,-1,-1,-1,-2,-2,0
1528451610678958,-2,-1,0,0,-1,-1,-1,0
1528451610678958,-1,1,0,-2,0,-1,-1,-1
1528451610693970,-1,0,-1,-1,0,0,-1,-1
1528451610693970,1,-1,-1,-2,0,-1,0,0
1528451610695930,-1,-1,0,-2,-1,0,-1,-1
1528451610695930,0,-2,-2,0,-1,-3,-1,0
1528451610707933,1,-1,-2,0,-2,-1,1,1
1528451610707933,-1,0,-1,1,-1,-1,0,-1
1528451610716900,0,1,-2,1,-1,-2,1,-1
1528451610716900,0,-1,1,0,1,-1,-1,0
1528451610730850,-1,0,-1,-1,0,-3,-1,-2
1528451610730850,-1,-1,-1,-1,0,1,-1,-2
1528451610737851,-1,-1,-2,1,-1,-1,-1,-1
1528451610737851,-1,0,-1,0,1,-1,-1,-1
1528451610752817,-1,0,-2,0,-2,-1,-1,1
1528451610752817,0,0,1,-1,-1,0,-2,1
1528451610759741,-2,-1,0,-1,-1,1,-1,-1
1528451610759741,0,0,0,-1,-1,-1,-1,1
1528451610767770,1,-2,-2,0,0,0,-1,-2
1528451610767770,-2,0,-2,0,0,0,0,-1
1528451610776695,0,0,-1,1,0,-1,-2,-1
1528451610776695,0,-1,0,0,-1,0,-1,-1
1528451610790711,-1,0,0,-2,-1,-1,0,0
1528451610790711,-1,-2,0,-1,0,-1,-1,1
1528451610797643,0,-1,-2,-2,-1,-1,0,-1
1528451610797643,1,-2,-1,0,-1,0,0,-1
1528451610813596,1,0,-1,1,-2,1,0,-1
1528451610813596,-2,0,-1,-1,-1,-1,-1,-2
1528451610819633,0,-1,-1,-1,-1,-1,0,1
1528451610819633,-1,0,0,-2,-2,-2,0,0
1528451610827614,-1,-2,0,-1,1,-1,-3,1
1528451610827614,-1,-1,-2,-1,-1,-1,-1,0
1528451610836535,-3,1,1,-2,-2,2,-2,-1
1528451610836535,-1,-1,-3,0,-1,-1,-2,0
1528451610850553,0,-1,-2,1,-1,-1,-1,0
1528451610850553,-2,-2,-1,-1,0,0,1,0
1528451610857533,-1,-1,-1,1,0,-2,1,-1
1528451610857533,0,0,-1,-2,-1,1,-1,-2
1528451610873491,-1,0,0,-1,-2,-1,0,0
1528451610873491,0,-1,-1,-1,-2,-1,0,-2
1528451610880438,0,-1,-2,0,-1,-1,0,0
1528451610880438,1,-1,-3,0,0,0,0,-1
1528451610887443,0,-2,0,-2,0,1,-1,-1
1528451610887443,0,0,-1,-1,0,0,-1,-2
1528451610896379,0,-1,-1,0,-2,-1,0,-1
1528451610896379,1,0,-1,0,-1,-1,0,-1
1528451610910393,-1,-1,-1,0,-1,0,0,0
1528451610910393,0,0,0,0,-1,-1,0,-1
1528451610917366,0,-1,1,-2,-1,-1,-2,-1
1528451610917366,-3,0,0,-1,0,-1,-1,0
1528451610933330,-1,1,-2,0,-1,-1,-1,-1
1528451610933330,0,-1,-1,0,-1,1,-3,-1
1528451610940257,0,1,0,-1,1,-1,0,-1
1528451610940257,-3,-1,-1,-1,1,-2,0,0
1528451610957462,0,0,1,1,0,0,1,-2
1528451610957462,-1,0,-2,-1,-1,-1,-1,0
1528451610958463,0,-2,0,-2,-1,-2,-1,0
1528451610958463,1,-1,-1,-1,-1,0,0,0
1528451610970589,0,-1,-1,0,-1,-1,-1,-2
1528451610970589,-2,0,0,0,-1,-2,-1,-1
1528451610977569,0,-1,-1,1,-1,-1,-1,-1
1528451610977569,1,-2,0,-2,1,-1,-2,1
1528451610993414,-1,-2,0,-1,0,-2,-1,1
1528451610993414,0,0,-2,-1,0,0,-1,0
1528451611000395,-2,0,-1,-3,0,-1,-1,-1
1528451611000395,-2,-1,0,0,-2,-2,0,0
1528451611016466,-1,0,-1,-2,-1,-2,-1,0
1528451611016466,-1,0,-2,0,0,-1,0,1
1528451611018302,0,-1,-1,-1,-1,0,0,-1
1528451611018302,0,1,-3,0,-1,1,-1,-1
1528451611030270,0,0,-1,-3,-1,0,-2,0
1528451611030270,0,-1,-3,-1,-1,0,-1,-1
1528451611045592,0,-1,0,-2,1,-1,-1,0
1528451611045592,-1,-3,0,-1,0,0,-2,-2
1528451611053571,0,0,-1,-1,-2,0,-1,0
1528451611053571,-3,-1,0,0,-1,0,-1,-1
1528451611060626,-2,0,-1,0,-3,0,-2,0
1528451611060626,-1,-1,0,1,-1,-2,-1,0
1528451611076747,0,0,-2,0,1,0,-1,0
1528451611076747,-1,0,0,-3,-1,1,1,-1
1528451611077787,0,0,0,0,0,-1,-1,-1
1528451611077787,-1,0,-1,-1,-1,1,0,-2
1528451611090922,-2,-3,-2,-2,-3,0,0,0
1528451611090922,0,-2,-1,2,-1,-3,0,0
1528451611097904,0,0,0,-1,-1,-1,-1,1
1528451611097904,0,0,0,-1,-1,0,0,0
1528451611113109,0,1,0,0,0,0,-1,-3
1528451611113109,-1,-3,1,-1,-2,-1,-1,-2
1528451611120255,0,-2,-1,0,0,-1,0,0
1528451611120255,1,-2,-1,-1,-1,-2,0,0
1528451611136103,0,0,-1,0,0,0,1,-1
1528451611136103,-1,0,-1,0,-1,-1,-1,0
1528451611138056,-1,0,-1,1,1,0,-2,-2
1528451611138056,-2,0,0,0,-1,-3,-2,1
1528451611151173,1,-1,-1,0,-1,-1,-1,-2
1528451611151173,1,-1,0,-3,0,-1,-1,-3
1528451611158164,0,-2,-1,-1,0,-1,0,1
1528451611158164,-2,-1,0,-1,-1,-1,-1,-4
1528451611173125,-2,-2,-3,-1,-1,-1,1,0
1528451611173125,1,-1,0,-1,-1,-1,-1,-1
1528451611180109,0,-2,0,-1,-1,0,-1,-2
1528451611180109,0,-1,1,-1,-1,0,-1,-1
1528451611196082,-1,0,0,0,-1,-2,-3,0
1528451611196082,0,0,-1,1,1,0,-1,1
1528451611198079,-1,0,-1,-1,-1,-1,0,-1
1528451611198079,-1,-1,-4,-1,0,1,1,1
1528451611211285,1,0,0,-2,0,1,-1,0
1528451611211285,1,-2,0,-1,0,-1,-1,-1
1528451611217323,0,1,1,0,-2,0,-1,-2
1528451611217323,0,-1,-1,-1,-1,0,-3,-1
1528451611233490,-2,0,0,0,1,0,-2,-1
1528451611233490,0,1,0,-2,-1,-2,-1,-1
1528451611240463,0,-2,0,0,0,0,0,-2
1528451611240463,-2,-1,-2,1,-2,-2,0,-2
1528451611256269,0,-1,0,0,1,0,-1,-1
1528451611256269,0,-1,0,1,1,-1,0,1
1528451611258103,-2,0,-1,-1,-1,-1,0,-1
1528451611258103,1,-2,0,0,0,-1,-2,0
1528451611271230,-1,-1,-1,1,-1,-1,-1,-3
1528451611271230,-1,-1,-1,-2,-3,0,0,0
1528451611278118,0,-1,-2,-1,-1,0,-1,1
1528451611278118,-1,0,-1,-1,0,-2,-2,1
1528451611293404,-1,-1,-1,-1,-1,0,0,-1
1528451611293404,-1,0,-1,0,0,0,-1,-1
1528451611300381,0,0,0,-1,-2,-2,0,0
1528451611300381,0,1,-1,-1,1,-1,0,-2
1528451611316757,0,-1,0,-1,-1,-3,1,1
1528451611316757,1,0,-1,0,-2,0,0,0
1528451611317755,-1,-1,0,-1,0,0,-2,0
1528451611317755,0,0,-1,0,-1,0,-1,-1
1528451611330934,0,-1,-1,-1,0,-1,-2,-2
1528451611330934,-1,-1,-1,-2,0,0,-1,0
1528451611338126,-1,-1,1,-1,0,-1,0,0
1528451611338126,-1,1,0,-1,-1,-1,0,0
1528451611353082,0,-2,-2,-1,0,1,0,1
1528451611353082,-1,-1,-1,0,-1,-2,-2,0
1528451611360064,-1,-1,-1,-1,-3,-1,-1,-1
1528451611360064,-1,-1,0,-1,0,0,0,0
1528451611376280,-1,0,0,1,0,-2,-2,0
1528451611376280,0,-1,-3,0,0,0,0,-2
1528451611378275,0,1,-2,0,0,-2,-1,0
1528451611378275,1,-2,0,0,-1,0,0,-1
1528451611390243,-2,-1,-1,0,-2,0,0,-1
1528451611390243,-1,1,-1,0,1,0,0,-2
1528451611399394,-1,0,-2,-1,1,-2,-1,-1
1528451611399394,-1,1,-1,0,-1,0,0,0
1528451611421480,-1,0,1,-1,-1,-1,-1,1
1528451611421480,-2,0,-1,0,-1,0,0,-1
1528451611423332,-1,-1,-1,-1,2,-1,0,0
1528451611423332,0,-1,-1,1,-2,-1,-1,-2
1528451611436433,0,-1,-1,0,-1,0,-1,-1
1528451611436433,0,-1,0,-2,1,-2,-1,-1
1528451611438290,1,-3,-1,1,-1,1,-1,-1
1528451611438290,-2,0,-1,0,2,0,0,-2
1528451611450395,0,1,-1,0,-2,0,1,-2
1528451611450395,0,0,-1,-1,-3,0,-1,0
