timestamp,emg1,emg2,emg3,emg4,emg5,emg6,emg7,emg8
1529309180966140,3,4,7,-12,1,-9,3,-5
1529309180966140,-4,-3,-9,-5,12,34,9,-3
1529309180967136,1,-2,-4,3,-5,-54,-9,7
1529309180967136,-3,0,-4,1,23,40,-1,-13
1529309180970128,-4,-3,0,5,-44,-17,-9,0
1529309180970128,5,2,5,11,35,8,7,12
1529309180974117,-2,0,-1,-4,-11,2,-4,-20
1529309180974117,3,0,5,10,25,13,1,7
1529309180978107,0,-3,-3,0,-6,-29,-11,-3
1529309180978107,-9,-4,-4,-10,-34,-32,-5,-4
1529309180987082,-2,-1,-2,-4,5,-3,2,7
1529309180987082,-7,-3,1,7,-12,12,0,2
1529309180993067,-10,0,-2,11,67,60,20,-13
1529309180993067,16,6,3,8,6,17,14,21
1529309181008027,0,1,7,-4,-5,-10,-9,6
1529309181008027,-3,-4,-16,-30,-56,-42,-12,-11
1529309181018998,-3,-6,-12,-17,-46,-51,-35,-25
1529309181018998,-6,-5,-3,-6,-9,-33,-15,10
1529309181037946,-2,0,-4,0,20,62,16,-14
1529309181037946,0,0,1,4,-15,-37,-7,0
1529309181039941,4,0,-4,6,24,19,6,10
1529309181039941,3,1,0,11,1,24,9,-6
1529309181052907,2,3,3,11,28,31,11,13
1529309181052907,-5,-4,1,0,6,-7,6,0
1529309181093797,-3,3,13,6,-3,-12,-4,-3
1529309181093797,-2,-6,-20,-11,-1,2,1,-2
1529309181094795,-8,-14,-22,-19,-23,-13,-1,7
1529309181094795,0,-2,-3,-1,-16,-13,-9,-9
1529309181097787,-3,-1,-1,-1,21,12,5,-8
1529309181097787,1,0,6,1,-12,-5,-1,5
1529309181099781,2,9,12,9,19,6,0,-11
1529309181099781,4,0,0,-5,-1,-4,1,-6
1529309181105767,5,-2,-7,-9,-21,-18,-8,13
1529309181105767,1,3,3,6,12,6,-11,6
1529309181112749,-8,-2,5,8,20,28,26,3
1529309181112749,-9,-4,-4,0,-7,2,0,-3
1529309181118732,10,3,-1,1,1,0,2,0
1529309181118732,-19,-9,-1,-7,-10,-13,-9,-12
1529309181135685,5,4,0,-3,-10,-14,-14,2
1529309181135685,-6,0,8,4,13,9,5,-2
1529309181141670,-1,-7,-12,-7,-9,0,1,3
1529309181141670,3,-3,-5,1,-5,-4,2,1
1529309181164609,4,-1,0,1,-4,-4,-2,-5
1529309181164609,-9,-2,1,3,4,-3,4,-3
1529309181165605,16,5,8,3,-1,-2,-1,6
1529309181165605,-12,-8,-12,-2,1,-3,-4,-13
1529309181179568,5,0,-13,-7,-7,-6,-2,6
1529309181179568,-9,-4,5,-4,0,-3,-17,4
1529309181186551,6,1,4,5,12,10,9,-20
1529309181186551,10,5,7,1,3,-2,4,9
1529309181202508,0,-1,-2,1,-10,-4,3,3
1529309181202508,-5,-3,-6,-3,-7,-2,-2,-7
1529309181203505,-5,-3,3,3,3,6,0,11
1529309181203505,12,6,4,-6,1,3,3,1
1529309181224448,-4,2,9,7,-9,-17,-18,-10
1529309181224448,2,1,-7,-8,5,-1,-1,-13
1529309181225447,-8,-6,-7,-6,-11,-3,-7,2
1529309181225447,3,1,5,7,7,10,1,-6
1529309181239409,-1,0,-4,3,3,-3,-6,9
1529309181239409,7,6,1,1,-11,2,2,6
1529309181246392,-7,-5,3,-4,-10,-6,-2,-5
1529309181246392,-3,0,-11,-3,0,0,10,6
1529309181262346,-5,4,24,5,6,2,0,-6
1529309181262346,17,-2,-7,5,9,2,6,8
1529309181263345,-20,-3,-5,-8,-3,-2,-3,-15
1529309181263345,5,-2,-3,-5,-15,-12,-9,1
1529309181284290,11,6,35,12,8,-3,2,3
1529309181284290,5,-8,-55,-15,0,1,-1,13
1529309181285287,-6,0,-5,6,7,0,0,-4
1529309181285287,-5,5,32,-2,-6,-7,-8,-11
1529309181299250,-17,-11,-19,-14,-8,3,3,-1
1529309181299250,5,-3,11,6,3,-2,1,7
1529309181306231,-11,3,-2,3,7,3,-2,-10
1529309181306231,1,-1,-7,2,3,6,8,4
1529309181322189,-5,0,3,-7,-15,-8,-17,-28
1529309181322189,-5,11,16,0,-6,-9,1,10
1529309181323184,22,12,40,10,9,8,0,-5
1529309181323184,-14,-38,-41,-8,3,-4,-1,-10
1529309181345126,-4,-15,-33,-14,-6,0,0,3
1529309181345126,-10,-2,-24,-5,-3,-2,3,0
1529309181345126,-10,7,11,2,4,5,-1,-1
1529309181345126,2,1,-12,5,-1,1,-9,-3
1529309181359090,19,-3,-22,-6,-4,3,1,3
1529309181359090,4,17,59,11,2,5,-4,-3
1529309181366072,-20,-32,-62,-17,-12,-9,-5,5
1529309181366072,0,-4,-3,-4,-1,-1,6,-4
1529309181382029,-10,-7,-5,1,3,-5,-7,-11
1529309181382029,13,17,42,14,3,9,8,-5
1529309181383025,22,-8,-40,-15,-4,-1,-4,16
1529309181383025,-16,10,23,17,5,-4,4,6
1529309181404966,-8,-11,-10,-24,-8,-2,-4,4
1529309181404966,-2,-7,-10,1,1,2,2,-6
1529309181405963,-12,3,26,1,12,8,8,-4
1529309181405963,20,42,87,21,4,3,-5,-2
1529309181418929,3,-2,11,13,2,-2,5,11
1529309181418929,-18,-26,1,-26,-2,-5,-6,-3
1529309181426907,3,-2,-2,-2,-13,-6,-3,-2
1529309181426907,-6,-6,-7,-3,-5,-4,1,-2
1529309181441868,8,12,24,10,-1,4,5,13
1529309181441868,4,12,-9,1,0,4,-4,-2
1529309181442867,1,9,27,24,6,-6,-4,-2
1529309181442867,2,-24,-10,-23,-17,3,2,5
1529309181464812,-6,-5,-36,-7,-4,-7,2,-6
1529309181464812,10,-6,-10,-2,-6,-7,-1,-2
1529309181465808,10,18,-9,4,6,4,2,11
1529309181465808,-1,9,-9,2,4,6,-7,-9
1529309181478770,-5,-2,3,1,7,7,-1,4
1529309181478770,-1,1,2,0,-7,-5,-10,-27
1529309181486749,-2,-1,-15,-12,-11,-7,-1,0
1529309181486749,-6,2,40,2,2,-4,-5,1
1529309181502706,10,12,-4,6,10,5,4,-2
1529309181502706,-7,-7,-20,-4,-1,-7,-5,0
1529309181502706,-7,-19,-19,-4,-15,-12,-5,-4
1529309181502706,-2,-6,-40,-15,4,4,3,0
1529309181524646,-5,-2,-11,-16,-18,-9,-3,-3
1529309181524646,-3,-2,10,20,12,-5,2,3
1529309181525643,-3,-8,-21,-27,-14,1,-3,-7
1529309181525643,1,3,-12,1,-2,-1,-6,0
1529309181538609,0,-1,18,6,10,8,-2,4
1529309181538609,-3,-2,-12,5,6,0,-4,-10
1529309181546587,-3,13,28,2,-3,0,12,5
1529309181546587,-1,-9,-24,-8,-1,-11,-14,-12
1529309181562545,-47,-9,-7,6,0,2,4,-3
1529309181562545,-5,-19,8,-15,-5,3,-2,6
1529309181562545,-5,0,-15,-4,8,4,0,-5
1529309181562545,7,0,7,2,-2,2,-1,4
1529309181584487,5,2,2,2,-3,-6,0,3
1529309181584487,7,-1,4,0,-4,-2,-5,-18
1529309181585484,-5,-2,13,9,6,1,-5,2
1529309181585484,1,6,-10,-7,-8,-7,3,3
1529309181607440,-1,-2,12,4,13,4,0,-9
1529309181607440,-3,6,-10,-5,-13,0,3,11
1529309181608424,6,-6,4,-6,-3,3,1,-1
1529309181608424,-6,-4,9,15,11,4,6,5
1529309181622384,11,8,8,5,2,0,-1,-4
1529309181622384,2,-3,-5,-8,-2,-3,-6,-5
1529309181623382,-2,-2,-16,-12,-9,-8,-7,-11
1529309181623382,8,11,-29,-6,-5,3,2,4
1529309181644326,-2,-12,13,-5,-7,-7,3,11
1529309181644326,-12,-13,-13,4,7,5,4,17
1529309181645342,3,-1,9,5,-2,-5,-6,-7
1529309181645342,8,6,17,6,0,-7,5,6
1529309181667493,6,8,11,9,-2,-7,-5,-13
1529309181667493,-6,-8,-54,-31,-2,2,5,7
1529309181668508,-4,-7,2,-3,1,-1,-2,-6
1529309181668508,5,5,4,-2,6,3,2,6
1529309181682404,-2,-3,-17,-4,-7,-3,-5,-13
1529309181682404,6,15,28,16,-2,-3,7,16
1529309181683400,-8,-9,-17,4,1,-3,-7,-10
1529309181683400,-10,-7,-20,-8,-2,3,-7,-16
1529309181704374,2,3,-7,-1,3,7,2,3
1529309181704374,17,10,-22,4,4,-2,-2,6
1529309181705341,-9,-14,-9,-9,-3,-8,-3,-5
1529309181705341,13,-2,-4,-5,-9,-3,4,5
1529309181727283,-9,4,4,-5,-1,-1,-9,-8
1529309181727283,6,9,11,0,-7,0,-4,1
1529309181728281,9,7,17,11,6,8,6,13
1529309181728281,-3,-3,32,14,-3,-7,-5,2
1529309181742244,2,-4,-12,-3,8,9,5,2
1529309181742244,-4,-3,1,-4,-8,-3,0,-4
1529309181743241,9,10,18,2,-3,-7,-3,3
1529309181743241,-6,1,16,4,-2,-3,-7,-8
1529309181765182,-1,-6,-9,-5,4,8,0,-24
1529309181765182,-7,-2,13,16,9,4,-3,-3
1529309181765182,4,-8,-28,-4,8,2,-1,-11
1529309181765182,-8,-8,-26,-23,-16,-5,3,4
1529309181787123,5,-8,-5,-2,-2,-6,-8,7
1529309181787123,13,8,30,14,8,6,14,13
1529309181788121,-6,1,-4,-2,-2,0,6,17
1529309181788121,-21,-15,-8,-9,-8,-7,-7,-11
1529309181802229,-1,-2,-9,2,5,-1,8,6
1529309181802229,-5,7,51,1,-7,1,-5,-14
1529309181803081,-31,-9,-7,-2,-4,-7,-13,-6
1529309181803081,12,-1,-28,-10,-1,6,-1,2
1529309181825178,6,6,34,8,-4,-2,-4,-1
1529309181825178,0,6,7,13,7,-3,3,4
1529309181826019,-19,-6,2,-5,-3,4,3,0
1529309181826019,-3,-5,-9,-6,-4,-1,-2,-3
1529309181846966,-2,9,31,10,-1,-1,0,-9
1529309181846966,-7,-14,-35,-17,-6,-11,-1,16
1529309181847960,10,-3,-18,-6,-3,-1,5,3
1529309181847960,-4,1,10,7,1,-5,-4,-4
1529309181861924,6,-9,1,-4,6,-3,8,20
1529309181861924,-2,10,12,6,-1,-6,-8,-19
1529309181862922,17,10,23,4,-6,3,5,1
1529309181862922,-27,-31,-100,-27,-5,9,-3,-17
1529309181885088,1,-4,-44,-5,0,-6,-7,0
1529309181885088,-8,-13,1,1,-1,2,-2,-7
1529309181885088,5,-13,-23,-5,-2,0,1,9
1529309181885088,5,5,1,10,4,-3,0,-1
1529309181907420,2,10,3,-15,3,8,0,1
1529309181907420,-5,-6,-47,-11,-4,-5,1,2
1529309181908279,7,3,-12,9,2,-3,-7,-14
1529309181908279,12,10,56,12,9,8,8,1
1529309181922589,4,-7,-80,-21,-14,-7,3,28
1529309181922589,-1,10,-11,6,-3,-1,-11,-22
1529309181923589,5,22,49,-2,-4,4,1,6
1529309181923589,7,-11,-19,-5,-7,-1,-4,3
1529309181944716,3,-9,17,0,-5,-2,-4,5
1529309181944716,-10,-10,11,-2,4,1,0,-9
1529309181945553,-8,-1,6,12,-3,-13,-9,-17
1529309181945553,3,6,-24,7,4,2,2,6
1529309181967530,-1,0,26,1,1,0,-5,-13
1529309181967530,9,9,7,11,-6,-6,4,5
1529309181968493,1,-2,23,-7,23,12,-3,-6
1529309181968493,4,-2,-7,-6,-3,-4,1,5
1529309181982456,-10,9,41,6,-12,-6,-6,-10
1529309181982456,-14,0,-28,-15,-5,-1,-3,-4
1529309181983488,-17,5,14,22,9,-4,5,3
1529309181983488,5,8,24,-2,2,-1,-2,7
1529309182004937,-15,-13,-12,1,-2,0,-3,-10
1529309182004937,-2,-13,-18,-13,-3,-3,-7,-5
1529309182005772,3,-3,-10,-7,-11,-5,3,20
1529309182005772,-4,0,15,26,15,1,-2,-18
1529309182034905,3,11,-5,-13,-15,5,2,0
1529309182034905,-6,-4,4,-10,-1,7,6,-7
1529309182035904,11,-2,5,5,6,-8,0,5
1529309182035904,-4,3,28,11,-15,-11,5,0
1529309182041888,4,-7,-28,-30,15,5,0,-1
1529309182041888,2,9,25,-6,-7,-5,-6,-1
1529309182042885,-5,7,-21,-10,-12,3,-5,-7
1529309182042885,-2,6,6,0,7,-2,3,10
1529309182072805,8,-7,1,26,5,0,-3,-6
1529309182072805,2,-6,10,7,7,-1,-1,8
1529309182073802,-1,-6,-37,-12,3,-1,-3,-13
1529309182073802,8,13,28,-2,-14,-4,-1,-4
1529309182086768,6,-2,-31,-8,-10,-5,-5,2
1529309182086768,7,-9,-17,-3,0,3,-5,-6
1529309182087766,-4,0,30,17,5,5,3,2
1529309182087766,-13,-7,18,1,6,5,6,25
1529309182110704,13,9,15,10,6,5,1,1
1529309182110704,9,17,8,1,1,-3,1,-4
1529309182111701,2,-11,-19,-10,-6,-4,-2,-13
1529309182111701,0,6,-19,-8,1,0,2,-6
1529309182132645,-8,-22,-24,-10,-8,-12,-4,1
1529309182132645,-1,-15,21,7,2,3,1,4
1529309182133643,2,2,-9,-10,-7,0,3,6
1529309182133643,-3,5,4,-2,4,-4,-3,0
1529309182147605,3,17,38,16,-3,1,5,2
1529309182147605,-6,-2,-17,-6,-7,3,-3,-8
1529309182147605,-2,-11,-37,-10,-4,-2,0,8
1529309182147605,7,-4,4,2,6,0,-6,-14
1529309182170550,3,13,35,-1,-6,-6,-5,-8
1529309182170550,-1,-16,-35,-13,-1,0,4,12
1529309182171542,1,-3,-10,3,-3,-2,-2,3
1529309182171542,6,8,28,9,7,7,2,-5
1529309182193482,-37,-6,3,6,8,-7,-8,-24
1529309182193482,19,5,-9,-3,-5,-5,-1,4
1529309182194479,3,2,-4,0,2,5,1,1
1529309182194479,-16,-16,-17,-4,-2,-3,-2,21
1529309182207444,-5,-5,7,2,1,7,12,-10
1529309182207444,-6,-9,-3,1,-11,-10,-11,1
1529309182208442,5,0,4,-15,0,-12,-12,-6
1529309182208442,7,9,47,8,-10,-10,-8,-1
1529309182230383,1,-8,-6,-15,4,12,12,18
1529309182230383,-9,-11,-39,-12,7,8,10,5
1529309182231381,-6,7,40,14,-1,4,-2,-12
1529309182231381,-18,-17,-49,-19,-13,-7,-10,-15
1529309182253323,-9,4,4,7,-1,-7,-2,-3
1529309182253323,-5,-12,-13,-3,-5,-3,-2,-6
1529309182253323,-1,13,26,9,3,2,2,2
1529309182253323,0,-14,-44,-9,-1,1,-2,-4
1529309182267321,7,10,33,13,2,-2,-9,0
1529309182267321,-17,-15,-11,-20,-5,5,4,-6
1529309182268282,-4,-11,-8,1,-3,-8,-3,11
1529309182268282,14,8,14,1,1,2,4,8
1529309182290281,9,-2,-2,5,-3,-7,5,11
1529309182290281,9,16,2,2,-1,-8,-14,-13
1529309182291263,-1,7,27,13,14,14,20,0
1529309182291263,0,7,1,5,8,10,-8,-16
1529309182313222,-5,-39,-26,-15,-6,-1,-3,13
1529309182313222,-1,10,43,13,-1,-1,-2,-2
1529309182314240,-11,-32,-78,-25,-12,-4,-2,-1
1529309182314240,-4,-5,-8,-4,-2,-6,2,5
1529309182327179,-1,27,31,5,-3,2,2,-6
1529309182327179,-2,16,16,7,4,-1,-1,2
1529309182328122,-6,-8,-6,1,0,-3,-8,-7
1529309182328122,0,0,5,-11,-12,-1,2,-3
1529309182350102,2,-3,-23,0,-9,-16,-14,-3
1529309182350102,-10,2,-3,14,16,-2,2,-1
1529309182351060,19,38,51,27,18,6,5,14
1529309182351060,0,-23,-81,-3,4,4,2,-7
1529309182373003,2,6,22,-12,6,5,0,2
1529309182373003,11,24,-1,-4,-13,-6,-3,7
1529309182374049,-1,-21,-47,-10,-6,-5,0,0
1529309182374049,-9,-5,29,-3,-2,2,0,-2
1529309182387170,6,-13,-21,16,17,0,-2,2
1529309182387170,-1,4,20,-21,-24,-3,4,-1
1529309182388120,5,18,13,-4,-7,0,-4,-9
1529309182388120,11,10,40,10,1,-2,5,7
1529309182410245,-8,-21,-44,-3,-4,-3,-3,-5
1529309182410245,1,-8,-14,-5,6,-1,-3,3
1529309182411245,-2,-5,33,-4,-16,-5,2,1
1529309182411245,1,5,7,-15,-10,3,0,15
1529309182433186,-7,8,19,11,3,2,-3,-21
1529309182433186,-9,-11,-20,-22,-3,4,1,-2
1529309182434186,-1,0,9,17,10,1,-2,-7
1529309182434186,-8,-11,-32,2,0,-15,0,-3
1529309182447499,2,6,-2,-8,-15,-2,5,9
1529309182447499,-6,-10,-5,1,-7,-1,-2,-1
1529309182448371,2,13,47,-6,-5,1,-6,-2
1529309182448371,1,0,0,16,0,2,-4,-2
1529309182470492,11,28,-11,-8,9,7,-4,3
1529309182470492,-9,-29,-2,8,3,-5,-1,-3
1529309182471466,-5,-9,-18,-8,-3,-1,-2,-1
1529309182471466,-1,-2,-3,-6,2,-1,2,-3
1529309182493492,-5,1,-7,-1,-8,-5,-3,-5
1529309182493492,-4,4,4,3,2,-1,0,-3
1529309182493492,4,8,23,6,14,7,1,0
1529309182493492,10,6,7,0,-4,-1,-3,-12
1529309182507691,2,-8,-46,-22,-6,4,7,7
1529309182507691,-8,4,56,17,1,-5,-9,-6
1529309182508592,0,-8,-33,-9,-7,-12,-2,3
1529309182508592,-5,-4,9,-4,-1,-7,-4,-1
1529309182530492,-4,-1,13,2,2,7,3,0
1529309182530492,10,2,-8,1,3,5,4,1
1529309182532491,2,2,-14,0,-6,-2,-3,-1
1529309182532491,2,8,23,3,3,0,-3,0
1529309182552475,-3,-7,8,-2,2,1,0,-3
1529309182552475,-1,-2,-10,-1,2,4,2,0
1529309182554429,-5,-3,5,7,7,0,1,-6
1529309182554429,-9,-6,8,-15,-14,-8,-2,-2
1529309182566425,-4,2,-1,-8,-11,-7,-4,-4
1529309182566425,1,-3,7,-2,-8,-8,-4,0
1529309182575388,0,3,-2,-2,-7,0,-3,-3
1529309182575388,0,0,14,8,9,7,2,4
1529309182590332,-5,-4,21,-5,-2,-6,-1,-6
1529309182590332,2,-2,-2,-4,2,4,1,4
1529309182592329,-8,-6,-1,-9,-9,-7,-4,-4
1529309182592329,12,2,-31,0,6,5,3,2
1529309182613272,2,-4,-13,4,-2,-1,-2,1
1529309182613272,1,-2,-3,0,-1,0,3,-1
1529309182614277,0,-3,1,-4,5,1,0,-1
1529309182614277,-8,-4,-2,2,-1,1,0,-2
1529309182626416,-3,-21,-30,-11,0,-1,-3,-2
1529309182626416,2,0,11,7,0,-4,0,-1
1529309182635451,-2,1,1,1,-7,-2,-3,-1
1529309182635451,-7,-3,-15,-7,-3,-6,-4,-4
1529309182650517,1,6,16,8,-2,-8,-4,1
1529309182650517,-4,-1,-13,12,13,7,0,0
1529309182652349,-4,-6,-7,-20,-15,-3,-3,-3
1529309182652349,3,4,1,-1,-1,9,-1,-2
1529309182673451,1,-1,7,8,5,4,0,-3
1529309182673451,1,0,-8,-1,1,2,1,2
1529309182674357,1,1,-4,-3,-4,-2,0,-1
1529309182674357,-7,2,28,5,4,-2,-3,-3
1529309182686262,0,-1,-17,-13,-15,-2,2,0
1529309182686262,3,9,9,4,4,-4,-2,0
1529309182695375,0,-9,-2,-6,2,-1,0,-3
1529309182695375,-2,0,1,-1,2,-4,0,-2
1529309182710502,-2,-4,14,11,7,0,-1,0
1529309182710502,-1,0,4,-11,-7,-8,-5,2
1529309182712332,3,-3,-9,5,-6,-2,2,0
1529309182712332,0,-3,-16,-15,-2,-1,-2,-4
1529309182733432,1,3,2,7,3,2,-1,0
1529309182733432,1,-8,-20,-1,2,3,0,-2
1529309182734330,-3,1,1,1,4,-3,0,-1
1529309182734330,-5,-8,-20,-3,-1,-5,-3,-3
1529309182746399,-1,1,3,-6,0,2,2,-2
1529309182746399,-3,-2,6,-5,-3,-1,-4,-3
1529309182755219,0,-1,4,6,0,1,-1,0
1529309182755219,-4,-6,1,-1,-6,-2,1,-2
1529309182770323,-3,0,-5,-2,-4,-3,-4,1
1529309182770323,-4,-3,4,-1,-3,1,1,1
1529309182772173,2,3,1,-1,0,1,1,-1
1529309182772173,-5,-8,1,-2,0,-2,-2,0
1529309182793116,-1,-4,-6,-3,0,-2,-4,-2
1529309182793116,-1,0,-4,-1,-3,3,-3,-1
1529309182794150,-2,1,-10,2,2,3,2,0
1529309182794150,1,8,5,0,-2,-3,0,0
1529309182807115,1,2,8,-1,-1,-1,-1,-2
1529309182807115,-1,0,19,-2,-1,0,1,-2
1529309182815249,-16,-1,10,-2,-3,-2,-1,-4
1529309182815249,15,3,-2,1,-1,-1,-1,4
1529309182830784,-3,2,-7,1,-4,-3,-2,-6
1529309182830784,1,3,-14,-4,-6,-2,-4,0
1529309182831636,0,0,5,1,0,4,-1,1
1529309182831636,-5,5,10,1,2,1,-1,0
1529309182852743,-4,0,22,-1,2,-1,-1,1
1529309182852743,-1,0,-7,-2,-1,-4,-1,0
1529309182854576,2,-5,-25,-3,-4,-2,-1,-3
1529309182854576,-7,-8,-25,0,-4,-4,4,-2
1529309182866698,4,-6,-23,-1,4,-1,1,-2
1529309182866698,-7,-4,-11,1,-1,0,-2,-8
1529309182875720,3,3,-1,-1,-4,-2,-4,-3
1529309182875720,-1,-1,1,1,2,-1,0,-3
1529309182890219,-5,-1,-7,0,-2,-1,-2,-3
1529309182890219,0,-4,-7,1,5,-5,0,0
1529309182896403,5,-2,-7,-1,1,-3,-4,3
1529309182896403,1,-1,-2,-1,-5,1,-2,0
1529309182913501,4,2,-7,-1,-2,1,0,5
1529309182913501,-3,-7,-2,-2,-1,0,0,2
1529309182914380,-5,-6,5,-4,-7,-2,0,-4
1529309182914380,-2,-3,3,-1,-6,-3,-4,-3
1529309182926481,16,-3,1,0,3,4,2,6
1529309182926481,-10,2,0,0,2,4,3,-1
1529309182935304,-7,1,2,-2,3,-2,2,-4
1529309182935304,0,2,4,1,-1,-2,-5,-5
1529309182950358,-5,-2,-2,-5,-7,-4,-7,-4
1529309182950358,6,-1,-1,4,4,8,7,2
1529309182956386,7,-3,-2,-1,1,-2,0,2
1529309182956386,-3,2,-2,-5,-3,-3,-2,0
1529309182973335,0,3,1,-2,-2,-5,-2,0
1529309182973335,-7,-2,4,-3,-1,-9,-1,3
1529309182975241,3,1,1,0,1,-2,0,-5
1529309182975241,-2,-3,1,4,1,3,-1,-4
1529309182987260,-6,-7,2,3,1,4,6,-3
1529309182987260,2,-2,-3,-1,-2,2,-3,-3
1529309182995191,-3,0,-3,0,-3,1,-3,2
1529309182995191,-2,0,7,-6,-4,-2,-1,1
1529309183010150,-5,1,0,-3,-1,-1,-1,-2
1529309183010150,6,5,-1,0,3,-5,-1,0
1529309183016134,-4,-14,21,3,3,-1,2,3
1529309183016134,3,4,1,-1,0,0,2,0
1529309183033245,-5,-9,16,2,0,1,-1,0
1529309183033245,1,-2,11,-2,-3,-1,-2,-1
1529309183035083,-1,5,-3,-1,1,0,-4,-1
1529309183035083,-1,-1,-1,0,-2,0,-1,-2
1529309183055190,-3,3,2,0,0,1,3,-3
1529309183055190,0,1,-2,-2,-9,-9,-4,-4
1529309183057025,4,1,-1,-3,-6,-6,-6,-2
1529309183057025,-2,-2,-1,-1,0,-1,0,1
1529309183070146,-3,-3,-8,-3,7,7,1,-4
1529309183070146,-6,-4,-7,-3,2,0,-6,-4
1529309183077130,-1,-1,-10,0,0,1,7,4
1529309183077130,-3,2,-6,-1,2,1,-4,-7
1529309183093087,21,2,-4,-3,1,-1,4,11
1529309183093087,-2,-1,0,-1,-3,-1,0,-4
1529309183094923,3,2,-8,-2,-2,-2,-4,-1
1529309183094923,-6,-13,-31,-4,-4,-5,-6,-3
1529309183115082,-7,-2,15,5,-3,-3,-1,-4
1529309183115082,2,-1,8,0,-1,3,-2,-2
1529309183117044,-2,-1,1,-2,1,1,1,-1
1529309183117044,2,0,-1,-1,6,4,6,1
1529309183130203,-6,0,-9,-3,-2,-5,-5,-6
1529309183130203,1,-3,-11,-2,-1,-1,-2,2
1529309183137219,-1,1,-1,-3,-5,-2,-5,-4
1529309183137219,3,5,8,-2,-4,-2,-3,3
1529309183153285,-3,0,-4,-2,0,-2,-3,-1
1529309183153285,-4,-2,5,2,-2,-5,0,0
1529309183155156,0,0,-2,0,3,0,2,-2
1529309183155156,-3,2,2,1,1,1,1,-2
1529309183176136,-7,-2,-4,-2,-8,-2,-3,-3
1529309183176136,1,-1,-9,-1,-4,1,1,-1
1529309183178129,0,-4,-2,-1,0,1,-3,2
1529309183178129,3,3,10,0,4,1,0,1
1529309183190049,-6,-1,1,0,0,-1,-2,-1
1529309183190049,-1,0,3,-3,-2,-1,1,0
1529309183197180,1,-4,-1,0,-2,-4,-3,-3
1529309183197180,-2,-3,0,-2,1,-5,-2,-2
1529309183212704,0,0,-4,-1,-4,-4,-2,-2
1529309183212704,0,1,1,-2,0,2,-4,-1
1529309183214685,-4,1,4,-3,-2,1,0,-1
1529309183214685,-1,-4,-2,1,1,2,0,1
1529309183235678,0,-3,-5,-4,-2,-1,-2,-2
1529309183235678,-1,-1,-5,-4,-3,-1,-3,-1
1529309183236676,-1,-2,-4,-2,1,-1,-1,-1
1529309183236676,-1,-2,0,-3,-3,-7,1,-2
1529309183248592,-2,0,-1,0,-2,-4,1,-4
1529309183248592,1,-1,-12,-1,-1,-1,1,-1
1529309183257851,-2,-2,3,0,-1,0,-1,0
1529309183257851,-1,1,3,3,0,-1,-4,1
1529309183272910,0,0,-4,0,0,-1,-5,-2
1529309183272910,0,2,-4,-4,-2,1,-2,-3
1529309183274748,2,1,-4,0,-3,-1,-2,-1
1529309183274748,-1,-4,-1,-3,-1,2,-1,-1
1529309183295275,-4,-3,-2,1,-2,0,1,2
1529309183295275,-4,-2,0,1,-1,-2,-2,1
1529309183297125,-2,2,0,2,-1,-2,-1,-1
1529309183297125,-2,0,2,-2,0,-2,-1,0
1529309183309084,0,-1,-3,-2,-1,-5,-2,-3
1529309183309084,2,0,2,0,-1,0,1,0
1529309183318058,0,-3,-2,-2,-2,2,-1,1
1529309183318058,1,-1,1,-1,-5,1,-3,2
1529309183333183,2,1,-2,-3,-3,-1,0,0
1529309183333183,-2,1,4,-2,-3,1,2,1
1529309183334176,-3,0,-1,2,1,1,0,0
1529309183334176,-1,-1,-1,-1,3,0,-1,-1
1529309183355123,-3,-2,-4,-3,-1,-3,-1,-3
1529309183355123,1,-4,-1,-1,0,-4,3,-3
1529309183357115,4,-2,1,1,0,-1,-1,0
1529309183357115,-3,-2,-1,2,-3,0,-1,-3
1529309183369246,-2,1,-6,2,-3,2,0,-1
1529309183369246,-2,0,1,1,-2,-1,-1,-2
1529309183378079,-4,1,-3,-3,-2,-3,-1,-4
