timestamp,emg1,emg2,emg3,emg4,emg5,emg6,emg7,emg8
1528270869812895,-1,1,-1,-1,0,-1,-1,-1
1528270869812895,-1,-1,-1,0,0,-1,1,0
1528270869812895,-2,-2,-2,-2,0,-1,0,-1
1528270869812895,-1,-2,-1,-2,0,-2,-1,-1
1528270869814888,-1,-1,-1,0,-1,-1,-1,-1
1528270869814888,0,-1,-1,0,-2,-2,-1,0
1528270869815885,1,1,-1,-1,-3,-1,-1,-2
1528270869815885,-3,0,-1,-1,1,-1,-2,-2
1528270869833840,-2,-2,0,-1,-1,-2,-2,-2
1528270869833840,-2,0,-2,-2,0,-1,-3,-2
1528270869834839,-2,-3,0,-1,-2,-1,-1,-2
1528270869834839,0,-3,-2,-1,0,-2,-1,-1
1528270869847801,0,-1,-1,-1,0,-2,-1,-1
1528270869847801,-1,-1,0,-1,-1,-2,-1,0
1528270869851790,-1,0,-1,1,-1,-3,-1,-2
1528270869851790,0,-1,-1,0,-3,-1,-1,-2
1528270869862761,0,-2,-3,-2,-2,-1,-1,-1
1528270869862761,1,0,-1,0,0,0,-1,-1
1528270869882707,-1,0,0,0,-2,1,-1,-1
1528270869882707,-1,-1,-2,-2,-3,-2,-1,-1
1528270869884702,0,-2,-1,-1,0,-2,-2,-1
1528270869884702,-1,-1,-1,-2,0,0,-1,-2
1528270869929583,-1,-1,-2,0,0,0,-3,-1
1528270869929583,0,0,-1,0,-2,-1,-1,-2
1528270869930579,-3,-2,0,0,-3,-1,-2,-2
1528270869930579,-1,0,-1,-3,-1,-1,-1,-1
1528270869931576,0,-1,0,0,0,-1,-1,1
1528270869931576,-1,-1,0,-2,-1,1,-1,0
1528270869933587,0,-1,1,0,-2,0,0,-1
1528270869933587,-1,0,-1,-2,-2,-2,-2,-2
1528270869959502,-1,-1,-1,-3,-3,-1,-1,-1
1528270869959502,-1,-2,-2,0,0,-2,-3,1
1528270869960499,2,0,1,-2,-1,-2,-2,-1
1528270869960499,0,-2,0,-2,0,-2,1,-2
1528270869963491,-2,-2,-2,-1,1,-2,0,-1
1528270869963491,0,-1,-1,-2,0,-1,-2,-2
1528270869971478,-1,-1,-2,-2,-1,-1,0,-1
1528270869971478,0,-1,-1,1,0,0,-1,-1
1528270869993411,-1,1,0,-1,-2,-1,-1,-2
1528270869993411,-4,-3,-1,-2,0,-2,0,0
1528270870002387,-2,-2,-2,-1,-1,0,-2,0
1528270870002387,-1,-2,-1,-1,-1,1,-1,1
1528270870004382,12,0,-1,0,-2,0,2,0
1528270870004382,-20,-2,-2,-2,1,-1,-2,0
1528270870016350,-4,-2,-1,-1,-1,-3,-3,-8
1528270870016350,-3,-1,-1,-2,-2,0,-1,1
1528270870032308,-11,0,-1,1,-1,1,-3,-6
1528270870032308,9,3,-1,1,1,1,0,4
1528270870040286,-4,-2,-1,0,-1,0,2,6
1528270870040286,-7,-4,-3,-2,-2,-3,-8,-11
1528270870041284,13,2,1,-1,-1,0,2,9
1528270870041284,-4,-1,-2,0,-1,1,4,15
1528270870070206,5,-4,-3,-1,-2,-4,-7,-9
1528270870070206,9,3,-1,0,-1,1,2,-14
1528270870077187,-13,-4,-1,-1,-2,0,-2,-4
1528270870077187,4,0,1,-2,-2,-1,-5,-9
1528270870078190,-21,4,-1,0,1,-1,3,7
1528270870078190,37,-6,-1,0,0,-1,-2,5
1528270870083172,13,-5,-7,-3,-1,-3,-2,-3
1528270870083172,-59,-1,0,0,0,1,4,-8
1528270870099139,-15,-2,-5,-1,0,1,4,15
1528270870099139,50,7,10,0,-1,-3,-5,-5
1528270870108105,41,-7,0,-1,-3,-2,-2,-16
1528270870108105,-37,1,0,1,3,1,-5,-19
1528270870122067,-5,-5,1,-2,-1,-2,-6,-16
1528270870122067,31,8,-4,-2,-3,0,8,57
1528270870124079,105,4,0,1,2,2,-1,-48
1528270870124079,-69,-8,-2,-2,-5,-6,-13,46
1528270870136030,-37,-9,-1,0,0,2,10,21
1528270870136030,-50,-4,-2,-1,0,1,-5,-12
1528270870150990,-25,-2,-2,-2,-2,-4,1,18
1528270870150990,76,0,-3,-3,-3,-2,3,33
1528270870159966,6,4,-1,-1,-1,0,-4,-10
1528270870159966,-34,-8,-3,-2,-2,-2,0,-19
1528270870161961,-17,2,0,0,0,-1,-1,6
1528270870161961,14,0,0,0,-1,-1,-3,-19
1528270870189886,6,-1,-3,-3,-3,-2,-3,-4
1528270870189886,1,-1,-3,1,1,-2,2,-8
1528270870191888,-28,0,-1,-2,1,-1,-3,15
1528270870191888,8,-2,-1,-1,-1,-1,1,-13
1528270870195870,18,0,1,-1,-3,0,-1,-2
1528270870195870,-9,-1,-2,-1,-2,0,-1,0
1528270870204846,-36,0,2,-1,-2,-3,-2,2
1528270870204846,13,-4,-3,-1,-1,1,2,-11
1528270870227785,32,4,0,-1,-1,-1,0,2
1528270870227785,-20,-1,1,0,0,1,-2,-17
1528270870228783,-17,-1,-3,1,-2,-2,-2,30
1528270870228783,12,-1,0,-3,-4,0,1,-27
1528270870242745,13,1,-1,0,2,-1,-1,-7
1528270870242745,-8,-2,-1,-1,1,-2,-3,7
1528270870243742,-16,-5,-2,-2,-3,-2,-2,-12
1528270870243742,16,1,1,1,-2,0,3,9
1528270870255710,-7,-4,-2,-1,-1,-1,-4,-2
1528270870255710,-9,-3,-2,-2,-3,0,-3,-12
1528270870272665,-8,0,-1,0,0,2,2,12
1528270870272665,7,1,-2,-1,-2,-2,0,-3
1528270870279646,-1,0,0,1,-1,-1,-1,-5
1528270870279646,-2,1,-1,0,0,-2,1,1
1528270870281642,-5,-1,-3,-1,-1,-1,-1,-3
1528270870281642,2,0,-2,-1,-1,-2,0,-6
1528270870309566,2,-1,-1,-1,0,-1,-1,-9
1528270870309566,4,-1,-3,-2,-1,-1,2,11
1528270870311561,-10,-1,-1,-2,0,-1,-1,-5
1528270870311561,3,0,-1,1,0,0,-5,-20
1528270870316547,1,-1,0,-2,-3,-1,1,22
1528270870316547,-1,-1,-2,-1,-2,1,-3,1
1528270870325524,-6,-2,-2,0,-1,-2,-4,-11
1528270870325524,3,0,-3,-2,-1,-2,-1,-1
1528270870347465,2,-1,0,-2,-1,0,0,4
1528270870347465,-7,-1,-1,-1,-1,0,-3,-18
1528270870349460,-3,3,0,-2,0,-2,-1,-6
1528270870349460,4,-2,-3,-1,-2,-1,2,5
1528270870362425,-1,3,3,0,0,-1,-2,-7
1528270870362425,0,-4,-1,-1,-2,-2,1,1
1528270870364419,-3,-2,1,-1,0,-1,0,3
1528270870364419,2,0,1,-2,-1,-1,0,-2
1528270870385364,-1,-3,-2,-2,-2,-2,0,-1
1528270870385364,-5,-2,-2,-1,-3,-1,-3,-4
1528270870386361,0,0,-2,-1,-2,-1,0,-2
1528270870386361,0,0,1,-1,-2,-1,0,2
1528270870400329,-1,-3,-2,-1,0,-1,-3,-7
1528270870400329,1,0,0,0,0,-2,1,7
1528270870401321,0,-3,-1,-1,1,0,-1,0
1528270870401321,-1,-2,-3,-1,0,1,-1,3
1528270870430244,-1,1,-1,-1,-1,-2,-2,-5
1528270870430244,-1,-3,-5,-4,-1,-1,-2,0
1528270870431241,-3,2,-1,-2,0,0,0,0
1528270870431241,1,1,0,-1,1,-1,-1,-2
1528270870436227,-3,-6,-3,2,-1,-5,-2,-4
1528270870436227,-1,0,0,-2,-2,-1,0,2
1528270870445204,0,0,0,0,-2,-5,-1,0
1528270870445204,-2,-4,-2,-1,-3,-1,-1,-2
1528270870467145,-1,1,-3,3,2,2,4,1
1528270870467145,1,-1,0,0,1,0,-1,0
1528270870469140,-1,1,1,2,3,3,-2,0
1528270870469140,2,8,10,1,-2,-2,-3,-1
1528270870482105,-3,-8,-7,-6,-8,-4,-3,-4
1528270870482105,1,9,3,3,-1,-3,2,2
1528270870484100,-2,-6,-4,-6,-5,-4,-2,-3
1528270870484100,-6,-7,-2,0,10,2,-1,-1
1528270870505044,1,8,4,8,-10,-3,-1,-1
1528270870505044,18,19,10,-4,2,-3,-1,3
1528270870507039,-6,-13,-6,-2,-6,-1,-2,-5
1528270870507039,2,4,-5,-3,6,7,3,3
1528270870519009,-2,-23,-7,-6,2,2,2,3
1528270870519009,-14,4,5,4,-1,0,-3,5
1528270870525990,10,-1,-5,-1,-4,0,8,11
1528270870525990,-12,-16,0,3,-8,-5,-8,-5
1528270870543001,14,37,11,-2,5,0,-7,-16
1528270870543001,-3,-8,-7,0,-1,-3,-3,-16
1528270870543941,-4,3,-2,-8,-11,-16,-10,-5
1528270870543941,-1,-1,-6,-5,-14,-8,4,7
1528270870555941,-4,-2,6,13,8,15,11,15
1528270870555941,1,-6,-8,2,11,8,-5,-7
1528270870564884,-2,-5,-3,-3,12,5,-6,-1
1528270870564884,-6,2,8,4,-1,-2,-6,-10
1528270870587822,-13,-16,-18,-14,2,-3,5,-1
1528270870587822,11,10,0,-10,-7,0,6,9
1528270870588819,2,-2,0,4,8,7,4,9
1528270870588819,-3,-1,0,-7,-14,-4,-15,-15
1528270870602782,2,8,7,5,-3,-4,-13,-19
1528270870602782,4,-19,-7,-4,-2,0,10,17
1528270870603788,-7,4,-8,-2,-8,-10,-8,-5
1528270870603788,6,2,-6,-4,5,2,10,14
1528270870624726,21,2,-3,-2,-1,6,0,8
1528270870624726,-44,-8,-3,-1,-4,-2,-10,-19
1528270870626720,-1,-1,3,-2,-11,2,-4,8
1528270870626720,0,-10,-5,0,-3,3,20,1
1528270870639711,-11,-2,3,4,0,-17,-13,-26
1528270870639711,-4,-1,-14,-3,-3,-18,-41,15
1528270870653647,12,-8,4,1,13,10,77,16
1528270870653647,-58,-12,-5,3,-4,-4,-46,-45
1528270870662639,21,20,8,-5,-4,-5,-24,2
1528270870662639,38,-14,0,-1,0,14,33,30
1528270870663622,-18,16,9,0,-10,-20,-62,-26
1528270870663622,40,22,1,2,5,11,33,-23
1528270870685568,-12,-17,-4,1,2,-2,45,47
1528270870685568,4,2,11,4,3,-3,-26,-15
1528270870686558,-15,-1,-13,-4,-2,2,-13,-9
1528270870686558,13,2,9,-2,-1,6,47,34
1528270870699523,-21,-7,-13,-3,-13,-12,-95,-48
1528270870699523,43,-11,-5,-3,2,6,54,52
1528270870706505,-44,9,1,-4,-5,-3,23,45
1528270870706505,-9,-11,0,1,-2,-22,-74,-28
1528270870730441,-26,-20,-10,-3,5,5,64,0
1528270870730441,-63,-1,-3,3,7,12,-46,-36
1528270870731438,52,-25,-7,0,0,-7,-24,9
1528270870731438,20,33,-3,-2,-6,10,75,10
1528270870745401,-1,-27,4,1,1,-1,-54,35
1528270870745401,0,6,-6,-2,-5,-5,56,-50
1528270870746398,-16,4,3,-2,-2,8,-12,-34
1528270870746398,46,9,6,-1,-2,-12,-55,41
1528270870759364,19,-5,-13,-4,-4,-2,10,-22
1528270870759364,1,19,19,4,-2,-3,11,-3
1528270870766345,0,-18,-10,-1,0,5,-63,12
1528270870766345,52,0,-5,2,4,5,92,27
1528270870782302,-83,10,5,-1,4,3,-55,-12
1528270870782302,-18,-23,-3,-2,-9,-7,78,-35
1528270870784298,13,18,13,3,-1,-1,-18,18
1528270870784298,-25,-18,-12,-8,-4,-2,25,-51
1528270870805241,27,12,3,-1,5,4,14,29
1528270870805241,30,23,5,2,1,-1,-42,16
1528270870806238,-5,-2,6,-2,-4,0,-7,-45
1528270870806238,-35,-8,1,-3,-5,3,36,4
1528270870819205,17,11,9,4,3,6,30,5
1528270870819205,-10,-10,-11,-9,-1,-3,-39,-5
1528270870826186,9,-2,7,7,2,-1,38,14
1528270870826186,-11,-1,-3,0,0,-10,-81,-4
1528270870842142,-2,-16,-17,-10,-16,-1,21,-7
1528270870842142,48,17,9,4,-16,-4,17,24
1528270870844138,-24,-4,-7,-1,4,-4,-14,-4
1528270870844138,-9,-5,2,50,38,5,-10,14
1528270870865083,2,7,6,-30,-5,-6,9,-25
1528270870865083,-12,-15,-9,-7,-3,-4,-28,5
1528270870867076,5,11,5,-6,1,3,30,0
1528270870867076,-7,6,4,-7,-10,1,-18,0
1528270870889017,16,-4,-1,18,2,-13,-19,8
1528270870889017,-26,-4,2,2,-4,2,-17,-3
1528270870891118,11,3,-2,-2,-3,5,15,-4
1528270870891118,-16,-8,5,0,3,-7,-21,4
1528270870901094,21,25,9,3,-3,7,19,3
1528270870901094,-6,-7,7,-10,-7,-5,-39,-13
1528270870910073,0,7,10,9,5,3,12,-13
1528270870910073,5,-4,-9,-7,1,-6,0,9
1528270870925030,-9,-11,-6,-5,-7,-3,3,-6
1528270870925030,3,5,3,3,6,1,7,8
1528270870927025,0,4,-4,2,-4,-4,8,-7
1528270870927025,-15,-4,-1,-13,-8,0,-23,-13
1528270870948070,34,9,15,2,1,3,21,12
1528270870948070,-11,-10,-2,4,1,-3,-25,3
1528270870948966,8,9,1,-4,5,9,4,-7
1528270870948966,-1,-8,2,-7,-6,-1,14,-2
1528270870961092,-19,-4,-4,7,4,4,10,8
1528270870961092,-5,-10,-7,-6,-7,-1,-1,0
1528270870970245,1,-15,-10,-7,-5,-8,-4,-4
1528270870970245,3,-4,0,-6,0,0,-14,-3
1528270870984230,-16,-1,-3,11,8,5,-10,-13
1528270870984230,7,9,-3,-5,-6,-2,31,15
1528270870991346,-46,-8,2,1,-14,-13,-1,-2
1528270870991346,12,-6,-2,4,10,4,18,-1
1528270871008145,3,-5,-3,-1,-4,-6,4,-2
1528270871008145,-4,-3,-1,2,1,-3,-12,-8
1528270871009156,-3,-11,-8,-3,2,-2,0,-18
1528270871009156,2,0,-6,-4,-3,4,9,26
1528270871021111,-14,-9,-8,-4,-4,2,1,-10
1528270871021111,2,9,9,10,5,-4,14,7
1528270871029976,6,-23,-19,6,1,-2,-15,-22
1528270871029976,4,0,-7,8,-5,-6,-40,5
1528270871044973,-35,-2,1,-13,-5,-4,-19,-11
1528270871044973,-20,-4,-5,-12,-5,-12,-26,-7
1528270871050924,13,-1,-2,3,12,10,6,10
1528270871050924,7,0,1,-6,-4,2,32,2
1528270871067881,0,9,1,7,-7,-3,0,-4
1528270871067881,-20,-8,-7,1,-2,-10,-69,6
1528270871068913,-11,11,1,-4,-3,8,89,-20
1528270871068913,-12,-3,-7,-1,-3,2,-16,-8
1528270871089975,11,2,-5,-5,-10,1,12,11
1528270871089975,2,-5,-9,-9,4,6,16,-5
1528270871091813,35,4,-3,2,1,-1,-35,25
1528270871091813,-2,4,3,-3,2,-3,-12,-26
1528270871104905,5,-18,-5,8,-4,-1,20,-10
1528270871104905,2,3,-8,-9,-6,-2,15,19
1528270871110920,-2,3,5,5,1,1,-1,9
1528270871110920,-4,-6,-6,-6,-5,-6,-15,-11
1528270871127888,10,-4,-3,-11,-13,-7,-12,21
1528270871127888,12,-8,-1,5,3,2,7,-34
1528270871129766,-5,-1,0,4,2,-7,-23,0
1528270871129766,3,6,-7,-28,-6,0,6,7
1528270871141017,11,3,-2,-1,6,5,10,3
1528270871141017,-8,-6,-4,-2,-6,0,25,-16
1528270871149831,1,9,4,0,-5,0,0,-4
1528270871149831,2,8,4,3,-7,-13,-23,22
1528270871164792,0,0,-5,-4,1,1,14,-4
1528270871164792,0,1,-1,14,4,7,4,-4
1528270871178894,0,-4,-8,-23,-10,-14,-26,-1
1528270871178894,6,-3,-3,2,6,5,46,17
1528270871187730,-11,3,-1,-4,6,-1,-10,-19
1528270871187730,5,4,-1,10,2,4,50,-4
1528270871188728,-6,-3,-5,0,0,0,4,3
1528270871188728,-5,-12,-6,-4,-7,-6,-30,-9
1528270871226790,8,2,3,14,2,-1,6,9
1528270871226790,4,7,3,-7,7,6,0,11
1528270871228620,7,1,2,1,-3,-2,-6,7
1528270871228620,-3,-2,-6,-2,-2,1,2,-15
1528270871228620,2,-6,-3,-3,-1,-5,-10,7
1528270871228620,-4,-3,-4,6,-2,-3,-8,-8
1528270871232805,9,6,2,0,-4,-3,0,11
1528270871232805,-12,-6,1,2,5,3,-21,-6
1528270871247925,-7,-2,-1,5,5,2,15,-6
1528270871247925,-1,1,-2,-6,-6,-5,0,9
1528270871248898,-5,-3,-2,-7,-2,0,-17,-15
1528270871248898,7,8,4,3,-1,0,-3,-5
1528270871269831,8,-2,-6,-7,-2,-3,-2,-3
1528270871269831,2,2,1,-2,7,0,-17,2
1528270871271702,-5,-5,-6,-3,-2,-2,16,16
1528270871271702,-6,-1,2,3,-6,-5,-21,-24
1528270871284670,-2,8,5,-3,1,-1,-4,-8
1528270871284670,16,-6,-7,-4,-1,1,-22,12
1528270871286662,-18,2,8,10,5,1,12,-7
1528270871286662,6,5,5,4,2,3,20,26
1528270871307768,-3,0,-2,-9,-9,-4,-11,-1
1528270871307768,5,14,4,2,3,1,10,-9
1528270871309745,2,-15,-2,-1,5,2,0,3
1528270871309745,-15,-2,0,-2,0,-1,-1,-5
1528270871330625,19,2,0,0,1,-2,-28,-4
1528270871330625,-4,4,2,-1,-7,-4,0,-9
1528270871331551,-4,-3,-2,1,-3,-3,-6,-4
1528270871331551,-6,1,0,0,6,-2,7,1
1528270871345552,-2,10,0,-3,0,1,-12,-1
1528270871345552,20,-17,1,-1,-5,-2,0,1
1528270871346502,-1,1,0,-4,0,-5,-2,-2
1528270871346502,-17,-13,-3,6,1,2,-12,0
1528270871375597,-19,3,-4,-6,-3,-6,-17,1
1528270871375597,9,4,-5,-1,-3,7,22,0
1528270871376422,-7,-6,-1,-1,-2,3,24,28
1528270871376422,8,-6,1,-3,-4,-4,-18,-37
1528270871390525,40,3,3,2,0,0,13,7
1528270871390525,1,10,-2,-2,-2,-7,-40,-4
1528270871391397,-6,-11,4,-4,-9,-6,7,-3
1528270871391397,-21,-1,-2,17,2,2,13,5
1528270871404731,1,-8,-7,-19,-6,-2,10,7
1528270871404731,-7,3,2,-11,-1,-5,-9,-8
1528270871418690,5,3,-6,-1,-1,-1,-1,5
1528270871418690,20,13,9,-7,-4,-1,0,-5
1528270871427556,-33,-11,-1,17,5,3,-12,-6
1528270871427556,-15,-2,-3,9,0,0,16,17
1528270871429499,-11,-4,2,-14,0,-4,-5,-16
1528270871429499,9,-2,2,5,2,-1,5,6
1528270871449686,-5,0,-2,10,-9,-5,-13,-7
1528270871449686,-15,-8,-4,-33,-2,5,32,-5
1528270871457629,14,5,4,16,0,1,-14,-10
1528270871457629,0,-2,2,-6,4,6,4,14
1528270871464948,5,-5,-4,-1,4,0,7,-6
1528270871464948,-3,-12,1,4,-4,-7,-14,8
1528270871470963,18,-2,-1,6,-4,-3,-10,-14
1528270871470963,14,12,2,-4,5,5,12,20
1528270871494904,-24,-10,2,5,3,1,-11,-10
1528270871494904,-1,-7,-9,-4,-4,-4,-31,0
1528270871496738,2,1,-4,-4,-9,-3,20,1
1528270871496738,1,3,-6,-4,-4,-8,-7,-5
1528270871509865,1,-4,7,0,5,3,8,6
1528270871509865,-3,-8,-10,8,0,-3,1,-5
1528270871511698,-21,4,-3,-11,-1,0,-7,-5
1528270871511698,-6,-3,-5,-10,-7,-4,3,-6
1528270871523666,1,0,-5,-4,-4,1,22,8
1528270871523666,-5,0,3,11,-1,-3,-1,-7
1528270871540620,1,-2,0,-5,10,7,-9,-1
1528270871540620,-18,5,-3,2,-5,0,-3,-7
1528270871547746,19,-9,-3,-7,-3,-5,-3,8
1528270871547746,-11,3,2,5,-3,2,5,-14
1528270871549761,8,1,-3,0,3,3,2,7
1528270871549761,-5,-10,-3,-7,-7,-3,0,1
1528270871577677,-8,-1,-2,8,0,0,-11,-4
1528270871577677,5,8,2,-5,6,2,-13,6
1528270871579516,17,6,4,3,-1,-1,-27,-10
1528270871579516,6,0,-3,0,-1,-1,12,-5
1528270871584833,-11,-5,-3,-7,-8,-7,2,10
1528270871584833,5,2,3,2,3,2,6,5
1528270871591764,-13,8,-7,-2,0,0,-3,-1
1528270871591764,26,-1,2,13,-6,-6,-14,-7
1528270871615633,13,17,2,-14,-5,2,11,-2
1528270871615633,-14,-8,-4,-1,6,-1,-12,-5
1528270871616594,-3,-5,-1,1,-6,-6,-1,4
1528270871616594,11,-7,-3,-9,-2,1,2,1
1528270871629551,-7,-1,0,5,-1,-1,-1,1
1528270871629551,-3,-3,-1,-8,-12,-1,7,-2
1528270871631545,1,1,-3,0,11,0,-5,-1
1528270871631545,-5,-7,-2,3,5,0,-2,0
1528270871643655,3,9,10,7,0,-1,-4,1
1528270871643655,-13,-21,-10,-3,-6,-2,2,-5
1528270871652490,-2,-10,-6,14,19,-1,-4,-4
1528270871652490,-15,-8,-4,-4,-4,-4,0,-1
1528270871667453,4,5,-7,-16,-9,0,-1,-2
1528270871667453,0,2,5,-7,-2,-1,1,-4
1528270871669444,-1,5,4,23,-7,0,1,1
1528270871669444,-2,-4,-7,-27,1,1,3,-1
1528270871697525,-13,-8,0,3,0,-3,-9,-11
1528270871697525,13,8,3,2,-6,-3,2,6
1528270871699364,-5,-8,-1,-13,-14,-4,-1,-1
1528270871699364,-8,5,2,14,-3,-2,-2,-5
1528270871703717,2,0,-3,5,12,0,-9,-11
1528270871703717,10,-10,-3,-5,3,0,6,10
1528270871712530,-22,3,-2,0,-3,0,2,0
1528270871712530,16,-1,-3,-1,-6,0,4,14
1528270871735628,10,-4,-3,-8,-2,1,-8,-4
1528270871735628,-2,3,-3,8,5,-8,-50,-12
1528270871736492,-12,-6,-5,-10,-5,7,39,13
1528270871736492,4,-1,8,-3,-5,-2,-8,-3
1528270871750433,-1,-7,-2,1,3,-2,2,1
1528270871750433,-13,3,0,3,3,1,-9,-14
1528270871751481,16,2,-2,-6,-7,-3,-9,4
1528270871751481,-4,-15,-6,-7,-1,-1,28,23
1528270871772526,-2,0,-6,4,0,-2,-31,-21
1528270871772526,-3,6,-2,-1,-2,-2,13,5
1528270871774522,94,-1,-5,-8,-1,-1,-5,-11
1528270871774522,-22,5,0,2,1,-6,16,-3
1528270871787625,-22,5,-1,-2,-4,-11,-75,6
1528270871787625,4,-2,-5,-1,-3,11,88,1
1528270871789505,3,-3,-1,1,3,2,2,14
1528270871789505,-1,-1,-1,2,0,-1,-18,-2
1528270871817404,-11,-28,-8,-2,-5,0,11,-8
1528270871817404,2,9,3,-2,1,-2,-25,-1
1528270871819397,-15,-3,1,-1,-2,-7,-28,-5
1528270871819397,-11,3,0,-3,-2,0,14,-10
1528270871823543,-3,2,6,-2,-1,-5,10,10
1528270871823543,-9,2,2,-1,2,1,13,-8
1528270871832364,-50,-8,5,-2,-3,-1,0,-7
1528270871832364,14,16,3,-1,-2,-4,-36,-3
1528270871855305,-20,1,11,-2,1,4,22,-8
1528270871855305,-9,-9,-5,0,-1,1,11,2
1528270871856304,-9,-5,-10,-4,-2,-2,4,-7
1528270871856304,-20,-9,-27,-1,-1,-1,-18,-16
1528270871870263,18,4,-21,-1,1,4,26,11
1528270871870263,9,14,-9,-2,-1,-2,-14,7
1528270871872256,-18,26,-6,-2,-1,-1,-11,-2
1528270871872256,15,15,0,1,0,1,5,5
1528270871892241,10,21,2,-2,-2,2,10,4
1528270871892241,-5,24,7,-1,-1,-3,-13,4
1528270871894199,22,-13,9,-1,0,-1,7,-1
1528270871894199,5,-21,7,2,0,-1,-3,1
1528270871907164,2,-32,6,1,-1,1,13,4
1528270871907164,-2,7,-1,1,-3,-3,-12,-3
1528270871909159,-12,-1,-7,-1,-2,-2,-4,-5
1528270871909159,-5,-2,10,1,-1,-1,0,-5
1528270871929106,7,5,-1,-1,0,-1,1,13
1528270871929106,-28,-7,-2,0,1,0,-14,-15
1528270871938082,17,-9,-1,1,-5,-6,-3,-2
1528270871938082,8,-17,-11,0,2,-2,-8,2
1528270871944102,-7,-21,5,5,1,-1,-10,-1
1528270871944102,10,-21,2,0,0,-1,-3,0
1528270871953042,1,20,4,-2,-2,0,-5,0
1528270871953042,-8,13,5,-1,-2,0,1,-2
1528270871967004,12,2,4,-1,-5,-1,0,-7
1528270871967004,9,-17,0,-2,-4,-2,-5,3
1528270871973985,-12,-21,6,4,2,-2,4,-2
1528270871973985,7,-6,4,1,1,0,-2,2
1528270871989977,26,2,0,-1,0,1,6,0
1528270871989977,-1,-17,3,0,0,0,6,1
1528270871991938,-7,-7,5,2,-4,-5,-6,-1
1528270871991938,-21,-3,-1,-3,-3,-4,-10,-10
1528270872012936,6,4,-3,-4,-1,3,24,2
1528270872012936,3,-3,2,7,0,4,1,1
1528270872013922,19,5,-9,-14,-3,2,-2,1
1528270872013922,6,5,0,2,-1,-2,1,-1
1528270872026843,-33,0,8,15,-3,-3,-2,-11
1528270872026843,9,9,17,33,2,-3,0,6
1528270872033825,-1,3,-21,-59,0,1,1,-1
1528270872033825,-1,-2,7,51,0,1,3,4
1528270872049810,-4,5,-16,-62,-6,-3,2,2
1528270872049810,-5,-1,-37,-67,-8,-2,0,-3
1528270872051778,20,7,20,29,2,1,-2,4
1528270872051778,-59,-3,20,22,4,1,2,-3
1528270872063781,-7,-5,-32,-71,-12,-4,-3,-6
1528270872063781,5,3,4,28,-1,-3,-5,-2
1528270872079755,-5,-2,2,-17,5,-2,0,0
1528270872079755,-1,-6,-23,-57,-4,0,0,1
1528270872094707,5,3,24,60,5,1,-2,0
1528270872094707,-6,-5,11,37,-4,-6,-4,-3
1528270872096657,-16,-5,-11,-19,-4,-1,-2,-6
1528270872096657,11,4,11,26,6,2,3,-4
1528270872111672,-1,2,1,9,3,1,-2,1
1528270872111672,13,-3,-9,-28,-1,1,0,-2
1528270872112678,-21,-2,8,39,-1,-2,-3,-4
1528270872112678,14,-1,-7,-15,-2,0,-2,0
1528270872132606,4,-1,-7,-7,-2,-2,-2,-1
1528270872132606,-8,-2,4,8,0,-2,0,-1
1528270872134557,0,0,2,-2,0,2,-4,-1
1528270872134557,5,-1,-11,-30,-6,-2,3,-1
1528270872146541,-5,1,3,24,0,-1,-4,-2
1528270872146541,1,0,4,-3,0,0,1,0
1528270872153539,-3,-1,-3,-3,-1,-1,-1,-1
1528270872153539,10,-1,-1,2,-2,-4,-5,-2
1528270872170461,-1,-2,1,10,1,-3,0,1
1528270872170461,2,0,-3,-6,1,-2,-17,-1
1528270872171459,-3,-2,-7,0,0,3,4,2
1528270872171459,1,-1,-3,2,0,-9,21,2
1528270872192401,-1,4,1,0,4,-3,2,-3
1528270872192401,-2,-4,-5,-15,-2,-2,3,10
1528270872194403,-4,-1,5,14,-1,-3,-4,-19
1528270872194403,-7,-2,0,-4,-2,3,-9,-4
1528270872207429,10,-1,1,-2,-1,2,2,3
1528270872207429,-3,0,4,0,-1,3,-3,0
1528270872213501,-4,2,5,8,-3,0,-4,4
1528270872213501,3,8,7,-4,-3,2,-2,1
1528270872230458,-2,7,3,-1,-3,-1,-4,0
1528270872230458,-5,7,3,1,-3,0,-3,1
1528270872231408,3,6,-1,0,-2,-1,1,5
1528270872231408,6,2,-6,-10,-6,-1,-7,-3
1528270872252242,-2,0,-3,6,-1,0,-4,1
1528270872252242,6,-3,-6,-3,-1,-1,0,-5
1528270872254236,3,-5,-6,-2,-1,-2,3,0
1528270872254236,1,-6,-3,2,-1,-2,-3,-2
1528270872275236,-4,-7,-1,6,0,1,0,-6
1528270872275236,-3,-7,-9,-1,1,-3,4,-7
1528270872276232,-1,-6,-3,2,1,-4,-1,-3
1528270872276232,6,-5,-4,0,1,-1,-2,-2
1528270872290266,2,-2,-2,-1,-1,-3,2,-1
1528270872290266,-2,-4,0,-3,0,0,2,-2
1528270872292246,1,-4,-4,1,-2,-2,-1,2
1528270872292246,2,-1,-2,0,-1,-1,-1,0
1528270872312226,-5,-3,-4,-2,-1,0,1,0
1528270872312226,0,3,4,1,0,-1,-1,1
1528270872313238,-2,1,0,1,-1,0,-1,0
1528270872313238,-1,1,-4,-2,-2,1,-2,1
1528270872335024,-3,2,1,-1,0,-3,-2,-2
1528270872335024,-2,0,-1,-3,-2,-2,0,0
1528270872336017,-2,-2,0,-1,-2,-1,0,0
1528270872336017,-3,0,1,-2,-1,1,-1,-2
1528270872348986,0,0,2,2,-1,-2,-3,-1
1528270872348986,1,0,1,0,-1,-1,-8,12
1528270872349980,7,0,0,-2,-1,-3,-4,-19
1528270872349980,-9,-3,-1,-1,-1,-1,9,1
1528270872372062,0,1,1,1,-1,2,-5,-1
1528270872372062,-6,-1,1,-2,-2,-3,6,-6
1528270872372919,5,2,2,1,1,-2,-5,7
1528270872372919,3,-4,-5,-4,-2,-1,-5,-1
1528270872395142,0,-2,-1,-2,-1,-2,-2,-2
1528270872395142,-2,-3,-3,-1,-1,2,0,4
1528270872396140,-8,0,0,0,-1,0,0,-1
1528270872396140,1,-2,0,-2,1,-1,-2,-5
1528270872409114,-2,-1,-2,0,0,0,-1,2
1528270872409114,3,1,0,-1,-2,0,-4,-3
1528270872410102,-5,-4,-2,0,0,0,0,4
1528270872410102,2,0,-1,0,1,-1,-4,0
1528270872432206,2,-3,-4,1,-2,-2,1,0
1528270872432206,-1,0,-1,-1,0,0,0,-4
1528270872433139,-4,-4,-3,-1,-1,-2,0,0
1528270872433139,-1,-1,0,1,0,1,-2,-2
1528270872446163,-1,-1,-1,0,-2,-1,-1,1
1528270872446163,0,-1,-1,-1,0,-1,1,-4
1528270872454006,-5,-1,-1,-2,-1,-1,-1,3
1528270872454006,0,-2,0,0,1,-2,-2,-2
1528270872469966,-2,0,-1,-1,-1,-1,-2,-4
1528270872469966,-1,-1,-4,-1,-1,1,-1,-1
1528270872469966,2,1,0,-1,-1,-1,-1,2
1528270872469966,0,0,-1,-1,-2,-1,-2,0
1528270872492044,-2,-3,0,-2,-1,0,0,-1
1528270872492044,-2,-3,-1,-1,-2,-3,-2,-2
1528270872492881,-2,1,-3,-2,-1,-1,1,-2
1528270872492881,-1,1,1,0,-1,-1,-1,-2
1528270872506005,0,0,-1,0,0,0,-1,-1
1528270872506005,0,-1,-3,-1,-1,0,-1,-1
1528270872514938,0,0,-1,-2,-2,-2,-1,-2
1528270872514938,1,-1,1,-1,-2,-1,-1,0
1528270872529889,-1,0,-2,-1,-1,-2,0,-1
1528270872529889,-3,-2,-1,-1,-1,0,0,-1
1528270872529889,-1,-1,-1,-1,0,-1,0,-2
1528270872529889,0,-1,-1,-2,-2,-1,1,1
1528270872551926,1,0,-1,-1,-1,0,-1,-2
1528270872551926,0,0,0,-1,-1,-1,1,0
1528270872552923,-1,-2,-1,-1,-2,-1,-3,-1
1528270872552923,-2,-2,-2,-1,-1,0,-3,-1
1528270872566032,-2,-2,-1,-2,0,-1,-1,-1
1528270872566032,-2,0,-2,-1,-1,-2,-2,-1
1528270872574866,-1,-1,0,0,-2,-2,-2,0
1528270872574866,1,0,1,-1,0,-2,-1,-1
