timestamp,emg1,emg2,emg3,emg4,emg5,emg6,emg7,emg8
1528453432824921,0,1,-1,0,-2,-2,-1,0
1528453432824921,0,-3,-1,-1,-1,0,-1,-1
1528453432825945,0,0,-2,-1,1,-1,0,-1
1528453432825945,0,0,0,0,0,1,1,-1
1528453432828909,-2,-2,-2,-1,0,0,1,0
1528453432828909,0,0,-3,-1,-2,0,-1,0
1528453432829907,-1,-1,-1,-1,-1,0,0,0
1528453432829907,-1,-1,2,0,-1,0,-2,1
1528453432844868,0,-2,0,0,1,1,-2,1
1528453432844868,0,0,-1,0,1,0,1,-2
1528453432848856,-2,0,0,0,-1,0,-1,-1
1528453432848856,-1,-1,-5,-4,-2,-2,-1,-3
1528453432851848,-1,-1,-1,0,0,-2,-1,-3
1528453432851848,-2,0,2,-1,-1,-1,-2,0
1528453432865811,1,0,-1,1,0,0,-3,-1
1528453432865811,1,-2,0,-2,-1,-3,-1,1
1528453432873791,-2,-1,0,-1,0,-2,0,0
1528453432873791,0,1,-1,1,-1,0,1,0
1528453432879774,0,-1,0,0,-1,-1,-1,1
1528453432879774,-1,-1,1,2,-1,1,-1,0
1528453432900720,0,-1,-1,-1,0,2,-1,0
1528453432900720,-1,-1,0,-1,1,0,0,-1
1528453432903710,-1,-1,-1,-2,-1,2,-1,1
1528453432903710,-1,0,-1,-1,-1,-1,-1,-1
1528453432964547,0,-1,-1,-1,1,0,-1,1
1528453432964547,0,1,0,0,-1,0,0,1
1528453432964547,-1,-2,-1,0,0,-2,1,-1
1528453432964547,0,0,0,-1,0,-2,-2,-1
1528453432972527,-2,-1,-1,-1,-1,1,-1,-1
1528453432972527,-1,0,-1,0,-1,1,-1,-1
1528453432973524,-1,-2,-1,-1,-1,-1,0,0
1528453432973524,0,1,-1,0,0,0,1,1
1528453432974521,0,0,-1,0,0,-2,-1,-1
1528453432974521,-1,-1,0,-1,-1,-2,-1,0
1528453432978511,-1,1,-1,1,0,-1,-1,0
1528453432978511,-1,0,0,0,0,-1,-1,0
1528453432978511,-1,-1,-1,-1,-1,-2,0,-1
1528453432978511,-1,-1,-2,-1,0,0,0,0
1528453432992472,1,0,1,1,-1,0,-2,-1
1528453432992472,0,0,-1,-2,-1,-1,0,-2
1528453432999454,0,0,0,-1,-1,-1,0,0
1528453432999454,0,0,-2,-1,0,-2,-1,-1
1528453433016408,0,-2,-1,-3,-2,-1,0,1
1528453433016408,-1,-2,-2,0,0,-1,-1,-1
1528453433023392,-1,-1,-1,-1,-2,0,0,-1
1528453433023392,1,-2,-1,0,0,0,0,0
1528453433030371,0,-1,0,-2,1,0,-3,-1
1528453433030371,-2,-1,1,1,-1,-1,0,0
1528453433037352,0,-1,2,1,1,1,0,1
1528453433037352,-2,1,-2,0,1,-1,-1,-1
1528453433052312,0,0,-1,1,-2,-2,-1,-1
1528453433052312,-1,-1,-1,-2,0,-1,-2,0
1528453433061289,0,-1,0,-2,-1,-1,-3,-1
1528453433061289,-1,0,0,0,-2,-2,-3,-2
1528453433083231,-3,1,-1,-1,0,0,0,-1
1528453433083231,0,-2,-1,0,0,0,1,0
1528453433099234,-2,-1,-1,1,-3,-1,0,-2
1528453433099234,0,0,0,-1,-1,1,-1,0
1528453433106169,-1,1,-2,0,-1,0,-1,-1
1528453433106169,1,-1,-1,0,-2,-1,0,-1
1528453433107167,-1,-2,0,-2,-1,-1,0,-1
1528453433107167,1,-1,-1,-1,-1,-1,-1,-2
1528453433112179,-1,-1,-2,0,-1,1,-2,0
1528453433112179,-3,0,0,0,0,0,-2,0
1528453433120158,0,-2,-1,0,1,-1,-1,-1
1528453433120158,-2,0,0,0,-1,-2,1,-1
1528453433129133,0,-1,-2,-1,1,1,-1,-2
1528453433129133,-1,0,-1,-1,0,-1,-1,-1
1528453433143123,0,0,-1,0,-2,1,0,-1
1528453433143123,0,-3,-1,-1,0,-1,-1,1
1528453433158069,1,-1,0,-2,-3,-1,-2,-1
1528453433158069,-1,-2,0,-1,-1,-2,-1,-1
1528453433159028,0,1,0,-2,-2,-1,-1,-1
1528453433159028,0,-2,1,1,-1,-1,-1,0
1528453433171995,1,-2,-2,-1,1,-1,0,-1
1528453433171995,-1,0,0,0,-2,-1,-2,0
1528453433180008,0,-2,-2,1,1,-1,-1,0
1528453433180008,0,-1,-3,-2,-2,-1,-1,-1
1528453433203908,-1,0,0,-1,-1,-1,0,1
1528453433203908,0,-1,-1,-1,-2,0,1,0
1528453433204907,-2,-1,0,1,1,-1,0,0
1528453433204907,0,0,0,-2,0,1,-2,-1
1528453433209942,0,-1,0,1,0,-3,-2,0
1528453433209942,0,0,1,0,0,0,-1,0
1528453433217915,-1,0,-1,-1,1,1,1,0
1528453433217915,0,0,0,-1,-1,-1,-1,0
1528453433240808,0,-1,-1,-1,-2,1,1,-1
1528453433240808,-1,0,0,-1,0,1,-2,0
1528453433248789,0,0,-2,0,0,-1,-1,-1
1528453433248789,-2,0,-2,-1,-2,-1,0,-1
1528453433250783,0,0,1,0,1,-2,-1,0
1528453433250783,-1,-1,-1,-1,-1,0,-1,-1
1528453433262750,0,-1,0,-1,0,-2,-1,-2
1528453433262750,1,-1,0,-2,-1,2,0,0
1528453433277712,-2,-1,0,-1,0,0,0,-1
1528453433277712,0,0,-1,-1,1,-1,-2,-1
1528453433278709,0,2,0,-1,-3,-1,0,0
1528453433278709,-2,-2,-1,1,0,0,0,0
1528453433292671,0,-1,-2,-2,-2,-1,0,0
1528453433292671,0,1,-1,-1,0,-1,-2,-2
1528453433308628,0,0,-1,-2,-3,-1,-2,0
1528453433308628,-3,0,-1,-1,1,0,-2,-1
1528453433317626,0,0,-1,0,-1,0,-2,-2
1528453433317626,0,-1,0,2,-1,0,0,0
1528453433323623,-1,-1,-1,0,-1,-1,-2,-1
1528453433323623,0,-1,-2,0,-2,-2,1,-1
1528453433329600,-1,-1,-1,-2,0,-1,-1,1
1528453433329600,1,0,-1,-1,-1,1,1,-2
1528453433337552,0,0,1,0,0,-1,-1,-1
1528453433337552,0,-1,-1,1,-1,0,-1,-1
1528453433352511,1,0,-2,-1,0,-1,0,-1
1528453433352511,-1,-2,-1,-2,-1,-1,-1,-2
1528453433359493,1,0,-2,-1,-1,0,-1,0
1528453433359493,-1,0,1,-1,0,0,-1,0
1528453433385422,-1,0,-1,-1,-2,0,-1,-1
1528453433385422,-1,0,-2,-3,-1,-2,0,0
1528453433386419,-1,-1,-1,0,-1,0,1,-1
1528453433386419,0,-2,-1,0,2,-1,-1,1
1528453433398389,0,-1,1,0,-1,0,-2,-3
1528453433398389,-1,-1,-1,-1,0,0,0,0
1528453433399415,-2,0,0,1,2,1,-1,0
1528453433399415,0,2,0,-1,-2,1,-1,0
1528453433428333,0,-2,-3,-2,-1,-1,1,1
1528453433428333,0,0,-1,-1,0,1,-1,-1
1528453433429306,-1,0,-1,-1,-1,-2,0,-1
1528453433429306,-1,1,-1,-1,-3,-1,0,-2
1528453433435289,0,2,1,1,0,0,0,1
1528453433435289,-1,-2,-1,-1,0,-2,-1,0
1528453433443267,0,-1,0,0,0,0,-2,0
1528453433443267,-2,-2,-2,-2,0,-1,-2,-1
1528453433458228,1,0,0,-2,0,-1,0,-1
1528453433458228,1,-1,1,-1,0,0,-1,-2
1528453433459225,0,2,-1,-1,0,-1,-1,-2
1528453433459225,-2,-1,0,-1,-2,0,-1,0
1528453433480206,-1,-2,-1,-1,-1,0,0,-2
1528453433480206,-2,-1,1,-1,-1,-1,-1,0
1528453433481166,-1,0,-2,-1,-2,1,-1,-1
1528453433481166,0,1,0,-1,0,-2,-1,0
1528453433495165,0,0,-1,-1,-1,1,1,1
1528453433495165,-1,-1,0,-1,-2,-1,-1,-1
1528453433511124,0,-1,-1,1,0,-2,1,-1
1528453433511124,-1,0,0,0,-1,-2,0,0
1528453433513112,-1,-1,0,0,-1,0,-1,0
1528453433513112,1,0,-2,0,-1,0,0,-1
1528453433526215,-1,-1,-1,-3,-1,0,-2,1
1528453433526215,1,-1,-1,0,-1,0,0,-1
1528453433532031,-1,0,0,-1,-1,-2,-3,-2
1528453433532031,-1,-1,-1,-1,0,0,0,0
1528453433570955,-1,-2,0,0,-1,-1,-2,-1
1528453433570955,0,-1,0,1,0,0,-1,-1
1528453433595864,-1,0,-1,1,0,0,1,-1
1528453433595864,0,-1,-2,0,1,-1,0,-2
1528453433596857,0,-2,-1,0,0,-1,-1,0
1528453433596857,0,-1,1,-1,0,0,0,-1
1528453433601845,0,-1,-1,-1,-2,-1,1,0
1528453433601845,-1,-1,0,-1,0,0,0,1
1528453433602842,1,-1,0,-1,-2,-2,0,1
1528453433602842,0,1,-2,0,0,0,0,-1
1528453433604855,0,0,1,0,0,-1,0,0
1528453433604855,-1,0,0,-1,-1,-1,0,1
1528453433616805,1,-2,0,0,0,-1,-3,0
1528453433616805,0,0,-2,0,0,0,0,1
1528453433631776,0,0,-1,1,1,1,-1,-2
1528453433631776,1,-2,-4,-2,1,-1,-2,-2
1528453433647722,0,-1,-2,0,-1,1,0,-1
1528453433647722,0,1,1,1,-1,-1,-1,0
1528453433648719,0,0,0,-1,0,0,-1,0
1528453433648719,0,-1,2,0,0,-2,0,1
1528453433652740,-1,0,0,-2,0,1,-2,-2
1528453433652740,1,-1,-3,-2,1,-1,-1,-1
1528453433668697,-2,-1,-1,-1,-2,-1,0,-1
1528453433668697,-2,0,0,0,0,0,-1,-1
1528453433674649,-2,-1,0,0,0,-1,-1,0
1528453433674649,-1,-1,-2,0,-2,0,0,-3
1528453433683850,0,-1,-1,0,0,-1,0,0
1528453433683850,-1,0,-2,-3,-2,-2,-1,1
1528453433692085,0,1,0,-1,0,0,0,0
1528453433692085,-1,0,-1,0,1,0,-2,-1
1528453433722035,0,-1,-1,-2,0,0,0,-2
1528453433722035,0,1,0,-1,-1,2,-1,0
1528453433728792,-2,-1,-2,-1,-2,-2,-2,0
1528453433728792,-1,-2,-2,-2,-3,-2,-1,0
1528453433729790,0,0,0,-1,-2,0,0,-1
1528453433729790,1,-1,-1,2,-1,0,0,-1
1528453433734776,-3,1,1,0,0,-1,0,-2
1528453433734776,-1,-1,-1,-1,0,-1,0,-1
1528453433743362,0,-2,0,-1,1,-2,0,-1
1528453433743362,0,0,-1,1,0,0,-2,-1
1528453433751343,0,-2,-3,0,0,0,1,1
1528453433751343,1,0,0,-1,0,-1,-1,0
1528453433775372,-1,-2,-1,-2,-2,0,-1,-1
1528453433775372,-1,0,-1,-2,-2,-1,0,-1
1528453433776323,0,0,1,0,0,-1,-2,-1
1528453433776323,-1,-1,-1,-1,-1,-1,1,-1
1528453433780545,-1,0,-1,1,-2,-2,0,-1
1528453433780545,0,-3,-2,-3,0,0,1,1
1528453433803251,1,0,-1,-1,-2,-1,-1,-2
1528453433803251,0,0,0,-1,0,1,0,0
1528453433804252,-2,-1,0,-1,-1,-1,-1,-1
1528453433804252,0,0,-3,-2,-2,-2,-1,-1
1528453433817480,1,-2,-1,-1,-1,-2,-1,-1
1528453433817480,-1,-1,0,1,-1,-1,-1,-1
1528453433825455,-1,0,-3,1,0,-1,-1,-1
1528453433825455,-2,0,-1,0,0,1,0,-1
1528453433834199,0,0,-1,-2,1,2,-1,-1
1528453433834199,-1,-1,0,0,-1,-1,-3,-2
1528453433840152,-1,-2,0,2,0,0,0,1
1528453433840152,0,-2,0,1,-1,0,-2,-1
1528453433855351,-2,-1,1,0,-1,-1,0,1
1528453433855351,0,0,1,0,-1,-1,0,0
1528453433864335,0,0,0,0,-1,-1,-4,-1
1528453433864335,-2,0,-1,-1,0,1,-3,-2
1528453433870312,0,0,-3,-1,1,-2,1,-2
1528453433870312,-2,-1,-1,-2,0,-1,-1,-1
1528453433886409,2,0,-1,0,1,-1,-1,2
1528453433886409,0,-1,1,-1,-1,-2,-1,-2
1528453433892927,0,-2,0,-2,-1,-1,-1,-1
1528453433892927,-2,-2,-2,0,-1,0,0,0
1528453433900584,0,0,0,-1,-1,-1,-1,-3
1528453433900584,-2,-2,1,0,1,-1,-2,0
1528453433924521,-1,0,0,0,-1,-1,-1,0
1528453433924521,-1,0,-3,0,-1,-1,-1,0
1528453433925550,0,0,-1,0,-1,-1,-1,0
1528453433925550,0,0,-1,0,-2,-1,1,0
1528453433937486,0,-1,0,-2,-1,-1,0,-2
1528453433937486,1,-1,1,0,-1,1,-1,-1
1528453433953773,-3,0,-2,0,-2,-2,0,-1
1528453433953773,-1,-1,-1,0,1,0,-1,0
1528453433961040,0,0,-2,2,0,0,0,-1
1528453433961040,-1,0,0,-2,0,-1,-1,0
1528453433961706,0,0,-1,0,0,1,1,-1
1528453433961706,1,-1,-1,0,-1,0,-1,0
1528453433975600,0,-2,-1,-1,-2,1,0,0
1528453433975600,1,1,0,0,1,-2,-2,-2
1528453433983879,-1,-3,0,-2,0,-1,1,0
1528453433983879,-1,-1,0,-1,-1,-1,1,0
1528453434006777,-1,-3,-1,-1,-2,-1,-1,-1
1528453434006777,0,0,-1,1,0,-1,-2,-1
1528453434007528,-1,-1,-2,0,1,-1,-1,-1
1528453434007528,-2,1,-1,0,1,-1,0,-1
1528453434020484,1,0,-1,-1,0,-2,-1,-1
1528453434020484,1,-1,0,0,-1,-2,1,0
1528453434021481,0,-1,-1,-1,-2,0,-1,-2
1528453434021481,-1,0,-1,-2,-1,-1,-1,-2
1528453434052437,-1,1,1,0,-2,0,-1,-1
1528453434052437,-2,0,-3,-2,0,-1,-1,0
1528453434053396,0,0,0,-1,1,0,0,1
1528453434053396,0,0,-2,0,-2,0,0,0
1528453434066361,-2,0,0,0,-1,1,0,0
1528453434066361,-2,-2,-1,0,0,1,0,0
1528453434067358,0,-1,1,0,-2,0,0,0
1528453434067358,0,-1,0,0,0,-1,0,0
1528453434081320,0,0,-1,1,0,-1,-1,-1
1528453434081320,0,0,0,-1,-1,0,-1,0
1528453434082317,-1,1,-2,-1,0,-1,-2,-1
1528453434082317,-1,-1,-1,0,0,-1,-1,0
1528453434095282,-2,-2,-1,-1,0,-1,0,0
1528453434095282,-2,-1,0,-2,-3,-1,-1,1
1528453434103261,-1,-1,0,0,-3,0,-1,-2
1528453434103261,0,1,-1,-2,-1,0,-1,0
1528453434126214,-1,-1,-1,1,0,0,-3,-1
1528453434126214,0,0,0,-1,0,-1,-1,-1
1528453434127197,0,-1,-1,1,0,0,0,-1
1528453434127197,-1,1,-1,-2,-1,0,-2,0
1528453434140171,0,-1,-1,-2,-2,-1,1,-1
1528453434140171,0,0,1,-1,-2,-1,-3,-2
1528453434141160,-1,-1,-2,-3,-1,-1,-1,1
1528453434141160,-1,-2,0,0,0,-2,1,-1
1528453434155123,0,1,0,1,-1,0,-1,0
1528453434155123,1,0,0,0,-2,1,0,0
1528453434163101,-1,0,1,-1,-1,-2,0,-1
1528453434163101,-1,-2,-1,1,0,-1,-1,-1
1528453434193021,-3,1,-1,-2,0,-2,2,0
1528453434193021,1,-1,-1,-2,1,-1,1,-1
1528453434201997,-1,1,0,0,0,1,-1,0
1528453434201997,1,0,1,0,-1,-1,0,-1
1528453434203013,0,-1,-1,1,-2,1,-1,0
1528453434203013,-2,2,-2,-1,-2,0,1,0
1528453434208979,-1,0,0,2,0,-1,-1,-2
1528453434208979,-2,-2,-1,-5,-2,-2,-2,-1
1528453434215960,0,-2,-2,-4,-3,1,-1,1
1528453434215960,-2,0,1,5,4,1,-1,-1
1528453434222942,-1,0,-2,2,-1,-1,-1,-1
1528453434222942,0,0,-1,0,-1,0,-1,0
1528453434237910,-2,-1,-1,0,1,-2,-1,0
1528453434237910,1,-1,-2,-5,-4,-2,1,-1
1528453434253867,0,-3,-1,1,2,1,-2,-1
1528453434253867,0,-1,0,2,1,-1,-1,-1
1528453434277850,1,0,-3,-3,-1,-2,1,-1
1528453434277850,-1,0,0,-1,0,-1,-1,-1
1528453434279844,0,1,-3,-13,-3,-1,-1,-1
1528453434279844,-1,0,-3,2,-1,2,0,0
1528453434280814,-1,-1,3,11,3,2,0,0
1528453434280814,-1,-2,-1,-3,-3,-2,0,-2
1528453434291812,-1,-2,0,1,-1,-1,0,1
1528453434291812,0,-1,-2,-2,0,-1,-1,-1
1528453434297797,0,0,-2,-4,-2,-2,-1,0
1528453434297797,1,-2,1,0,0,0,-1,-1
1528453434306772,-1,-1,-1,-4,-2,-1,-1,-1
1528453434306772,-2,-2,0,-1,0,-1,-1,-1
1528453434319738,-1,0,1,0,1,-1,1,-1
1528453434319738,0,-2,1,-2,0,-1,-1,-1
1528453434337635,0,-2,-1,2,0,-1,-2,0
1528453434337635,-1,0,0,2,-1,-1,-1,1
1528453434338633,-2,-1,0,-2,0,0,-2,-3
1528453434338633,0,0,-4,-1,-2,0,0,0
1528453434358632,0,0,1,1,3,0,1,0
1528453434358632,0,0,0,0,1,-2,-1,-1
1528453434366558,0,0,1,-2,0,0,-1,1
1528453434366558,-2,-1,-2,1,1,-1,-1,-1
1528453434368681,-1,-2,-2,1,-1,-1,0,1
1528453434368681,1,-1,1,-3,-2,-1,0,1
1528453434390614,0,1,0,0,0,-2,-2,-1
1528453434390614,0,-1,0,0,0,-1,-1,1
1528453434405073,-2,-1,1,0,-1,0,0,-1
1528453434405073,-2,-2,0,-1,0,1,0,-2
1528453434406003,-1,1,-2,0,-2,-2,0,0
1528453434406003,-2,1,0,1,0,-2,-1,0
1528453434406996,0,0,-2,-1,-1,0,1,-3
1528453434406996,0,0,0,-2,-2,0,-1,-2
1528453434418134,-2,-2,-1,-3,-1,-2,-1,-2
1528453434418134,-2,0,0,1,0,0,-1,-1
1528453434440902,-2,-3,0,0,-1,-3,0,1
1528453434440902,-1,0,1,1,-1,-1,-2,-1
1528453434442157,-1,-1,-1,-2,-1,0,0,0
1528453434442157,0,-2,-1,0,-1,1,0,-1
1528453434458273,-1,0,0,0,-2,0,-2,-1
1528453434458273,-1,0,1,-1,0,-1,-1,0
1528453434459308,0,-4,0,0,0,-1,-2,0
1528453434459308,-1,-2,-1,0,-1,0,-1,-1
1528453434464591,0,1,0,-2,-2,0,-1,-1
1528453434464591,-2,-2,-2,0,2,0,1,1
1528453434477792,1,0,-2,-1,-2,0,0,-1
1528453434477792,-1,-2,0,0,0,0,-1,1
1528453434486507,-1,0,0,0,0,-1,0,0
1528453434486507,0,0,-2,0,0,0,0,-2
1528453434500049,-1,1,-1,-1,-1,-2,-2,0
1528453434500049,-1,0,0,0,1,0,0,-2
1528453434516742,0,-3,1,0,-2,-1,-1,0
1528453434516742,0,-2,-1,-2,0,-1,1,1
1528453434517737,-3,0,0,0,0,0,-1,-1
1528453434517737,0,0,0,-2,-1,-1,-1,0
1528453434524717,-1,0,-1,-1,1,0,1,-1
1528453434524717,-1,-1,-1,-1,-1,-1,-1,-1
1528453434537683,1,0,0,-1,-1,0,1,-2
1528453434537683,0,0,0,-1,-2,-1,-2,0
1528453434553655,-1,-1,-1,0,0,-1,1,0
1528453434553655,-1,0,-1,-2,-1,0,-1,0
1528453434568859,-1,-1,-2,-1,0,0,1,0
1528453434568859,-2,0,-1,-1,-1,-1,-1,-1
1528453434570595,-1,0,-3,0,-1,-1,-2,-1
1528453434570595,1,-1,-1,0,-1,-1,-2,0
1528453434575640,0,-2,-1,-1,0,-1,0,0
1528453434575640,-2,0,0,0,1,-1,1,-1
1528453434584558,0,-1,0,0,-3,-1,0,-1
1528453434584558,-1,0,-2,-2,-2,-2,0,-2
1528453434605502,-2,0,0,0,0,-1,-1,-1
1528453434605502,0,-2,1,-2,-1,-1,0,1
1528453434638433,-1,0,0,-1,-1,-2,-1,-2
1528453434638433,-1,-2,-1,-2,0,-1,0,0
