timestamp,emg1,emg2,emg3,emg4,emg5,emg6,emg7,emg8
1528278979295646,2,-1,-2,-3,17,33,14,4
1528278979295646,3,1,2,13,10,62,47,5
1528278979300428,1,-1,1,1,4,20,16,3
1528278979300428,-2,-1,1,10,3,10,-2,-6
1528278979300428,1,0,0,-16,-22,-36,-16,5
1528278979300428,-4,-5,-3,11,30,19,-5,-3
1528278979301425,-2,-3,-6,-23,-32,-25,-2,-2
1528278979301425,-4,-2,7,18,13,10,-15,-11
1528278979302423,2,4,4,12,20,9,3,6
1528278979302423,-3,-3,-7,-19,-39,-37,-8,1
1528278979314391,-1,-3,-10,-6,-21,-8,11,3
1528278979314391,-1,0,0,-13,12,22,8,2
1528278979328355,-7,-5,0,27,9,-12,-23,-11
1528278979328355,-2,-3,-10,-41,-11,27,18,3
1528278979337331,1,4,11,25,14,-15,-17,-6
1528278979337331,-1,-4,-7,-9,-7,-26,-6,1
1528278979343328,2,4,9,9,-7,6,4,-2
1528278979343328,-1,-1,-4,-10,-13,-22,-15,-5
1528278979358325,-4,-4,-2,-19,-1,-7,-12,0
1528278979358325,4,5,5,16,28,55,37,10
1528278979359280,-4,-1,3,-3,-11,7,-7,-6
1528278979359280,-2,-5,-4,1,-9,-42,-14,-5
1528278979381214,0,-2,0,9,30,35,-1,0
1528278979381214,4,2,0,-7,-4,-7,12,6
1528278979382211,-2,-4,-11,-18,-12,-8,5,0
1528278979382211,1,5,4,9,-1,-11,-11,-4
1528278979404177,-1,0,-5,-7,-33,-22,-8,0
1528278979404177,-2,-1,0,-1,14,-19,-20,-3
1528278979404177,-1,-2,-1,15,27,34,38,5
1528278979404177,1,4,11,9,4,-16,-14,0
1528278979418116,0,2,3,-1,-9,8,2,-2
1528278979418116,-5,-4,-6,17,44,40,19,-1
1528278979425096,-1,-3,-7,-8,7,-9,-17,-1
1528278979425096,4,1,8,12,12,5,-4,10
1528278979457010,4,4,8,35,-3,-1,8,0
1528278979457010,-5,-3,-1,-46,-37,-20,-4,-11
1528278979458008,-3,-4,-7,0,-8,-3,1,1
1528278979458008,-3,-7,-11,12,8,-20,-29,-6
1528278979463992,1,1,4,-25,0,7,14,-2
1528278979463992,-2,-3,-5,-6,4,10,-6,3
1528278979463992,-1,-2,-2,1,-5,20,26,-2
1528278979463992,2,1,-4,-6,-19,0,1,0
1528278979477955,-2,-3,-1,0,12,2,-4,-2
1528278979477955,-2,-4,-19,-6,-38,-42,-17,-7
1528278979485933,-1,2,20,3,26,-4,-9,0
1528278979485933,1,7,-4,-2,11,21,19,3
1528278979500894,-8,-9,-8,-9,-13,-6,-5,-4
1528278979500894,4,6,4,-14,-12,-11,0,4
1528278979501892,-1,0,18,54,8,-11,-15,-4
1528278979501892,0,-4,-7,-8,-9,7,7,-3
1528278979523833,-1,2,4,1,12,3,0,3
1528278979523833,3,-1,1,9,-13,-6,-2,2
1528278979524830,2,4,1,2,8,-8,-6,0
1528278979524830,2,2,14,5,-7,6,10,4
1528278979545774,-10,-12,-19,-33,8,9,-3,-8
1528278979545774,-1,0,2,40,7,-34,-26,-7
1528278979546776,-1,-4,-9,-37,-14,15,13,0
1528278979546776,-6,-6,-4,4,-5,-8,-10,-9
1528278979560734,3,-5,-12,-12,-18,-21,-16,1
1528278979560734,7,11,6,-21,-12,16,24,7
1528278979561731,-1,-3,-9,-12,1,11,1,-2
1528278979561731,-8,-11,-3,0,12,-13,-15,-8
1528278979583672,1,4,6,7,15,18,5,0
1528278979583672,-2,2,-2,17,-5,-23,-9,-4
1528278979584670,0,-4,-3,-12,-11,-21,-19,-4
1528278979584670,2,-10,0,8,19,35,21,7
1528278979597636,-8,3,-11,10,1,-18,-9,-9
1528278979597636,-8,-8,-8,-12,2,10,6,-7
1528278979605615,-6,-1,-10,-20,-12,-14,-12,-10
1528278979605615,7,1,4,-6,11,6,-5,6
1528278979621571,8,3,12,4,-5,-7,2,18
1528278979621571,8,2,6,24,39,36,23,13
1528278979621571,-2,-2,1,1,-19,-10,1,-7
1528278979621571,-10,-2,-6,2,-2,-1,22,-12
1528278979644510,-2,-2,14,7,4,2,-8,-3
1528278979644510,5,6,8,-9,-11,2,-8,9
1528278979659470,-4,-4,-3,-14,-6,-14,-17,-11
1528278979659470,-3,-1,-3,10,4,-7,-1,-3
1528278979661466,2,7,-3,29,14,1,3,-5
1528278979661466,-4,-3,15,-30,-7,4,-6,-1
1528278979665459,5,-3,-33,-28,-27,-4,16,11
1528278979665459,0,7,29,-12,-8,3,-9,1
1528278979681411,-5,-8,-21,-9,-12,-13,-8,-6
1528278979681411,2,1,-3,-9,-1,5,3,0
1528278979682426,-4,-1,10,23,-15,-5,-4,-4
1528278979682426,-1,2,-16,4,4,-7,-8,-6
1528278979703353,4,2,16,20,16,15,13,6
1528278979703353,-5,-6,-7,6,-29,-20,-11,-9
1528278979704350,3,2,-1,-3,34,11,-2,0
1528278979704350,-1,-6,-19,-29,-9,-2,4,4
1528278979726261,-8,-4,15,20,-1,5,-10,-7
1528278979726261,-1,-6,-11,11,-2,-6,-4,-3
1528278979727258,1,2,4,-8,-14,-2,0,2
1528278979727258,-4,-5,-2,-6,-28,-13,-7,-3
1528278979741265,0,-5,-12,-17,8,2,-4,-5
1528278979741265,-6,-7,-2,12,4,-8,-2,-3
1528278979742218,1,1,0,-7,8,13,10,3
1528278979742218,0,0,-2,8,10,9,-1,0
1528278979764181,2,-2,3,-9,-6,1,4,4
1528278979764181,-4,-2,1,0,-3,-4,-4,-2
1528278979764181,-7,-1,-9,2,-7,-9,-11,-9
1528278979764181,-14,-3,-1,5,-5,-7,0,-26
1528278979787152,-8,-2,-5,-4,19,13,8,-10
1528278979787152,6,-8,-3,2,4,-7,-20,32
1528278979788171,23,5,3,-4,-25,-6,17,25
1528278979788171,4,5,6,-7,-3,2,3,19
1528278979801061,-6,-10,-12,-7,-14,-22,-31,-11
1528278979801061,7,8,4,-5,3,1,7,-5
1528278979802060,-4,3,14,19,5,4,-4,-8
1528278979802060,-4,0,-5,20,12,-1,7,-11
1528278979823001,-9,-1,15,-16,5,11,9,-9
1528278979823001,-10,-6,-16,-8,-5,-1,-4,-3
1528278979831001,1,4,14,-6,-4,-6,-2,-1
1528278979831001,-9,-19,-30,-8,-3,-7,-6,-7
1528278979845942,7,12,0,22,18,16,13,11
1528278979845942,-5,-4,2,-33,-8,-2,-2,-8
1528278979846937,1,-3,-27,7,-3,-5,2,2
1528278979846937,10,16,37,6,27,16,-1,5
1528278979860953,-7,-18,-26,3,-23,-6,2,3
1528278979860953,4,7,7,-1,-12,-7,0,-5
1528278979861909,-6,-2,-7,-10,4,12,5,-4
1528278979861909,2,5,26,31,10,-13,-17,0
1528278979883876,5,3,4,-7,-3,3,17,10
1528278979883876,-6,-2,6,41,14,4,-1,-12
1528278979884890,-5,-3,-4,-23,9,3,0,-2
1528278979884890,4,-1,-25,-44,-18,-2,2,7
1528278979905832,-2,-1,16,32,2,-4,-7,-6
1528278979905832,-6,-6,-18,-17,-8,-5,-2,-9
1528278979906777,-3,0,7,9,10,-2,-6,1
1528278979906777,-1,-2,-8,-6,-5,-5,-5,0
1528278979920795,2,0,-7,-15,-19,-8,1,0
1528278979920795,2,3,-2,-6,10,0,1,4
1528278979921777,-6,-7,3,-1,4,-5,-8,-6
1528278979921777,3,3,4,5,0,11,9,4
1528278979943712,4,2,-1,-7,5,5,7,3
1528278979943712,-3,-2,-1,3,-13,-5,-1,-5
1528278979951721,1,1,3,1,19,4,2,1
1528278979951721,-3,-13,-6,5,0,-4,-2,0
1528278979966665,2,8,-1,-13,-6,0,-3,-1
1528278979966665,-2,-2,-6,-12,-17,-5,-5,-6
1528278979966665,-5,-2,-1,17,-2,-7,-5,-8
1528278979966665,1,6,-3,-3,8,2,-3,4
1528278979981624,1,-6,-1,1,-4,-4,-2,6
1528278979981624,-2,0,1,-2,0,0,0,-7
1528278979981624,-4,-8,-9,-14,-19,-6,-2,0
1528278979981624,-2,-4,2,4,-4,-10,-9,-4
1528278980003574,1,0,-2,-6,5,6,5,-2
1528278980003574,-1,0,-2,8,4,2,-2,4
1528278980004516,3,1,5,5,-3,1,-1,4
1528278980004516,0,4,8,15,-11,-4,-2,-3
1528278980026510,-5,-3,-24,-31,-7,-6,-4,-8
1528278980026510,-2,-2,10,2,10,13,13,0
1528278980026510,-5,-6,-3,15,-14,-2,-5,-10
1528278980026510,7,1,-31,-23,-12,-7,-6,10
1528278980041470,12,17,50,27,7,4,3,14
1528278980041470,0,-3,10,-1,-2,-2,-1,-5
1528278980042472,-6,-5,-25,-23,-6,-3,-1,-7
1528278980042472,-4,-1,6,1,1,4,4,-5
1528278980063359,-10,-13,-23,-15,-5,-7,-9,-8
1528278980063359,3,4,-3,-10,-12,-4,-2,6
1528278980071390,-2,-4,-1,-10,-8,3,5,0
1528278980071390,-4,1,6,25,11,-5,-8,-6
1528278980087296,1,2,8,22,2,-5,-5,-1
1528278980087296,-5,-6,10,19,8,3,1,-2
1528278980087296,1,2,-14,-19,-9,-6,-10,-1
1528278980087296,-1,-4,-11,-24,-4,3,10,4
1528278980101292,3,6,4,-11,-6,-1,1,1
1528278980101292,-7,-10,-11,5,4,-6,-8,-6
1528278980102255,-2,-5,7,20,-1,-6,0,-1
1528278980102255,0,-1,-4,-20,-14,-1,-1,2
1528278980123199,-2,3,10,18,16,-1,-6,-6
1528278980123199,0,1,-14,-20,-15,-3,0,1
1528278980124196,-1,2,14,13,14,8,4,3
1528278980124196,0,-2,1,-5,-10,-1,1,-3
1528278980147049,-1,-4,-16,-5,4,-3,-4,-6
1528278980147049,1,5,2,0,-2,-1,0,3
1528278980148047,0,-8,6,-1,0,-5,-8,-7
1528278980148047,2,14,8,7,4,6,5,8
1528278980161256,2,-5,-13,-7,1,11,12,3
1528278980161256,-3,-7,3,9,4,-1,-4,-4
1528278980162018,-2,1,1,-7,0,-3,0,-1
1528278980162018,-2,5,0,-3,-4,-5,-8,-6
1528278980192173,-2,3,4,3,0,0,-4,-2
1528278980192173,1,-1,-4,-6,-2,0,0,2
1528278980192929,-4,-9,-1,-1,-2,-1,-1,2
1528278980192929,-5,1,-3,2,1,-3,-5,-6
1528278980207156,-2,0,-6,-6,-8,-5,-2,0
1528278980207156,-1,1,-3,1,0,1,4,-2
1528278980207886,0,1,1,0,5,8,5,-3
1528278980207886,1,-5,3,1,-4,-4,-7,10
1528278980221663,6,0,-1,-6,-9,-10,-4,6
1528278980221663,0,1,-2,-6,-5,-7,-4,-4
1528278980222672,-1,3,0,7,12,13,6,-1
1528278980222672,-4,-5,-2,-2,0,7,5,-7
1528278980244179,-4,-5,-14,-8,-7,-3,-2,-2
1528278980244179,0,1,15,16,3,-8,-7,-1
1528278980245191,-1,-2,-22,-14,-13,-11,-10,-2
1528278980245191,-1,0,21,2,2,0,1,-2
1528278980273834,-9,-9,-15,-21,-7,-3,-12,-4
1528278980273834,2,4,-5,0,4,8,16,2
1528278980290991,5,4,7,11,3,-2,3,4
1528278980290991,1,-2,-3,5,5,6,0,-1
1528278980291988,-2,-1,-1,0,-3,-2,-3,-3
1528278980291988,0,-3,0,-7,-3,-8,-9,-3
1528278980294979,2,0,-5,-5,1,-8,-1,3
1528278980294979,2,0,14,12,7,15,13,2
1528278980312184,-2,0,7,7,3,2,4,-2
1528278980312184,-1,-1,-8,-9,-6,-7,-7,-3
1528278980313933,0,2,1,-2,0,-3,1,2
1528278980313933,-3,-4,-5,-2,-6,0,4,-4
1528278980326876,-1,0,3,0,-2,-8,-15,-5
1528278980326876,0,-2,-5,-1,3,3,7,2
1528278980333797,1,0,3,2,-1,7,2,-1
1528278980333797,-1,-4,-4,-4,-2,-7,-8,-3
1528278980349822,0,-1,-2,-2,0,-6,-1,0
1528278980349822,0,-2,-6,-7,-2,14,5,0
1528278980350821,-2,-1,4,2,-2,-17,-7,-2
1528278980350821,-1,-3,-4,-1,-2,-11,-1,-2
1528278980372506,2,1,0,2,13,33,11,5
1528278980372506,-1,0,1,2,3,-7,4,3
1528278980373500,-1,0,-1,-1,-2,8,-10,-3
1528278980373500,-2,-3,-5,-7,-4,-4,3,-3
1528278980401428,-4,-4,-4,-3,-13,-41,-15,-5
1528278980401428,-2,0,-1,-3,1,29,8,-3
1528278980403419,-2,-2,0,1,-2,-23,-13,-1
1528278980403419,0,-2,-5,-10,-1,4,-5,-2
1528278980409407,0,0,3,6,5,13,11,0
1528278980409407,-2,-2,-4,-3,-2,-2,-6,-2
1528278980411402,-1,-1,1,1,-12,-19,-3,-4
1528278980411402,0,1,2,12,3,-10,-8,-1
1528278980432353,0,-3,-6,-26,-4,7,6,1
1528278980432353,0,-1,2,1,2,20,17,1
1528278980433347,-2,-1,-4,-11,-2,3,-6,-3
1528278980433347,-6,-4,-2,32,-5,-35,-17,-3
1528278980445312,2,2,1,5,-2,6,13,0
1528278980445312,-1,-2,-1,-7,3,4,-7,0
1528278980454356,-1,1,8,6,4,7,6,-1
1528278980454356,-3,-3,-8,-10,-8,1,-13,-3
1528278980469248,-1,-1,0,10,-5,-10,-1,-2
1528278980469248,1,-3,-9,-16,-6,-20,3,2
1528278980471239,1,3,8,36,20,19,11,3
1528278980471239,1,0,7,-32,-1,32,14,1
1528278980492182,-2,-2,3,18,4,-1,-9,-5
1528278980492182,-3,-3,-5,17,-5,-11,-10,-5
1528278980493217,-4,-5,-8,-16,-7,-12,-4,-2
1528278980493217,-1,-2,0,-3,-4,-11,-5,-3
1528278980515167,-1,0,-2,-16,-3,11,6,0
1528278980515167,-5,-8,-3,7,-1,-9,-8,-5
1528278980516119,1,3,3,-8,-5,-2,-1,2
1528278980516119,-6,3,-23,-5,-7,-7,-6,-3
1528278980529084,6,1,20,8,5,4,-1,4
1528278980529084,1,-3,1,4,4,-6,-3,1
1528278980531078,-1,2,-13,-9,-5,-19,-14,-5
1528278980531078,2,-3,-4,-7,8,50,34,5
1528278980559008,-2,0,-1,4,-8,-20,-14,-4
1528278980559008,-2,-3,4,0,-4,-20,-14,-2
1528278980567980,1,-5,2,-3,7,26,9,4
1528278980567980,0,4,4,7,7,11,8,2
1528278980569247,-5,-3,-7,-3,-3,-4,-3,-4
1528278980569247,0,0,2,-5,-6,-5,-6,-4
1528278980575210,-2,-2,-4,-7,-11,-21,-13,-4
1528278980575210,-1,-2,3,4,-1,-19,-9,-1
1528278980590119,0,0,-1,-3,1,9,6,1
1528278980590119,-1,0,-10,-10,-3,-2,-2,-1
1528278980591030,1,0,1,2,0,6,7,0
1528278980591030,-1,-4,3,1,-1,-4,-4,-2
1528278980620108,0,-1,-4,-6,-3,-3,-1,1
1528278980620108,-1,3,3,2,-2,0,-1,-1
1528278980621835,0,-2,2,0,1,8,5,0
1528278980621835,-2,-3,1,0,-3,-6,-2,-3
1528278980625829,-3,-2,-6,-6,-2,-7,-4,-1
1528278980625829,-3,2,2,-1,0,0,0,0
1528278980634802,-2,-1,1,-2,1,8,3,0
1528278980634802,0,-3,-6,-4,-4,-11,-6,-2
1528278980649764,0,-2,-1,0,-1,-4,-2,-2
1528278980649764,0,-2,-1,-1,1,4,1,0
1528278980650765,0,-2,-1,-1,-1,3,2,-1
1528278980650765,0,-2,2,0,-4,-8,-3,-1
1528278980672009,-2,-1,-3,-1,0,0,-1,-2
1528278980672009,0,1,2,-1,0,2,2,0
1528278980673698,-2,-2,-1,-2,-2,0,-2,-1
1528278980673698,-1,0,1,0,-1,-5,-4,-2
1528278980685903,0,-4,2,1,-1,0,-1,-1
1528278980685903,-1,0,-3,-2,-2,1,-3,-1
1528278980694641,0,-1,-2,1,0,0,0,0
1528278980694641,0,-2,0,-3,-1,-1,-3,-2
1528278980709832,-3,-1,-3,-3,-2,-1,0,0
1528278980709832,1,1,-3,-1,-1,0,0,-2
1528278980711719,0,-1,-1,0,0,2,2,-2
1528278980711719,-1,0,-2,0,-2,-2,-1,-2
1528278980732656,0,-1,-3,-2,-2,-4,-2,-1
1528278980732656,-1,-1,-2,0,1,-2,1,-2
1528278980733537,0,1,-2,-1,-2,1,1,1
1528278980733537,-2,-2,-3,-1,-2,-3,-2,-2
1528278980745769,0,-1,-2,-1,-3,0,-1,-2
1528278980745769,-3,-1,0,-2,-2,1,-2,0
1528278980754481,-1,-1,-1,-2,0,-1,-1,-1
