timestamp,emg1,emg2,emg3,emg4,emg5,emg6,emg7,emg8
1528440290432780,-1,-1,-1,1,0,-1,-1,-1
1528440290432780,2,-1,0,-1,-1,1,-2,-1
1528440290433775,-2,-2,0,-1,-2,-1,-1,-2
1528440290433775,0,-1,-1,-1,-2,0,-1,-1
1528440290434774,-1,0,-1,0,1,-1,0,-1
1528440290434774,1,-2,0,-2,-2,-1,0,0
1528440290435770,-2,0,-2,-2,0,-2,-1,0
1528440290435770,0,0,-1,-2,-2,0,0,-2
1528440290447738,0,0,-1,-1,-2,-1,0,1
1528440290447738,-1,0,0,-1,0,0,-1,1
1528440290455716,0,0,0,1,0,0,0,0
1528440290455716,-2,-1,1,0,0,-2,1,-1
1528440290461701,-1,-2,-1,-2,-1,1,-1,-1
1528440290461701,-2,0,-1,0,-2,2,0,0
1528440290475664,0,-1,0,-1,0,-2,0,0
1528440290475664,0,1,-1,0,-2,1,-1,0
1528440290486634,-3,-2,-2,0,-2,0,-1,-2
1528440290486634,-2,0,-1,-1,-1,-1,0,0
1528440290490623,1,-1,0,-1,-2,0,0,0
1528440290490623,0,-2,0,-1,0,0,-1,0
1528440290507578,-1,0,1,-1,0,-2,0,-1
1528440290507578,0,0,-1,0,0,-2,-2,0
1528440290514561,1,0,-2,-1,1,-2,-1,0
1528440290514561,0,0,-1,0,1,-1,0,0
1528440290554454,-3,1,0,0,-1,0,0,-1
1528440290554454,-1,-1,-1,0,-2,-1,0,0
1528440290555450,-2,-1,-1,-1,1,0,-1,-2
1528440290555450,0,-1,-1,-1,-2,-2,0,1
1528440290556447,-2,-2,-2,-1,1,0,0,-1
1528440290556447,0,0,1,-2,0,1,-2,0
1528440290567436,0,0,1,0,-2,0,0,0
1528440290567436,-1,-1,-2,-2,-1,-1,0,-1
1528440290569414,1,-2,0,-1,1,0,-1,-1
1528440290569414,0,-1,-1,0,-1,1,0,0
1528440290573402,0,-1,-2,-1,-1,1,1,1
1528440290573402,-1,0,0,1,0,0,-2,-1
1528440290582378,-1,1,0,0,-2,-2,-1,-2
1528440290582378,-1,0,-1,0,1,0,0,1
1528440290597338,-3,-1,0,-1,-1,-1,-1,0
1528440290597338,-1,-1,-1,-1,1,-1,-1,0
1528440290605317,-2,0,0,0,0,-1,-1,0
1528440290605317,0,1,1,1,-2,-1,-1,0
1528440290611301,-1,0,-1,-2,0,-3,-2,-1
1528440290611301,-1,1,0,-1,-2,-1,-1,1
1528440290627258,1,0,-2,0,0,-1,0,0
1528440290627258,-2,-1,-3,-3,1,0,0,-2
1528440290633242,-1,-1,-1,0,0,0,-1,-2
1528440290633242,-1,0,-1,0,-1,2,-1,-2
1528440290642218,-1,-2,0,-1,0,1,0,0
1528440290642218,-1,-1,-1,0,0,-2,-2,-1
1528440290656181,1,0,0,-2,-1,-1,0,0
1528440290656181,0,0,-2,-2,0,-1,-2,0
1528440290665157,-1,0,-1,0,-2,0,0,0
1528440290665157,0,-1,-1,-2,-1,0,0,-1
1528440290671141,0,0,0,-1,0,-2,-2,-3
1528440290671141,0,-2,-1,-1,1,-1,-1,-1
1528440290687098,0,-1,-2,-1,-2,-3,-1,0
1528440290687098,0,1,0,-1,-1,-1,0,1
1528440290693082,0,0,-1,-2,-1,1,1,0
1528440290693082,0,-2,0,-1,0,0,-1,2
1528440290702058,-1,0,1,-2,-2,-1,-1,-1
1528440290702058,0,1,-1,-1,-1,-1,0,-1
1528440290716021,0,0,0,1,0,1,-1,-2
1528440290716021,0,1,0,0,-1,-1,-1,-1
1528440290724997,1,1,-2,0,0,-2,0,-1
1528440290724997,0,-1,-1,0,-1,0,-1,0
1528440290730980,-1,-1,-1,-1,-1,-2,0,0
1528440290730980,-2,-2,-1,0,0,0,0,-2
1528440290747937,0,-1,-1,-1,0,0,-2,-1
1528440290747937,-1,-2,-2,-1,0,-1,-1,-2
1528440290752923,-1,-1,-1,2,-1,-1,-1,-1
1528440290752923,1,3,0,0,-1,0,1,0
1528440290762897,-3,-1,-1,-2,0,0,-1,-2
1528440290762897,0,-2,0,-1,-1,0,0,-1
1528440290775861,-3,-2,0,1,-2,0,-2,1
1528440290775861,0,-1,-2,0,0,-2,-2,-1
1528440290784837,0,1,-1,-1,-1,0,1,0
1528440290784837,-1,-1,-1,-1,0,-2,0,0
1528440290790822,0,0,-1,-1,-1,-1,-1,-1
1528440290790822,0,-1,-1,-1,-2,0,-2,0
1528440290807778,-1,-2,-2,0,2,0,1,-1
1528440290807778,0,-2,-1,0,0,0,1,-2
1528440290813761,-1,-1,0,-1,-1,-1,2,0
1528440290813761,-2,0,1,1,-1,-1,1,-1
1528440290822770,1,-1,-1,-2,0,1,0,0
1528440290822770,-1,-1,-1,0,-1,0,-3,0
1528440290835737,0,-1,-2,-1,0,1,-2,-1
1528440290835737,-1,0,-3,-1,-1,-1,-1,-2
1528440290844677,0,0,0,-2,-2,-2,-1,-1
1528440290844677,-1,1,1,0,-1,-1,0,0
1528440290858640,-1,-2,-2,-2,-1,-1,-1,0
1528440290858640,0,-1,-1,-2,-1,0,1,0
1528440290867617,1,0,0,1,-1,-1,0,0
1528440290867617,-1,0,-1,0,-3,-2,1,0
1528440290873601,-2,2,-1,0,-1,-1,0,-2
1528440290873601,-1,-1,1,-2,0,-1,1,-1
1528440290882577,0,-1,0,0,0,1,0,1
1528440290882577,0,-2,-2,-1,0,1,-2,0
1528440290895574,1,-1,-1,-1,0,1,0,1
1528440290895574,-1,-2,-1,-1,2,0,0,-1
1528440290904519,-3,-1,0,0,-1,0,-1,0
1528440290904519,-1,0,-1,-2,0,-1,0,-1
1528440290918481,-1,-2,-2,-2,0,-1,0,0
1528440290918481,0,-1,-2,-2,0,0,0,-1
1528440290927456,0,1,-2,-2,0,-2,-1,-1
1528440290927456,-2,0,-1,-1,-1,-1,-1,-2
1528440290933442,-2,0,-1,0,-1,-1,-1,1
1528440290933442,-3,-1,-1,1,-1,-1,0,-2
1528440290942418,-2,-1,0,-1,-1,0,-1,1
1528440290942418,-2,0,-1,-1,-1,-3,-1,1
1528440290956380,0,0,1,-1,0,-1,-1,-2
1528440290956380,0,-1,-3,-1,-2,-1,-1,0
1528440290965356,-1,0,0,0,0,-1,-2,-1
1528440290965356,-1,0,1,-1,0,-1,-1,-3
1528440290978322,0,-2,1,-1,0,1,0,-1
1528440290978322,-1,1,0,-1,-2,-1,-1,-1
1528440290987297,0,-2,-1,0,-1,1,0,-1
1528440290987297,0,2,0,1,-1,-3,-1,0
1528440290993281,0,-1,-1,0,-1,0,0,0
1528440290993281,0,0,0,0,0,1,0,-2
1528440291002257,0,-2,-1,-3,-2,-1,1,0
1528440291002257,-2,0,-2,0,-1,1,2,-1
1528440291016221,1,-1,-2,-1,0,-1,0,0
1528440291016221,-1,1,0,-1,-1,-1,-2,0
1528440291025197,0,-2,-1,-1,-1,-1,0,-1
1528440291025197,1,-2,-1,-2,0,1,-1,0
1528440291038162,-1,-3,-1,0,-1,0,0,0
1528440291038162,-1,-1,-2,0,-1,0,-1,0
1528440291047137,0,0,-1,0,0,-1,-1,-1
1528440291047137,1,0,0,-2,-4,-1,-3,-1
1528440291053120,0,0,0,0,1,-1,-2,1
1528440291053120,-2,-1,0,0,-1,-1,0,0
1528440291062096,-1,-1,-1,-2,-1,0,0,-1
1528440291062096,-2,-1,-1,0,2,-2,1,-1
1528440291076059,-1,0,-1,-1,-2,-1,0,-1
1528440291076059,-1,-1,3,-2,-2,-2,-2,0
1528440291085053,-2,0,-1,0,-1,-2,-1,-2
1528440291085053,-2,-2,-2,-1,0,0,-1,1
1528440291098001,-1,0,-1,0,-1,-1,-2,0
1528440291098001,2,-2,0,1,0,1,0,-1
1528440291106977,-2,-1,-1,1,-1,1,-1,-1
1528440291106977,0,-2,0,-2,0,0,-1,-1
1528440291112960,-1,0,-1,0,0,0,1,-1
1528440291112960,1,-1,0,-2,-2,-1,0,-1
1528440291122935,0,-1,0,1,-1,0,-1,1
1528440291122935,0,-1,-1,0,0,-2,0,0
1528440291135899,1,1,-1,0,0,0,0,-1
1528440291135899,0,0,-1,-1,1,-1,0,0
1528440291144876,-2,-2,0,0,1,-2,0,-1
1528440291144876,-2,-1,0,0,1,1,0,-1
1528440291158016,-1,-2,0,-1,-2,-1,-1,-1
1528440291158016,-1,-1,0,-1,-2,-1,-1,0
1528440291166988,0,-1,-2,-2,0,-1,0,-1
1528440291166988,-2,0,-1,0,0,-1,1,0
1528440291173019,-1,-1,-1,-1,0,0,-2,-1
1528440291173019,-1,0,-2,2,0,0,0,0
1528440291188932,1,-1,-1,1,0,-1,-2,1
1528440291188932,1,-2,-1,0,-1,0,-1,0
1528440291195950,1,-1,0,-1,0,-3,1,0
1528440291195950,0,-2,0,0,0,-1,0,1
1528440291204893,-2,0,-2,-2,-1,-1,1,-3
1528440291204893,0,1,0,-2,-2,1,-1,0
1528440291218849,1,0,0,0,0,1,0,0
1528440291218849,0,-2,-3,0,-1,1,-2,-1
1528440291227825,-1,-1,-2,0,-1,-2,-1,0
1528440291227825,-1,0,-1,0,0,0,0,-1
1528440291233809,-2,-1,-2,0,-1,-1,0,-1
1528440291233809,-2,0,1,-2,0,0,1,-2
1528440291248771,0,-1,0,0,0,0,0,1
1528440291248771,0,-1,0,-1,-1,-1,-1,-1
1528440291255751,0,-1,-1,0,-1,1,-1,-1
1528440291255751,-2,-1,-2,-1,-2,-1,0,-1
1528440291264727,2,-1,-3,-1,0,-1,-2,-1
1528440291264727,-1,0,-2,0,-2,1,-1,-1
1528440291278704,-2,0,0,-1,-2,-1,-1,-1
1528440291278704,-1,-1,0,-2,0,-1,0,0
1528440291287665,1,-1,1,-2,-1,0,1,0
1528440291287665,1,-3,-1,-1,-1,-1,-1,-1
1528440291293650,0,-1,0,-2,-1,-1,-1,-2
1528440291293650,0,-2,0,-1,-2,0,0,-2
1528440291308774,-1,-2,-1,0,0,0,1,1
1528440291308774,-1,1,0,-1,1,1,0,-1
1528440291315904,-3,-1,-4,0,-1,0,0,1
1528440291315904,0,-2,-1,-2,-1,-2,2,0
1528440291325053,0,1,0,1,0,-2,-3,-1
1528440291325053,-1,0,0,-3,0,-1,0,0
1528440291339043,0,0,0,0,0,-1,1,-1
1528440291339043,-1,0,-2,0,-1,-1,-1,0
1528440291346984,0,-2,-1,0,-1,-1,2,0
1528440291346984,-1,0,-1,0,0,0,-1,-3
1528440291354025,-2,-1,0,0,0,-1,-1,0
1528440291354025,-1,-1,-2,1,-1,1,-1,1
1528440291369021,0,1,2,-1,-1,0,0,0
1528440291369021,0,-1,0,-1,0,-2,-2,0
1528440291376006,0,0,0,0,-1,-1,-1,-1
1528440291376006,0,1,0,-2,0,0,-1,-1
1528440291384981,-3,-1,-1,-2,-1,-1,0,-2
1528440291384981,1,0,-1,0,-1,0,-2,0
1528440291397951,-1,-2,0,0,-1,-2,-2,-1
1528440291397951,1,0,-1,0,0,0,-1,0
1528440291407929,-1,2,-2,0,0,0,1,-2
1528440291407929,0,-1,0,-1,0,-3,0,0
1528440291413904,1,-2,-1,-1,0,0,-1,0
1528440291413904,-1,-1,-1,-1,-1,1,0,-2
1528440291429023,-2,-2,0,-1,-2,0,-1,0
1528440291429023,-1,0,0,1,-1,-1,0,1
1528440291445177,-1,1,-1,0,-2,0,0,-1
1528440291445177,-2,-2,-2,0,0,-1,-1,0
1528440291446170,1,0,0,-1,-1,1,-1,-1
1528440291446170,0,0,-1,-1,0,0,0,0
1528440291458124,-1,-1,1,-2,0,-1,-1,-1
1528440291458124,0,0,0,0,-2,-3,0,0
1528440291467099,1,-3,-1,-1,-2,-1,-1,-1
1528440291467099,-4,-1,0,-2,0,-1,2,-2
1528440291473140,-2,-1,0,-3,0,-2,0,-1
1528440291473140,-1,-2,-2,-1,-1,0,-1,-1
1528440291488245,-1,-1,-2,0,1,-1,-1,1
1528440291488245,0,0,0,1,-2,0,1,-1
1528440291496382,0,-1,-2,-1,-1,1,0,0
1528440291496382,-1,-1,-1,-2,-1,0,1,0
1528440291505202,-1,1,0,0,0,-1,-1,0
1528440291505202,1,0,1,0,-2,-1,-1,0
1528440291519087,1,0,-3,-1,-1,-2,2,-2
1528440291519087,0,-2,0,-1,-1,-1,-1,0
1528440291527238,0,-1,-2,-2,0,-4,0,0
1528440291527238,-3,-2,-1,-1,0,0,-3,0
1528440291542049,0,-2,0,0,-1,0,0,1
1528440291542049,-1,1,-1,0,0,0,-1,0
1528440291548150,1,0,1,1,1,1,-1,-1
1528440291548150,1,0,0,-1,-1,-2,2,-1
1528440291565186,-2,0,-2,-2,-1,-1,0,0
1528440291565186,-2,0,-1,0,0,0,0,-1
1528440291567041,-1,-1,-1,-1,-3,0,1,0
1528440291567041,1,-1,-2,-1,1,0,-1,0
1528440291579019,0,0,1,1,-1,1,-2,-2
1528440291579019,0,0,0,-2,-2,-1,-2,-1
1528440291587965,-1,0,-1,-1,-1,-1,-1,-1
1528440291587965,0,1,0,-1,0,-1,-1,-1
1528440291601930,0,-1,0,-1,1,0,1,0
1528440291601930,-2,-1,-1,0,-1,-2,-2,-2
1528440291608908,-1,-1,-1,0,-1,0,0,-1
1528440291608908,-1,-2,-1,1,-2,-2,0,-1
1528440291624882,0,-1,-1,-1,1,1,0,-1
1528440291624882,1,0,0,0,1,0,1,0
1528440291626860,0,0,0,-1,0,-1,-1,-2
1528440291626860,-1,0,-1,-1,-3,-1,1,0
1528440291638969,-2,-1,-2,-2,0,0,-1,0
1528440291638969,1,-1,-2,0,-1,-2,0,0
1528440291647804,-2,0,0,1,0,0,-1,-1
1528440291647804,0,1,-1,-1,-1,-1,0,-1
1528440291661795,-1,-2,0,0,-1,0,1,-1
1528440291661795,0,-3,0,0,2,0,-2,-1
1528440291668776,-1,-1,0,-1,-1,-2,-1,-1
1528440291668776,0,-3,1,1,-2,0,-2,-1
1528440291684877,1,0,0,2,-2,-1,-1,1
1528440291684877,0,0,0,-1,-2,0,0,-1
1528440291686725,-2,-1,-2,-1,-2,1,0,-1
1528440291686725,-1,0,-1,-1,0,0,-3,-1
1528440291699063,0,-1,-1,0,0,-1,-1,-4
1528440291699063,0,0,-1,0,1,2,-1,0
1528440291707875,0,0,-1,-1,0,-1,-1,0
1528440291707875,0,-3,0,-1,-1,0,0,0
1528440291722028,-1,0,1,1,-2,0,-2,0
1528440291722028,-2,-1,-1,-1,-1,-1,-1,0
1528440291728035,1,1,-2,-2,-1,-1,-1,-1
1528440291728035,-1,-1,-1,-1,2,-1,1,0
1528440291744987,-2,-2,0,0,-1,-2,0,-2
1528440291744987,-1,-3,0,0,0,0,1,0
1528440291745984,0,-1,0,0,-1,-1,-1,-1
1528440291745984,0,1,0,0,-1,1,0,-2
1528440291757954,2,1,-1,-2,-1,0,0,1
1528440291757954,-1,0,-3,-1,-2,0,0,0
1528440291766929,-1,-2,-2,0,-1,-2,-1,0
1528440291766929,0,-1,-1,1,-1,-1,0,-1
1528440291781925,0,-2,1,-2,-1,-1,0,-1
1528440291781925,-1,0,-1,-1,-1,-1,0,-1
1528440291788916,-1,-1,-2,-1,0,-1,-1,-1
1528440291788916,-1,-2,-1,0,-1,-2,0,-1
1528440291804827,-1,0,-1,1,-1,-1,1,-2
1528440291804827,-1,0,-1,0,0,0,1,1
1528440291806822,-1,0,0,0,0,0,-2,1
1528440291806822,0,-1,-1,-1,-2,-1,0,0
1528440291818790,1,-2,-1,-1,0,-1,-1,-1
1528440291818790,0,-1,-1,0,-1,0,0,-2
1528440291827766,0,-3,1,1,0,-1,1,-1
