timestamp,emg1,emg2,emg3,emg4,emg5,emg6,emg7,emg8
1529563575136358,-3,-2,-1,7,8,-4,-6,-2
1529563575136358,2,1,5,8,11,-4,-3,3
1529563575144337,-1,-2,-3,7,0,17,13,0
1529563575144337,2,-1,0,-2,12,19,1,1
1529563575159297,1,1,1,-5,-3,-11,-9,-4
1529563575159297,-4,-6,-14,-25,-31,-32,-15,-6
1529563575166278,-2,2,4,8,6,3,4,-1
1529563575166278,3,0,2,1,-11,-10,-4,0
1529563575181238,0,-1,2,-3,1,-1,-5,-3
1529563575181238,-3,-1,6,22,-18,-17,-9,-4
1529563575196198,1,1,-1,-6,-3,-20,-5,2
1529563575196198,-1,0,-6,1,30,39,13,2
1529563575204176,-2,-1,3,-17,-13,-2,-5,0
1529563575204176,-2,-3,-2,-2,-1,-11,-1,-1
1529563575219137,0,0,2,18,4,-18,-8,0
1529563575219137,-3,-6,-15,-36,-23,-11,-7,-6
1529563575226118,1,2,3,3,10,8,-2,-2
1529563575226118,0,-2,-3,11,-4,-16,-2,-2
1529563575241077,0,2,3,-8,12,18,10,3
1529563575241077,-1,-1,-1,19,10,4,-1,-4
1529563575256038,-1,0,6,9,9,0,-5,-1
1529563575256038,-2,-1,-1,-9,1,-10,-6,-2
1529563575264017,-1,-2,-6,-35,-14,-1,2,-1
1529563575264017,0,3,6,-9,5,7,4,3
1529563575278977,-3,-1,-3,30,11,7,0,-2
1529563575278977,-1,-6,-10,24,-16,-5,-4,-4
1529563575286955,-1,-4,-19,-62,-27,-17,-10,-3
1529563575286955,-4,-3,-8,-45,2,10,5,1
1529563575301915,-6,-5,3,71,33,-3,-3,-3
1529563575301915,-2,3,8,17,9,2,-2,0
1529563575308897,-3,-1,2,72,11,-4,2,-1
1529563575308897,-2,-1,-5,-24,-4,4,0,-2
1529563575323856,2,3,11,1,-13,-5,-1,3
1529563575323856,-2,-6,-13,-12,-19,-13,-7,-5
1529563575338817,0,-1,-2,-11,-21,-16,-2,-2
1529563575338817,-1,-2,2,18,20,17,8,2
1529563575346796,2,6,17,1,13,8,0,0
1529563575346796,-1,-3,-4,8,-8,-10,-6,-3
1529563575361755,-7,-6,-2,63,21,0,-4,-4
1529563575361755,-1,2,7,5,4,6,2,0
1529563575383697,-3,-4,-15,-29,-6,-8,-7,-1
1529563575383697,1,-2,0,28,-11,-6,2,1
1529563575391677,-3,-12,-30,-47,-7,-4,-1,-3
1529563575391677,-1,-3,-11,-45,-29,-2,-4,-1
1529563575406636,1,1,3,-7,8,12,7,3
1529563575406636,1,6,13,48,13,3,1,1
1529563575413616,2,0,3,45,26,18,10,5
1529563575413616,0,1,-7,-11,9,-16,-10,-7
1529563575428576,-2,0,-2,-38,-20,-9,-1,-2
1529563575428576,-2,2,3,24,10,4,0,1
1529563575443740,0,-3,-2,-1,3,15,8,3
1529563575443740,-2,-4,-2,-13,2,-4,-3,0
1529563575458872,3,0,1,-12,-6,7,4,2
1529563575458872,0,-1,-1,-15,3,-3,-3,-3
1529563575466912,-1,-2,2,17,-7,-14,-9,-5
1529563575466912,-1,0,5,34,24,8,4,1
1529563575481811,3,4,5,-4,-12,0,0,4
1529563575481811,0,-3,-4,-28,0,0,-2,-1
1529563575488961,-2,-1,-5,-16,-13,3,-2,-2
1529563575488961,0,-1,1,15,0,-16,-5,-2
1529563575511727,-1,0,1,-1,13,-7,-5,-3
1529563575511727,0,1,8,9,-15,-2,0,1
1529563575526716,0,1,1,7,5,-1,2,-1
1529563575526716,-6,-13,-21,-17,-11,-3,-6,-8
1529563575534692,-1,-1,1,-1,-15,-7,-6,-2
1529563575534692,1,5,5,-4,8,4,0,-1
1529563575548668,2,0,8,65,10,5,5,5
1529563575548668,0,3,6,-58,-18,-5,-3,0
1529563575556646,1,4,13,-12,8,3,3,1
1529563575556646,1,2,10,65,3,-1,-5,-3
1529563575563590,0,-3,-12,-25,18,4,0,1
1529563575563590,4,7,22,-71,-30,1,3,4
1529563575578597,-6,-7,-4,29,7,-9,-4,-4
1529563575578597,-2,-5,-14,-27,-11,-1,-1,-1
1529563575586531,-2,0,-3,-11,-16,-10,-6,-5
1529563575586531,0,1,11,109,25,7,1,1
1529563575602059,-2,-1,-4,-67,-11,2,-2,-2
1529563575602059,3,6,4,-41,-14,-10,-4,-3
1529563575608886,-7,-7,15,82,22,-3,-4,-5
1529563575608886,0,-6,-26,-18,2,-1,-4,-1
1529563575624006,2,2,2,75,-3,14,10,5
1529563575624006,-4,-12,-27,-61,5,-5,-3,-4
1529563575638959,-7,-10,-6,-77,-8,-4,-6,-6
1529563575638959,-3,-1,-2,-4,-8,-17,-12,-8
1529563575646938,-1,-1,2,17,-5,0,3,0
1529563575646938,-1,2,9,35,20,12,6,2
1529563575661721,2,3,-1,-4,5,6,1,2
1529563575661721,3,0,2,-2,-27,-16,-2,0
1529563575668702,-1,-4,-8,-38,14,6,-1,-1
1529563575668702,-2,-3,2,13,13,-8,-3,-3
1529563575684031,0,6,-4,-29,35,6,4,2
1529563575684031,-3,-11,-13,-61,-44,9,-2,-3
1529563575698623,-3,-1,2,35,11,-1,-2,-2
1529563575698623,2,0,9,31,18,-6,2,0
1529563575707320,-3,-8,-15,-22,-6,-20,-8,-5
1529563575707320,-4,1,-4,-22,-58,-2,5,5
1529563575722266,-1,3,10,33,37,16,-3,-4
1529563575722266,-1,3,9,-9,-11,-3,-3,-2
1529563575729387,2,1,5,-14,6,7,5,2
1529563575729387,0,-3,-9,3,16,-10,-4,-2
1529563575744578,-1,-2,-12,-42,14,-1,-5,-3
1529563575744578,1,1,3,21,9,3,1,2
1529563575758538,0,3,6,2,6,4,3,1
1529563575758538,-1,-2,-6,-7,11,5,-1,-1
1529563575766934,0,4,17,2,-33,-9,-3,-1
1529563575766934,3,10,36,20,12,0,0,-2
1529563575781655,-11,-23,-91,-55,-20,-13,-7,-8
1529563575781655,1,-1,-4,-22,5,5,1,3
1529563575789582,-2,-4,-6,78,-5,0,-2,-1
1529563575789582,6,8,9,-84,-6,6,3,3
1529563575804595,2,1,-3,-93,-52,0,5,3
1529563575804595,3,7,15,61,23,0,2,1
1529563575819434,-1,-3,2,1,5,0,0,0
1529563575819434,-4,-8,-20,25,1,3,-2,1
1529563575826653,-2,-1,14,26,26,0,-1,0
1529563575826653,-2,-4,-13,11,-5,-5,-1,-4
1529563575841627,2,-1,-1,-27,-8,13,10,5
1529563575841627,-1,0,9,18,12,-1,-1,2
1529563575848880,-1,0,-18,-50,-27,-3,-12,-8
1529563575848880,-4,-3,-6,5,-8,-10,2,-2
1529563575863869,4,4,10,-30,0,-1,-8,-1
1529563575863869,0,4,6,-14,-5,-2,-2,-5
1529563575871571,3,4,9,30,1,0,4,6
1529563575871571,-3,-8,-26,-27,2,-5,-8,-5
1529563575886530,-1,4,1,-3,7,9,-4,-2
1529563575886530,-3,-10,-8,5,14,2,1,-2
1529563575901455,-1,2,5,-22,16,11,2,-2
1529563575901455,-1,-3,-5,-4,-36,-8,-4,-4
1529563575909434,-3,-3,-2,3,-1,-4,-4,-2
1529563575909434,-1,0,1,4,-5,-7,-3,1
1529563575924395,1,1,5,3,-15,-1,1,2
1529563575924395,0,6,20,7,15,2,1,0
1529563575931376,-2,-4,-20,-2,-18,-11,-1,-4
1529563575931376,-1,-6,-24,-18,27,18,1,2
1529563575946336,3,6,33,57,10,-8,1,2
1529563575946336,1,2,-1,6,-11,2,1,0
1529563575961298,-7,-15,-29,38,6,-7,-2,-6
1529563575961298,4,7,7,-17,-14,2,2,2
1529563575969276,0,-4,-9,6,4,6,5,-1
1529563575969276,-4,1,8,59,15,-9,-10,-5
1529563575984234,-1,-5,-16,-100,-33,-5,-2,-1
1529563575984234,0,4,18,77,25,0,-1,0
1529563575991216,-5,-3,-7,7,-12,-7,-8,-5
1529563575991216,5,6,4,-50,-22,10,9,4
1529563576006209,-3,0,13,37,32,-5,-5,-5
1529563576006209,-4,-4,-12,-2,0,0,1,-1
1529563576014188,-2,-2,-6,-65,-15,-5,-3,-1
1529563576014188,3,0,2,41,6,-7,-1,-1
1529563576029147,2,2,6,-2,-1,-6,-4,-1
1529563576029147,-8,-9,-3,11,7,1,1,-2
1529563576044103,2,1,-2,-7,-3,5,1,2
1529563576044103,0,4,10,33,14,-2,-4,0
1529563576051098,-2,-4,-10,-23,-7,0,1,-1
1529563576051098,-3,-2,-3,-20,-31,-26,-8,-7
1529563576066056,0,1,2,15,31,20,4,-1
1529563576066056,-2,-3,-2,-10,10,7,2,3
1529563576074020,-2,-3,-4,9,6,-5,-4,-3
1529563576074020,-1,0,1,-18,-23,-6,-4,-1
1529563576089001,-2,-6,-11,-23,-17,11,4,4
1529563576089001,-1,3,10,21,27,7,2,-1
1529563576103964,0,1,9,44,-3,-6,-2,-1
1529563576103964,-3,-8,-28,-97,-30,-11,-6,-4
1529563576111939,1,-1,6,19,7,-4,2,1
1529563576111939,1,-1,1,48,-10,-12,-1,1
1529563576126856,4,6,11,-34,-20,12,9,3
1529563576126856,-8,-10,-20,-23,2,-20,-15,-8
1529563576141813,-2,0,-11,-1,-5,-10,-1,-1
1529563576141813,1,2,14,39,8,-1,1,2
1529563576148841,2,4,9,-22,-3,1,1,0
1529563576148841,2,1,5,12,2,11,4,1
1529563576163801,2,5,2,-21,-24,-7,-1,0
1529563576163801,-3,-5,-4,4,27,3,0,0
1529563576171780,-3,-4,-3,47,13,-10,-7,-4
1529563576171780,-1,0,2,-11,2,9,0,0
1529563576186743,-2,-5,-3,6,5,-2,-1,-1
1529563576186743,-1,-2,-3,-3,1,-2,-2,-2
1529563576201700,0,-3,-1,-26,-15,-6,-2,-2
1529563576201700,-2,2,7,7,1,-4,-1,0
1529563576208635,-3,-5,-5,20,-4,-7,-4,0
1529563576208635,-1,-2,-4,-36,11,10,2,-1
1529563576223641,-1,0,-3,1,-19,-7,-2,-3
1529563576223641,1,0,6,21,6,-10,-6,-5
1529563576231620,-3,-4,-10,1,-6,-2,3,0
1529563576231620,-1,0,-3,-23,-7,6,2,2
1529563576246582,1,6,14,-8,2,-1,-1,-2
1529563576246582,-2,-7,-18,0,-16,-11,-6,-6
1529563576261540,-1,-2,-5,20,12,5,2,3
1529563576261540,-1,1,-1,12,-15,-5,-3,-1
1529563576269483,0,0,-2,-52,0,3,0,-2
1529563576269483,-1,0,2,9,0,-3,-2,0
1529563576283436,1,2,5,3,-5,-3,-2,-2
1529563576283436,-1,-1,1,50,6,-4,-5,-3
1529563576291472,-4,-10,-31,-73,-5,15,7,4
1529563576291472,1,3,4,40,9,3,1,0
1529563576306423,-1,1,3,25,-10,-5,-2,0
1529563576306423,3,3,5,-94,-6,5,3,2
1529563576314401,-3,-1,3,50,27,-10,-10,-6
1529563576314401,-2,-2,-2,-24,-13,1,6,5
1529563576329343,-1,-1,-2,7,-11,-6,-5,-2
1529563576329343,-1,-2,-9,-27,2,-1,-2,-3
1529563576344307,-2,-2,-3,14,-3,0,0,0
1529563576344307,0,-2,-3,-16,-5,2,1,0
1529563576351284,0,-2,-2,-5,-10,-3,-2,0
1529563576351284,0,-1,-6,18,0,-4,-4,-3
1529563576366246,-2,-3,-6,-24,-3,-4,-2,-2
1529563576366246,-3,-4,-8,-12,4,3,1,-1
1529563576374421,0,3,8,37,1,-3,-3,0
1529563576374421,-1,1,7,-39,-5,2,2,1
1529563576389580,-3,-5,-9,-12,2,3,1,-2
1529563576389580,0,0,4,-7,-14,-6,-2,-3
1529563576404344,-1,-4,-2,13,17,17,3,0
1529563576404344,-1,1,7,-22,-7,-9,-5,-2
1529563576411325,0,-1,-5,-16,1,4,2,2
1529563576411325,-1,-3,-2,45,1,-5,-2,1
1529563576434290,0,-2,-2,-22,4,0,0,1
1529563576434290,0,-1,-1,22,-12,-4,-2,-1
1529563576441245,-3,-5,-12,-6,16,2,-5,-6
1529563576441245,-1,1,2,-30,-7,0,1,1
1529563576457217,2,4,9,6,1,-6,-2,-2
1529563576457217,-2,-2,-2,27,5,-1,-1,-3
1529563576472189,0,-1,-3,0,-14,2,1,1
1529563576472189,-1,-1,1,7,15,3,0,-2
1529563576486813,0,4,0,16,-12,-5,-2,-1
1529563576486813,0,-2,-1,-10,12,10,5,3
1529563576494675,-2,1,4,-6,-8,-9,-2,0
1529563576494675,-1,0,-2,-21,-5,-2,-3,1
1529563576508639,-1,-2,0,29,-4,-10,-6,-3
1529563576508639,0,-2,-1,-19,5,12,3,2
1529563576523951,-1,-1,5,11,0,-3,-1,-1
1529563576523951,0,2,-1,-3,-2,1,1,0
1529563576531534,-1,2,5,21,-3,-4,-2,-2
1529563576531534,-2,-2,-5,18,-2,-2,-2,-2
1529563576547236,0,1,5,-8,0,-1,-2,0
1529563576547236,-2,-2,-2,15,0,-3,-4,-3
1529563576554354,1,-2,-2,1,-7,-3,-1,-1
1529563576554354,-1,-3,2,-14,-2,3,3,1
1529563576569138,-2,-2,-6,-23,-2,0,0,-1
1529563576569138,1,1,1,3,-7,-5,-1,-2
1529563576584124,-3,-4,-13,-1,1,-2,1,-1
1529563576584124,0,-1,2,-3,-1,-3,-2,-2
1529563576591255,-1,-1,0,22,4,4,4,-1
1529563576591255,0,1,0,0,-5,-2,-2,-2
1529563576607037,-1,0,1,-9,-1,-2,-1,-1
1529563576607037,-1,-1,-4,-42,-8,-4,-2,0
1529563576614018,-1,0,-1,9,3,2,-1,1
1529563576614018,-2,1,2,-4,-2,-1,0,0
1529563576628975,0,-2,-1,10,1,0,-1,0
1529563576628975,-2,-2,-4,-21,-4,-5,-4,-2
1529563576644508,-1,-1,0,11,3,0,0,-2
1529563576644508,1,0,-3,-12,-5,0,-1,0
1529563576651721,-2,-2,-5,-3,-4,-2,-1,-2
1529563576651721,-1,1,3,18,7,3,-2,-1
1529563576667095,0,-2,-4,-16,-8,0,-1,-1
1529563576667095,-1,1,4,7,3,0,0,-1
1529563576674254,-1,-1,-1,8,2,1,-1,-1
1529563576674254,0,-1,-2,-13,-7,-3,-1,-1
1529563576689385,-2,2,1,-5,2,-1,-1,0
1529563576689385,-1,-1,-1,-5,-4,-4,-2,-1
1529563576704235,0,-1,-1,-10,-6,1,1,0
1529563576704235,-1,-2,-2,11,9,2,-1,-1
1529563576719350,-1,0,-4,-11,-6,-6,-1,-2
1529563576719350,-2,-4,0,13,10,9,1,1
1529563576726166,-2,-1,-3,-12,-6,-2,0,-3
1529563576726166,-2,9,9,-3,1,-6,-3,-4
1529563576741167,1,-5,6,-4,-2,-4,-4,-3
1529563576741167,2,-8,-11,39,-7,1,1,1
1529563576756209,-1,-4,6,-11,0,-3,-1,-2
1529563576756209,0,0,-6,4,3,-4,-3,-1
1529563576764267,-2,-5,7,19,-1,4,1,1
1529563576764267,2,10,5,10,-2,-1,-2,-2
1529563576779292,-2,-3,7,3,3,4,1,0
1529563576779292,-3,-1,-24,-19,-1,-3,-5,-4
1529563576786128,-1,3,2,-3,-1,-3,-3,-1
1529563576786128,0,2,6,-5,-2,-4,-2,-2
1529563576802119,-1,2,-3,8,1,0,0,-2
1529563576802119,1,2,5,-13,-4,2,3,0
1529563576817046,0,2,-2,2,-6,-4,-3,-1
1529563576817046,-3,-2,6,-11,1,1,1,2
1529563576824068,-2,-2,-4,2,0,0,-1,-3
1529563576824068,-1,1,1,2,0,1,-1,-1
1529563576839154,1,0,-7,-4,-1,1,-1,-1
1529563576839154,-1,1,6,-6,-3,-5,-3,-2
1529563576846969,0,-3,-1,7,-1,0,0,0
1529563576846969,2,-1,-2,-5,-2,3,3,0
1529563576861955,-1,-3,-2,1,2,0,0,1
1529563576861955,1,0,2,-2,0,0,0,-1
1529563576877012,-2,-2,-3,-2,0,2,1,0
1529563576877012,-1,2,6,0,-1,-3,-2,-3
1529563576883998,-2,-4,-3,-2,0,-2,-1,-1
1529563576883998,-1,0,2,-4,-2,-1,-1,-2
1529563576898959,-1,0,-1,0,-3,-3,-3,-4
1529563576898959,-1,-3,1,-1,1,-1,-1,-2
1529563576907154,-4,1,-1,1,-1,-4,-4,-1
1529563576907154,-1,-2,1,0,-1,0,-4,0
1529563576922232,-1,-6,-2,0,1,2,-1,1
1529563576922232,-1,-1,0,-6,-5,-3,-4,-3
1529563576936385,0,1,-3,-1,3,6,3,3
1529563576936385,1,3,4,-3,-2,-2,-3,-1
1529563576944319,-1,-3,1,3,-2,-2,0,0
1529563576944319,-2,0,-4,-3,-4,-2,-2,-3
1529563576959358,-3,1,2,-3,-2,-4,-3,-2
1529563576959358,-1,-2,0,0,0,-1,0,1
1529563576966747,2,6,2,-3,-5,-3,-5,-2
1529563576966747,-1,-2,2,0,0,-2,-1,-2
1529563576981887,2,-5,-9,1,2,2,1,1
1529563576981887,-2,-7,-4,0,-2,-2,1,1
1529563576996844,0,-8,0,1,1,1,1,0
1529563576996844,-2,-1,0,-2,-3,-2,-3,-3
1529563577003865,-1,-3,-3,-1,0,-2,-3,-1
1529563577003865,-1,-2,-2,-3,-2,-5,-2,1
1529563577018959,0,4,-1,-2,-1,-1,-2,-1
1529563577018959,-3,2,-1,-4,-4,-4,-1,0
1529563577026763,-1,-3,-2,1,0,0,1,1
1529563577026763,-3,-2,-3,-3,-1,-2,-1,-1
1529563577041724,1,4,-3,-1,0,-3,-3,-1
1529563577041724,-1,-2,-1,-7,-4,-1,-2,-2
1529563577057184,1,0,-1,-2,-2,0,1,-1
1529563577057184,-2,1,-1,-1,1,-1,0,0
1529563577064191,-1,-1,-1,0,1,1,-1,0
1529563577064191,0,-1,-2,2,-2,-1,-2,-1
1529563577079385,-3,-1,2,-3,-2,-2,-1,-1
1529563577079385,0,1,1,0,-1,-2,-2,0
1529563577086597,-1,-1,-1,0,1,1,1,0
1529563577086597,1,-2,-1,-1,-3,-4,-4,-2
1529563577102186,-1,-1,-1,-1,0,0,0,-2
1529563577102186,1,-1,-1,0,0,0,1,1
1529563577116192,-2,0,-1,-1,-1,-1,-2,-2
1529563577116192,-2,-1,0,0,-2,-3,-1,-2
1529563577124131,-1,-2,0,-2,0,-1,0,0
1529563577124131,-1,-3,-1,-1,-2,0,-1,0
1529563577139094,0,-4,-1,1,-2,-3,-2,-1
1529563577139094,0,0,-2,1,0,0,-2,0
1529563577147186,-1,0,0,-1,0,1,-2,-1
1529563577147186,-1,0,-4,-3,1,1,0,-1
1529563577162032,-2,1,0,0,-2,-2,0,1
1529563577162032,-1,0,-3,-1,-1,-1,-1,-2
1529563577177387,-2,1,1,-2,0,-1,-1,-1
1529563577177387,1,2,0,-1,-2,-2,-1,-2
1529563577184460,0,-1,1,-1,0,-1,0,1
1529563577184460,-1,0,0,-1,0,-1,-2,-3
1529563577199574,-1,0,-1,-2,-1,0,-1,-1
1529563577199574,-2,-2,0,-2,-1,-1,-1,0
1529563577206568,0,-1,-1,0,0,0,0,-2
1529563577206568,-1,-2,0,0,-2,-1,-2,0
1529563577221361,-2,-3,-3,0,-1,-1,0,-2
1529563577221361,-3,-1,-3,1,-1,0,-1,-1
1529563577236322,3,0,-1,0,0,0,-3,-1
1529563577236322,-3,-2,-1,-2,-2,-2,-1,-2
1529563577244301,0,-2,-3,-1,-1,0,-2,-2
1529563577244301,-3,-1,-2,-1,-2,-1,-1,-2
1529563577259260,-3,0,-1,0,-2,-2,-1,-1
1529563577259260,0,-2,-1,-2,0,-1,0,0
1529563577266244,-2,-2,-2,-2,-1,-1,-1,-2
1529563577266244,-1,-1,0,-2,0,-1,-1,-2
1529563577281367,-1,-1,0,0,-1,-1,-2,-2
1529563577281367,-1,-2,0,0,0,-1,1,0
1529563577296341,0,0,0,-1,-2,-1,-2,-1
1529563577296341,-2,2,-1,-1,0,1,-2,0
1529563577304320,0,0,-2,0,-1,0,0,-1
1529563577304320,0,0,-1,-1,-2,-1,-1,1
1529563577319449,-2,-2,-1,-1,-1,-1,0,0
