timestamp,emg1,emg2,emg3,emg4,emg5,emg6,emg7,emg8
1529287854190600,8,13,25,39,16,3,4,0
1529287854190600,7,39,57,28,10,4,5,5
1529287854190600,-2,0,7,-3,-15,-2,1,3
1529287854190600,1,-5,3,-2,2,0,-2,3
1529287854191597,-5,-14,-27,-21,-5,3,-1,0
1529287854191597,-10,-16,-23,-11,-3,-2,-3,-6
1529287854193592,-5,5,6,-1,-1,-6,-6,-6
1529287854193592,-2,0,-7,-7,-6,-6,-3,-4
1529287854213538,-15,-31,-22,-30,-19,-13,-11,-11
1529287854213538,7,12,-1,0,1,3,4,0
1529287854215533,10,24,52,48,30,17,14,7
1529287854215533,5,-9,-28,-16,2,1,5,6
1529287854219525,2,7,5,10,-2,2,1,-1
1529287854219525,1,-7,-7,-9,-10,3,0,2
1529287854233487,-3,-3,-13,-2,1,-5,-9,-5
1529287854233487,10,20,13,-1,-6,-3,-3,3
1529287854245458,0,-5,0,-5,-3,-5,0,0
1529287854245458,3,-10,-29,-19,-11,-5,-4,-2
1529287854249470,2,7,11,9,1,9,5,1
1529287854249470,-4,-2,5,20,19,12,5,2
1529287854264404,-4,-4,-15,-31,-18,-11,-6,1
1529287854264404,-4,-2,-9,-7,-16,-11,-1,1
1529287854272381,-1,4,5,-1,4,-2,-1,1
1529287854272381,-12,-6,6,-8,-13,-7,-6,-6
1529287854311284,1,2,-4,4,-4,-7,-2,-3
1529287854311284,5,4,7,7,-4,-2,3,0
1529287854313273,2,-7,-7,-4,0,0,1,-1
1529287854313273,4,0,9,15,9,7,4,3
1529287854314269,-5,-13,-17,-12,-8,-3,-4,-6
1529287854314269,7,6,-8,-1,7,8,2,2
1529287854316264,-3,1,-2,0,-5,-2,2,-1
1529287854316264,-1,-7,-11,-13,-19,-13,-5,-4
1529287854324243,-1,-2,3,0,5,8,3,2
1529287854324243,-12,-15,-15,-19,-15,-9,-7,-1
1529287854330230,5,19,31,23,15,4,2,5
1529287854330230,-4,0,4,7,16,-1,-3,-6
1529287854339204,1,4,3,-11,-15,-8,-5,-5
1529287854339204,13,23,27,14,12,10,2,-2
1529287854353168,3,-17,-18,-11,-9,1,0,-4
1529287854353168,2,4,-3,-5,-7,0,4,0
1529287854362143,-6,-8,1,7,5,-1,0,1
1529287854362143,0,0,-10,-5,2,0,0,3
1529287854369125,-8,-6,-6,-1,-2,-4,-7,-3
1529287854369125,-2,-2,-5,-10,-2,-3,-3,0
1529287854385080,4,10,18,17,15,8,1,7
1529287854385080,-6,-11,-2,-1,6,6,4,1
1529287854391065,-2,-9,1,1,-10,-4,4,2
1529287854391065,3,8,-6,-2,0,1,2,1
1529287854406024,-6,2,2,-4,-4,-11,-1,-2
1529287854406024,-3,-3,-5,9,3,-8,-2,-2
1529287854413006,-2,4,-2,-6,-3,0,-2,1
1529287854413006,-6,-17,-13,-8,-5,-2,-1,-4
1529287854422981,12,20,16,13,1,5,1,4
1529287854422981,-5,-10,-13,-23,-24,-8,-4,-5
1529287854427966,2,3,4,3,4,1,3,-1
1529287854427966,2,5,10,12,1,2,4,0
1529287854444921,-3,-6,-10,9,8,7,5,-1
1529287854444921,-5,3,3,-14,-11,-14,-8,-4
1529287854450903,-7,-6,-10,-14,-5,-2,-3,-3
1529287854450903,-2,-1,5,6,6,5,-1,-2
1529287854459880,-6,-8,0,-2,1,0,-2,-7
1529287854459880,8,8,4,5,6,5,1,1
1529287854472846,-6,-7,-9,-12,-1,-3,-3,-5
1529287854472846,2,2,3,-1,3,1,-2,7
1529287854489800,-4,-9,-11,-13,-5,-8,-1,-1
1529287854489800,-10,-16,-5,7,-2,-9,-3,-5
1529287854490797,11,20,12,14,13,8,13,0
1529287854490797,0,1,-3,-5,0,1,1,-3
1529287854504761,-3,-4,-14,-11,-3,5,0,3
1529287854504761,-3,0,3,2,-1,-4,-7,-1
1529287854510745,-1,2,-4,0,3,2,-8,-2
1529287854510745,-1,10,10,9,4,1,-3,3
1529287854519721,0,-3,-4,-10,-3,-5,-4,1
1529287854519721,0,-3,0,6,9,6,7,2
1529287854532685,4,-1,4,-3,-4,1,3,2
1529287854532685,-1,-9,-4,-11,-9,-5,-3,-1
1529287854541661,3,4,4,6,-2,-3,-5,-3
1529287854541661,5,6,8,6,5,2,-2,-1
1529287854547645,-2,-4,-6,-3,-7,-6,-4,0
1529287854547645,-3,-10,-11,-16,1,5,0,0
1529287854564601,4,-3,15,18,6,4,0,-1
1529287854564601,-5,-5,-7,-8,-3,-4,2,-3
1529287854570587,-1,-3,-7,-7,-3,-7,0,-2
1529287854570587,-3,-7,-9,1,-7,-13,-7,-9
1529287854579560,3,7,-3,-2,0,8,12,2
1529287854579560,5,4,5,10,3,5,-1,-3
1529287854593523,0,-10,0,-7,-8,-1,-4,-2
1529287854593523,-1,5,6,-3,-1,-2,-8,-4
1529287854602498,-3,2,3,6,5,-3,-1,1
1529287854602498,-3,-6,0,6,3,-4,-1,5
1529287854615463,10,9,-8,-1,-4,-5,4,2
1529287854615463,15,22,12,13,1,3,3,2
1529287854624440,1,0,-1,-5,-7,-2,0,2
1529287854624440,-5,-2,-3,-5,-7,-3,-3,-4
1529287854630423,5,17,7,-17,-17,2,0,1
1529287854630423,-9,-5,2,13,5,-1,-4,-5
1529287854639400,-5,-10,3,7,-2,-5,-5,-7
1529287854639400,1,4,1,-14,-6,-1,-3,0
1529287854653363,-8,-13,-1,5,5,0,-3,-1
1529287854653363,-5,-3,-6,-5,-3,3,3,2
1529287854662338,-4,-3,-10,-15,-4,-5,-1,-4
1529287854662338,0,0,0,9,6,2,5,0
1529287854675303,-3,0,2,-2,1,-4,-3,-2
1529287854675303,0,-2,0,0,-3,-3,1,2
1529287854684280,-4,-4,-1,2,-4,0,0,-2
1529287854684280,-2,-3,-5,-3,-3,1,-2,-4
1529287854690263,-1,10,6,9,7,1,-3,-1
1529287854690263,0,-1,2,-4,-1,-1,-1,1
1529287854699239,1,-4,-10,-5,-2,-3,-3,-4
1529287854699239,-1,-10,-12,-14,-13,2,2,5
1529287854713202,-4,0,6,18,16,6,2,1
1529287854713202,-4,-3,4,2,5,0,4,0
1529287854722178,-4,-2,3,-1,-2,-1,0,-4
1529287854722178,3,7,7,1,4,-1,4,-3
1529287854735144,-1,-9,-6,0,1,-3,-3,-4
1529287854735144,0,-2,-7,-3,-2,2,2,1
1529287854745117,11,9,0,-2,1,4,-2,2
1529287854745117,1,6,5,6,8,3,-2,0
1529287854751100,6,2,-7,-4,2,2,-1,1
1529287854751100,3,4,-2,-6,-6,-5,2,1
1529287854767058,-3,-4,-3,0,-3,-2,-4,-1
1529287854767058,-1,-6,-3,-2,-1,4,0,2
1529287854773042,2,5,5,8,4,2,5,4
1529287854773042,3,7,4,1,3,2,-3,6
1529287854782018,-1,-3,-1,-3,0,-2,2,2
1529287854782018,3,6,5,8,4,-2,-3,-2
1529287854795981,-1,-7,-7,-13,-9,0,-6,-2
1529287854795981,6,6,-2,0,1,1,7,1
1529287854804958,2,7,10,-1,2,0,-1,0
1529287854804958,-4,-7,-6,-7,-7,-6,4,-6
1529287854810941,-2,-4,-1,-4,-6,-6,-6,-4
1529287854810941,-1,-3,9,9,1,2,-2,-5
1529287854819917,-2,-1,-1,6,12,4,-3,2
1529287854819917,2,7,-1,-18,-17,-6,-5,1
1529287854832883,-2,-2,-6,1,-3,-1,2,1
1529287854832883,-1,-8,-3,-4,-3,-2,-3,-2
1529287854841858,-3,-9,-15,-13,-1,1,2,-3
1529287854841858,-1,-5,7,15,14,4,-5,-4
1529287854855820,-1,4,3,0,-3,-1,-7,-2
1529287854855820,-3,-2,-1,-3,0,1,1,0
1529287854862802,2,3,-3,-4,-3,-3,1,1
1529287854862802,-6,-12,-8,2,0,-7,-2,3
1529287854870781,2,0,-1,0,-1,-2,3,5
1529287854870781,4,1,-1,5,6,1,1,-3
1529287854879757,-6,-3,-3,-4,-8,3,-5,-4
1529287854879757,0,4,0,1,1,5,8,1
1529287854892722,-8,-6,2,2,3,3,3,-1
1529287854892722,3,0,3,-2,-2,-2,0,-1
1529287854901699,3,1,-1,-7,-6,-6,0,-3
1529287854901699,5,0,2,4,7,4,-2,-4
1529287854916659,0,2,-2,8,3,1,0,-7
1529287854916659,-3,0,-9,-3,-1,-4,-3,-2
1529287854922642,-2,0,-1,0,-4,2,0,2
1529287854922642,1,8,6,-3,-9,-3,-8,2
1529287854930621,-3,4,10,-4,-4,-2,-3,3
1529287854930621,4,-2,6,9,1,-3,-3,0
1529287854945581,1,2,2,3,6,0,3,3
1529287854945581,-3,-9,-10,-13,-10,-1,0,0
1529287854953593,-2,-5,-1,14,13,2,-2,0
1529287854953593,-5,-1,-4,-4,-1,-3,-3,-4
1529287854962535,2,-1,-1,16,5,-1,-3,2
1529287854962535,6,9,0,-11,-9,-4,1,6
1529287854976499,-4,-14,-23,-13,-6,-4,-5,-4
1529287854976499,-4,-2,0,-9,-10,-3,-4,-1
1529287854983479,10,23,24,8,6,0,2,-1
1529287854983479,-6,-6,-1,-8,-3,2,-4,-4
1529287854990461,5,8,6,4,-1,3,1,1
1529287854990461,-8,-14,-12,-11,-5,0,-2,-3
1529287855005458,-12,-13,-10,-4,2,3,0,-4
1529287855005458,5,3,-3,6,3,4,1,-2
1529287855013401,-7,-7,-4,-7,-4,-1,-1,-8
1529287855013401,7,10,3,3,9,8,4,1
1529287855022377,-4,-3,2,-2,-3,-7,-2,-2
1529287855022377,-9,-5,-3,2,2,-5,-4,-2
1529287855044319,1,10,3,3,3,2,1,2
1529287855044319,1,-5,10,7,3,-4,-2,3
1529287855046345,3,-3,1,-7,-20,-5,-1,5
1529287855046345,1,-9,-6,9,7,6,4,7
1529287855050302,4,-3,-1,4,0,-5,-4,1
1529287855050302,-6,-3,-4,1,-1,-5,-1,3
1529287855065497,-1,0,-5,1,-1,-4,-1,0
1529287855065497,-10,5,-2,-4,-6,-9,-5,-7
1529287855073739,-9,5,6,7,-1,5,5,-4
1529287855073739,-15,-12,-5,-5,-9,-5,-1,-9
1529287855082642,3,9,-2,-5,-5,-1,2,-3
1529287855082642,8,5,2,6,11,3,2,-3
1529287855104769,7,-2,-4,-9,-5,-1,-1,3
1529287855104769,5,-7,-8,-10,-2,2,0,-1
1529287855106579,10,3,2,1,1,3,1,6
1529287855106579,0,-10,-4,6,2,-1,-3,1
1529287855110568,3,6,20,19,26,15,9,5
1529287855110568,-8,-4,3,2,4,0,-4,-3
1529287855126197,-1,0,7,-1,7,0,-1,-5
1529287855126197,6,-1,-13,-16,-5,-5,-2,-2
1529287855133371,-3,-9,-14,-14,-11,-5,-8,-5
1529287855133371,7,6,-8,-5,-3,2,-2,-3
1529287855142157,-3,-4,2,7,9,-2,-5,-4
1529287855142157,3,4,2,-3,-10,-5,0,-2
1529287855156156,2,5,6,6,5,4,0,-1
1529287855156156,-3,5,-2,1,-1,5,2,1
1529287855163103,-11,-11,-11,-5,-2,-1,-6,0
1529287855163103,-2,2,3,6,7,5,-2,1
1529287855171094,-1,-4,-1,-3,-6,-8,-6,3
1529287855171094,-3,-9,-11,-4,-12,-7,-6,0
1529287855186193,1,0,-4,-7,1,2,3,2
1529287855186193,2,3,13,8,-10,-3,4,-2
1529287855193281,1,-1,-4,-15,0,1,4,0
1529287855193281,-1,4,0,12,5,1,2,2
1529287855202155,1,2,-2,4,-1,-6,-1,-1
1529287855202155,0,8,0,-1,5,6,5,2
1529287855216292,-7,-9,-3,8,-2,-5,-7,-4
1529287855216292,7,9,-3,-15,-9,-5,-5,-1
1529287855223275,6,4,6,3,6,5,-5,-1
1529287855223275,-1,-4,6,5,1,-2,-7,-6
1529287855239230,-13,-13,-11,-15,-18,-13,-3,-4
1529287855239230,8,15,20,28,15,9,8,5
1529287855245214,-3,-3,0,-2,3,4,3,-4
1529287855245214,0,-3,-7,-12,-4,1,-1,2
1529287855253569,-4,-6,2,6,3,-3,-1,-3
1529287855253569,0,-2,7,8,7,0,1,-3
1529287855269491,2,2,-4,-17,-13,-4,-4,-2
1529287855269491,-7,-10,-1,2,10,7,-3,-3
1529287855276312,6,10,8,-3,-2,1,1,1
1529287855276312,-5,-9,-7,-13,-9,-5,-4,-3
1529287855283114,5,5,3,9,-6,-3,-1,1
1529287855283114,-7,-8,-7,-12,-1,1,0,0
1529287855299318,5,2,0,14,4,1,0,3
1529287855299318,-5,-8,-5,-3,-2,-6,-2,-4
1529287855306326,0,2,-7,-7,0,-1,2,0
1529287855306326,-1,10,6,9,-3,-5,0,-3
1529287855322439,1,-1,-8,-3,-1,0,2,0
1529287855322439,1,-7,-4,-3,1,-2,1,-1
1529287855324259,-5,-2,6,9,7,3,-5,0
1529287855324259,-3,-3,-1,3,-3,-5,-8,2
1529287855335222,1,-1,2,-6,2,3,1,3
1529287855335222,-3,-8,-8,-6,-5,2,0,-4
1529287855352365,11,12,5,1,-3,7,9,2
1529287855352365,1,7,5,-2,1,3,2,-2
1529287855358744,0,8,4,9,11,2,-1,-2
1529287855358744,-3,5,-3,-3,-6,-3,-4,5
1529287855365543,-10,-2,-6,1,-2,-5,-1,-4
1529287855365543,3,4,-7,-3,-8,-3,3,0
1529287855381755,-5,-10,-5,-3,-3,-2,-1,-7
1529287855381755,10,14,7,-5,1,6,1,4
1529287855383714,0,-3,1,6,10,3,0,5
1529287855383714,2,-4,1,6,6,1,-2,2
1529287855396041,6,3,-5,-9,-9,-5,-2,-1
1529287855396041,0,-3,1,-4,0,-3,-3,-7
1529287855405023,0,-6,0,-6,-8,-2,-4,-4
1529287855405023,-4,-7,0,8,10,-4,-7,-3
1529287855419016,2,9,2,4,6,1,0,6
1529287855419016,-2,0,-2,-6,-10,-1,-1,-1
1529287855426127,-3,-1,-3,1,2,1,-3,-3
1529287855426127,-4,3,5,-3,2,4,3,1
1529287855441924,-6,-2,-7,-3,-6,-1,1,1
1529287855441924,-4,3,4,6,2,-6,1,4
1529287855443916,-3,-10,-9,-8,-6,-7,-1,-2
1529287855443916,3,-5,1,5,-3,-5,2,-4
1529287855465157,-1,-5,0,1,-5,-3,1,-5
1529287855465157,1,-4,-5,-3,5,7,4,-3
1529287855465859,0,-7,-4,1,1,6,3,-2
1529287855465859,4,11,6,3,7,2,0,4
1529287855479234,-3,4,7,-8,-9,-2,1,1
1529287855479234,-5,-1,3,0,2,0,-2,3
1529287855486030,-7,-9,-8,-13,-14,-8,-6,1
1529287855486030,1,-3,-4,7,3,3,1,-2
1529287855502142,2,5,-1,2,1,1,-3,-2
1529287855502142,-2,2,-1,6,3,2,-2,-7
1529287855503978,-2,3,6,1,0,0,3,1
1529287855503978,-1,-5,-12,-11,-5,-1,2,0
1529287855515949,0,-3,-3,0,0,-1,1,-1
1529287855515949,-3,-6,-3,4,3,-2,-1,0
1529287855524923,-1,1,0,2,-1,-2,-1,0
1529287855524923,1,-1,1,-2,-2,0,-1,3
1529287855547219,2,-5,1,-1,2,-1,0,0
1529287855547219,6,-1,-2,0,-1,-2,-6,-5
1529287855549146,-1,1,-3,1,0,-5,1,-1
1529287855549146,0,2,-5,-7,-21,-16,-2,0
1529287855562022,0,2,4,5,35,30,8,-1
1529287855562022,-2,3,7,-5,-2,0,0,0
1529287855564019,0,-1,4,3,3,1,-11,-2
1529287855564019,-2,-4,-2,0,0,1,6,2
1529287855576288,0,-4,-4,0,-16,-16,-3,1
1529287855576288,-8,-9,-8,1,-7,2,-9,-24
1529287855584959,-6,-5,-6,-1,-3,-12,-5,4
1529287855584959,20,14,1,2,6,14,30,23
1529287855599217,-1,5,-1,-3,-28,-18,0,1
1529287855599217,9,10,8,12,56,38,25,17
1529287855605905,-16,-7,-6,-6,-8,-9,-22,-18
1529287855605905,-30,-19,-7,-7,0,0,-43,-55
1529287855630016,13,0,-2,-10,-16,-8,25,39
1529287855630016,8,8,3,-2,-14,-23,-13,7
1529287855630980,4,5,6,9,34,29,-4,-2
1529287855630980,-17,-12,0,1,18,24,10,-32
1529287855636005,-24,-22,-12,-8,-8,-1,6,-28
1529287855636005,57,32,8,-2,-19,-18,12,63
1529287855644801,27,16,21,22,35,26,93,82
1529287855644801,2,-8,-3,3,-8,-15,0,8
1529287855659082,-15,-2,-4,-1,-4,-5,-26,-30
1529287855659082,-68,-43,-20,-18,-12,-10,-26,-50
1529287855665745,37,31,10,4,-1,6,-35,-16
1529287855665745,20,16,6,-1,5,16,29,47
1529287855681985,26,13,6,11,13,12,34,60
1529287855681985,-16,-7,-8,-3,-9,-6,-13,-13
1529287855683697,-27,-20,-12,-9,-13,-15,-12,-38
1529287855683697,-20,-14,-8,-9,-8,-28,-57,-60
1529287855695664,-22,-23,-9,-8,-4,4,5,-15
1529287855695664,14,7,12,6,-5,-6,-10,12
1529287855704639,0,-9,-5,-6,-11,-10,7,8
1529287855704639,11,13,5,6,-3,-2,8,23
1529287855719167,-4,5,3,2,3,-4,-12,-14
1529287855719167,-5,-1,-1,6,3,5,7,-5
1529287855726275,-8,-5,-12,-8,-16,-8,-7,-13
1529287855726275,-9,3,-4,-1,-3,-3,-12,-5
1529287855742345,11,6,1,1,6,7,11,8
1529287855742345,6,0,1,-2,0,11,12,-4
1529287855743152,0,-4,0,-4,-8,-10,-4,-3
1529287855743152,0,-1,0,-5,-7,-10,-2,7
1529287855764886,-3,3,3,6,1,3,-26,-19
1529287855764886,0,-7,-4,-2,-10,5,22,7
1529287855766851,1,3,5,3,1,4,15,12
1529287855766851,2,-4,1,-5,1,3,6,1
1529287855779002,13,6,4,-2,2,-2,-10,5
1529287855779002,-4,1,-2,2,3,4,0,-8
1529287855792784,-5,2,-5,-3,-3,-2,-2,6
1529287855792784,-1,4,2,0,-3,-3,-13,-3
1529287855802054,5,-1,4,-4,3,-5,-2,7
1529287855802054,-9,-10,-4,-5,-2,-1,-10,-12
1529287855803753,-1,-5,-4,-1,-2,11,5,-4
1529287855803753,-4,-4,-5,2,-4,-2,-17,-3
1529287855824697,-6,2,-4,0,2,15,23,7
1529287855824697,2,0,-3,-1,-2,1,-6,4
1529287855825862,2,1,1,0,-2,-3,-3,0
1529287855825862,2,5,-5,-2,0,-6,6,2
1529287855839658,-2,2,-2,-1,-5,-17,-23,-3
