timestamp,emg1,emg2,emg3,emg4,emg5,emg6,emg7,emg8
1528181686455810,-2,-1,0,-1,-1,-2,-1,1
1528181686455810,-2,1,0,-1,0,0,0,1
1528181686479806,0,-3,2,0,1,0,1,-1
1528181686479806,-2,-1,-2,-1,0,0,0,-1
1528181686481739,0,-1,1,-2,-1,1,0,-2
1528181686481739,0,-1,-2,0,0,-2,0,-3
1528181686494705,-1,-2,0,0,-1,-5,-2,-1
1528181686494705,0,-2,1,-1,1,-2,-1,1
1528181686496699,0,0,0,-1,-1,-2,-3,2
1528181686496699,1,-2,-2,-1,-1,2,-2,2
1528181686508686,0,0,-2,-1,-1,0,-2,-1
1528181686508686,0,0,-1,1,-2,0,0,-2
1528181686517644,-1,0,1,-1,-1,-1,-1,0
1528181686517644,-1,-1,0,0,-2,-2,-1,1
1528181686532603,1,-2,-1,-2,0,0,-1,-1
1528181686532603,0,0,-1,-3,-1,0,-2,-1
1528181686533626,1,0,-1,-1,0,-1,-2,1
1528181686533626,-1,0,0,0,-1,-3,-1,-1
1528181686554545,-1,1,0,0,1,0,3,0
1528181686554545,-1,-2,0,0,-1,-1,0,0
1528181686556539,-1,0,-2,-1,0,1,0,1
1528181686556539,-1,-2,-2,0,-2,1,0,1
1528181686568507,-1,-1,0,-1,-1,-4,-1,-2
1528181686568507,1,-1,-1,0,0,-1,-2,-2
1528181686577484,-1,-1,-1,-1,-2,0,-1,1
1528181686577484,-1,-1,-1,-2,1,0,-1,-1
1528181686592445,1,0,-2,-1,-2,-1,2,0
1528181686592445,-1,2,0,0,-1,0,0,0
1528181686594450,2,-1,-1,-1,0,-1,-2,-2
1528181686594450,1,-2,0,1,1,-1,-2,0
1528181686614421,-1,-1,-2,-1,0,1,-2,1
1528181686614421,-1,0,-1,-1,0,-2,3,1
1528181686616381,-1,0,-1,-2,-3,1,-1,0
1528181686616381,-1,-1,-1,-1,1,0,-1,0
1528181686628386,-2,0,-1,-1,0,2,-3,-1
1528181686628386,0,1,1,-1,-1,0,-1,0
1528181686644342,-1,0,-1,0,0,-1,0,0
1528181686644342,2,0,0,-1,-2,-3,1,-1
1528181686651287,0,2,-1,-1,-2,-1,-3,1
1528181686651287,-1,-3,-2,-1,-1,0,-1,-2
1528181686652285,-1,0,0,0,0,-2,2,-1
1528181686652285,-2,0,0,-1,1,-3,-2,-1
1528181686674281,-2,-3,-2,-1,-1,-1,0,-1
1528181686674281,-1,-1,0,-1,-3,-2,-1,1
1528181686675262,0,-1,-1,1,-1,-1,-1,0
1528181686675262,0,2,0,-1,-1,1,0,0
1528181686696220,0,1,0,0,-1,2,0,1
1528181686696220,0,-2,-2,0,-1,1,-3,0
1528181686697165,-1,-1,0,-1,0,0,-1,-1
1528181686697165,-2,-3,-1,0,1,0,1,-1
1528181686711126,1,-3,0,-1,0,-1,0,-1
1528181686711126,-2,0,0,0,-1,0,1,-1
1528181686712123,-1,-1,0,0,0,0,-2,-3
1528181686712123,-1,1,0,0,-1,-1,-2,-1
1528181686734065,-2,0,-2,0,-1,-3,-1,-2
1528181686734065,-2,1,-1,0,-1,-1,-2,0
1528181686735063,-1,-3,-2,0,0,0,-2,0
1528181686735063,0,-4,0,0,-2,2,-2,0
1528181686757003,-1,-2,0,-1,0,0,-2,-2
1528181686757003,1,3,1,-1,-1,0,0,0
1528181686757003,-1,-1,-3,0,-2,0,2,0
1528181686757003,-1,-1,0,0,-1,-1,-1,-1
1528181686771983,0,0,2,1,0,0,-1,0
1528181686771983,-2,-3,-2,-3,-1,-1,-1,-4
1528181686772960,-1,-1,-1,-2,1,-3,-1,-1
1528181686772960,0,-2,-2,-1,-1,-4,-1,0
1528181686793928,1,-1,1,-2,-2,0,0,0
1528181686793928,0,0,-1,0,1,2,-2,0
1528181686794923,0,1,0,0,-1,1,-1,0
1528181686794923,-2,0,-1,-3,-2,0,2,-1
1528181686816863,0,0,-1,0,1,0,-2,2
1528181686816863,-1,-1,-1,-1,-2,-1,-1,-2
1528181686817841,-2,-1,2,1,-2,-5,0,0
1528181686817841,-2,1,0,-1,-2,-3,3,-1
1528181686832801,-2,0,0,-2,-2,-1,2,0
1528181686832801,2,-2,-2,0,-1,-2,0,0
1528181686833799,-1,-1,-2,-1,0,3,-1,0
1528181686833799,0,0,-3,-1,-1,0,-2,0
1528181686853777,-2,0,-2,-1,-1,-2,-4,-1
1528181686853777,-2,-1,-2,0,-1,-2,0,-1
1528181686854742,-1,0,1,-1,-2,0,1,-2
1528181686854742,1,-3,2,1,-2,0,0,0
1528181686876685,0,-5,0,0,-1,0,0,-1
1528181686876685,0,0,1,0,-1,0,-1,-1
1528181686877682,2,0,-1,-1,-1,-1,0,-1
1528181686877682,1,4,-1,0,1,-1,0,-2
1528181686891682,-1,1,-3,0,0,-1,1,1
1528181686891682,-2,-1,0,1,-1,0,-1,0
1528181686892642,1,-1,-2,-1,0,-2,-1,0
1528181686892642,0,1,-3,-1,0,0,-3,1
1528181686914583,0,-1,0,0,1,-1,0,-2
1528181686914583,0,-2,1,0,0,-1,2,1
1528181686914583,2,-3,1,-1,-1,-2,-1,-1
1528181686914583,-1,-3,-1,-2,-1,0,-2,0
1528181686936525,-3,0,-2,-1,0,1,-1,0
1528181686936525,3,5,-2,-1,-1,2,1,-3
1528181686937531,-2,-1,-2,0,-1,0,0,-4
1528181686937531,1,-3,0,-1,-2,-1,2,-2
1528181686951485,1,-1,-1,1,1,1,-1,0
1528181686951485,-6,-2,1,-2,-1,-3,-2,-1
1528181686952481,1,2,0,0,1,0,-1,3
1528181686952481,-1,-2,-1,-1,1,1,-2,-1
1528181686974422,1,0,0,0,-3,1,-1,-1
1528181686974422,-1,-3,0,0,1,0,-1,0
1528181686974422,-1,0,2,-2,-1,0,0,-1
1528181686974422,-1,-1,-2,0,0,1,0,0
1528181686996407,0,0,1,-1,-2,-2,-2,-1
1528181686996407,0,-1,0,-1,-1,-2,0,-2
1528181686997362,-1,-2,0,1,1,-2,-2,-2
1528181686997362,0,-1,0,0,0,0,-1,-1
1528181687011377,1,-2,-1,0,-2,-3,-2,-1
1528181687011377,0,0,-2,0,-1,-1,-1,1
1528181687012322,-1,1,-2,0,0,-2,0,-1
1528181687012322,-1,2,0,-2,-2,-2,0,1
1528181687035303,0,-1,-3,-2,1,0,-1,1
1528181687035303,0,-3,-2,0,-2,-1,-1,0
1528181687036261,-2,-2,-1,0,-1,2,1,0
1528181687036261,0,1,-1,-2,-3,-2,-1,-1
1528181687056258,-1,-1,-1,0,-1,-2,1,-4
1528181687056258,2,-1,-1,0,1,0,0,0
1528181687057202,-2,-4,0,-1,-1,1,1,-1
1528181687057202,-2,0,1,-1,0,1,-1,0
1528181687071209,-2,0,1,-2,-2,3,-2,1
1528181687071209,0,2,-1,1,-1,0,-1,-1
1528181687072162,0,0,-1,0,-2,-4,0,1
1528181687072162,-2,-2,1,-1,-1,-3,-3,0
1528181687094103,-3,0,-1,-2,-1,-3,1,-1
1528181687094103,0,0,0,1,-2,0,-1,-2
1528181687095101,-1,1,-2,-3,-1,1,-2,0
1528181687095101,-2,1,-1,0,-1,1,1,-1
1528181687117042,1,-2,-2,-1,-1,0,-2,0
1528181687117042,-1,-2,-1,-4,0,0,-1,1
1528181687117042,-1,0,1,0,-2,0,-2,-3
1528181687117042,1,-2,0,-1,0,-1,1,-1
1528181687132002,1,1,0,1,0,-1,-1,0
1528181687132002,0,-1,2,-1,0,0,0,-1
1528181687132002,-1,-1,1,-1,0,-1,-1,0
1528181687132002,-1,0,0,0,-1,-1,1,-1
1528181687153943,-2,1,-2,-2,1,-3,2,-1
1528181687153943,-3,-2,-2,-1,1,-1,-3,1
1528181687154941,-1,0,-2,0,-1,-1,-2,0
1528181687154941,-1,-4,-1,2,0,2,-2,0
1528181687176882,0,-1,-1,1,0,1,-2,-2
1528181687176882,1,-1,-1,-1,-2,-1,-1,-2
1528181687177879,0,0,-1,-1,-2,1,-2,-1
1528181687177879,0,0,-2,-2,-1,-2,0,0
1528181687191842,-1,-1,-1,0,-1,-2,0,-1
1528181687191842,1,2,0,1,1,-3,1,0
1528181687192852,-1,1,-2,1,1,1,-1,-1
1528181687192852,-1,1,-2,-1,0,1,-2,-1
1528181687213783,0,-4,0,-1,0,-1,-1,-1
1528181687213783,2,0,-1,-1,-1,2,-2,-3
1528181687214783,1,1,-2,1,0,-2,-1,-2
1528181687214783,1,0,-1,-2,0,0,-2,-2
1528181687236759,-2,-2,0,-1,1,-1,1,-2
1528181687236759,-3,-1,1,-1,-1,-1,1,-2
1528181687237719,1,-1,-1,0,0,-2,0,-1
1528181687237719,-2,-2,-1,1,1,1,0,0
1528181687251685,-1,1,0,-1,-1,-1,0,0
1528181687251685,0,-1,1,-1,-3,0,1,0
1528181687252678,0,-1,-2,-3,0,2,-1,0
1528181687252678,0,0,0,0,-2,-1,0,-2
1528181687274620,1,0,-1,-1,-2,1,-1,-3
1528181687274620,-2,-2,1,1,0,0,-1,1
1528181687274620,-2,-3,0,-1,-2,-1,-1,0
1528181687274620,0,0,-1,0,-1,-2,-1,1
1528181687296832,0,0,-2,-2,-1,-3,-1,2
1528181687296832,-1,-1,-2,-1,0,-5,-2,0
1528181687297560,0,-2,-1,-1,1,-1,-1,0
1528181687297560,-2,-2,-1,0,2,-1,1,0
1528181687313517,-3,1,-2,1,-1,-1,1,-1
1528181687313517,-1,1,-3,0,0,0,1,-1
1528181687314756,-1,-1,0,0,1,-3,0,-1
1528181687314756,1,2,1,-1,-2,-2,-2,-1
1528181687333731,-1,-1,-1,-1,-1,0,-1,-1
1528181687333731,0,-1,0,-1,-2,1,-2,0
1528181687341442,-1,-1,-2,0,0,0,-1,0
1528181687341442,-2,-1,0,0,-3,1,1,1
1528181687358430,-1,-2,3,-1,0,1,0,2
1528181687358430,-1,-1,-1,-1,1,1,0,0
1528181687358430,0,-1,0,-1,-2,1,-1,-2
1528181687358430,1,-2,0,0,-1,1,2,-3
1528181687379602,0,2,2,0,-1,0,-2,-1
1528181687379602,0,0,0,-1,-1,-1,-2,-2
1528181687380596,-4,-1,-1,-2,-1,-1,-1,-2
1528181687380596,1,-2,-1,-2,0,-3,-2,-1
1528181687394081,-2,0,-3,-1,-1,0,-2,-1
1528181687394081,-2,2,-2,0,0,-1,0,-1
1528181687402379,0,1,-2,0,-2,0,-1,-1
1528181687402379,0,-2,-1,1,1,0,0,0
1528181687417516,1,-3,-2,-1,0,0,2,1
1528181687417516,0,-4,0,-1,-1,0,0,-1
1528181687417516,0,-3,-1,-1,-1,1,-2,1
1528181687417516,-1,-1,0,-2,0,-3,0,-2
1528181687439392,1,-2,0,0,0,-2,-1,1
1528181687439392,-1,-2,-2,-3,-3,-1,-3,-1
1528181687440385,1,-1,0,0,0,-1,1,1
1528181687440385,-1,2,-2,-2,1,0,-2,-1
1528181687453321,0,0,-1,-1,0,0,0,-4
1528181687453321,-4,-1,-1,0,-2,0,1,-2
1528181687461334,-3,-1,-1,-1,-1,-1,0,-1
1528181687461334,-2,0,-2,-1,0,-2,-2,1
1528181687476260,1,0,0,1,-2,-2,-2,0
1528181687476260,-1,-2,-1,0,-2,0,-2,-1
1528181687477259,2,1,-1,0,-2,-2,0,0
1528181687477259,-2,1,0,-2,-1,-1,0,1
1528181687499490,-2,-1,-3,-1,-3,-2,-1,0
1528181687499490,-2,-1,-4,0,-1,1,-1,0
1528181687500660,-1,1,-1,-1,1,1,-1,-2
1528181687500660,0,-1,1,0,-1,-1,0,-1
1528181687522426,0,0,0,-1,0,1,1,0
1528181687522426,0,-1,1,1,1,1,2,1
1528181687523423,-2,1,-1,-1,0,1,1,1
1528181687523423,1,-1,-1,0,-1,-1,-2,-2
1528181687537411,-1,-2,-2,-2,-1,-1,-3,0
1528181687537411,0,0,-1,0,0,0,-3,-1
1528181687537411,-1,1,0,0,-1,-2,-2,-1
1528181687537411,0,1,0,0,-1,0,-2,0
1528181687559327,-2,2,-1,-1,-1,0,0,1
1528181687559327,1,0,0,0,-1,-1,2,0
1528181687560324,3,0,0,2,3,1,1,0
1528181687560324,-1,-2,-5,-7,-6,-1,-2,-1
1528181687582580,0,-2,-1,2,-2,-1,-2,-3
1528181687582580,1,1,-1,-2,1,-2,-1,0
1528181687583558,-1,-3,0,-1,1,-3,0,-1
1528181687583558,0,0,2,2,2,0,-1,-1
1528181687597716,0,0,-2,-2,0,-1,0,0
1528181687597716,-1,3,-1,-1,0,0,-2,0
1528181687598736,-4,-3,-3,-1,-2,0,-2,1
1528181687598736,2,0,1,-1,1,-1,1,1
1528181687619690,-2,-2,1,-1,-3,-2,-1,-1
1528181687619690,1,0,1,1,0,0,1,-2
1528181687620738,0,0,-3,-1,-2,0,0,1
1528181687620738,-2,-2,-2,0,0,2,-1,-2
1528181687642367,-1,1,-1,1,1,-1,1,-3
1528181687642367,0,-2,-1,-1,1,-2,1,-1
1528181687643365,-2,0,-1,-2,-1,0,-1,-3
1528181687643365,-1,0,1,-1,-2,-3,-1,0
1528181687657363,2,2,-1,0,-4,0,0,-1
1528181687657363,-2,-5,-2,-2,4,-3,-4,-1
1528181687657363,1,0,2,-2,-3,-1,-1,-1
1528181687657363,-1,-2,-2,0,1,0,1,1
1528181687679533,1,-3,0,0,1,1,-2,0
1528181687679533,-4,0,-1,0,0,1,-1,-1
1528181687680530,0,1,-1,0,1,-1,0,-1
1528181687680530,-2,3,-1,0,0,-3,0,-1
1528181687703207,-1,1,1,1,-2,0,0,-2
1528181687703207,2,-2,-1,-1,-2,-1,0,1
1528181687703207,-1,-1,-1,0,-1,-1,0,2
1528181687703207,-1,-2,1,0,-2,2,-1,-2
1528181687717171,-1,-3,-2,-2,0,1,-2,2
1528181687717171,-2,-2,-2,-1,0,0,0,0
1528181687717171,2,3,0,1,0,-1,-3,-4
1528181687717171,-2,0,-2,-1,0,-1,-2,-1
1528181687739951,0,-1,-1,0,-1,-2,-2,0
1528181687739951,0,-1,1,0,-1,-2,-1,-1
1528181687739951,-2,0,-1,-1,1,0,0,0
1528181687739951,0,-1,-2,-2,-4,-3,-1,0
1528181687762565,0,-1,2,1,0,2,-2,-6
1528181687762565,0,2,1,-2,-3,0,-1,1
1528181687763563,-1,1,0,1,1,-2,-3,-1
1528181687763563,0,-2,1,3,2,-2,0,-1
1528181687776528,1,0,-2,-4,-3,0,2,1
1528181687776528,-1,-2,0,-2,-3,-3,-3,-1
1528181687777524,0,-3,-2,-4,-2,1,1,0
1528181687777524,0,-1,0,0,0,2,1,1
1528181687799667,-3,-1,0,-2,-1,-1,1,-3
1528181687799667,2,4,3,6,2,2,1,0
1528181687807491,-3,0,-2,-3,-1,-3,-2,-2
1528181687807491,-2,-2,-3,1,-2,1,0,-1
1528181687830382,-1,0,-1,-2,2,-2,-1,1
1528181687830382,0,0,1,1,2,3,-2,-2
1528181687831380,1,1,0,-2,-4,0,1,-2
1528181687831380,1,1,-3,-3,-1,-3,-1,-1
1528181687836399,-1,1,-1,1,-2,0,2,1
1528181687836399,-1,-2,-5,-4,-2,-2,-1,-1
1528181687837394,1,-2,1,2,0,0,-3,1
1528181687837394,-1,0,0,0,1,0,-1,-2
1528181687867545,-1,-2,-2,0,0,-3,-2,0
1528181687867545,-1,0,0,-1,-1,0,3,1
1528181687868281,-2,-2,-1,-1,-1,-1,1,-1
1528181687868281,1,0,2,-1,0,0,1,1
1528181687882507,0,1,0,-1,0,-2,-5,1
1528181687882507,0,-1,0,0,-3,-3,1,-2
1528181687883241,0,-1,0,-1,-2,0,-1,-1
1528181687883241,-1,-2,1,0,2,1,1,-1
1528181687897364,1,0,0,-1,0,-1,0,0
1528181687897364,0,1,-1,-1,0,-2,-3,-2
1528181687897364,-2,-1,0,-1,-2,-1,-1,1
1528181687897364,0,-1,-3,0,-1,-1,-1,-1
1528181687919148,0,-4,-2,-2,0,1,-5,0
1528181687919148,-1,-3,1,-2,-4,-4,-1,0
1528181687920142,0,-1,-1,-3,-1,0,-1,0
1528181687920142,-1,1,-1,-2,1,4,-2,-2
1528181687942146,-3,-1,0,-2,-2,1,2,0
1528181687942146,8,2,1,3,4,2,0,1
1528181687943082,0,0,0,-1,-1,-4,-1,-1
1528181687943082,-1,-1,0,-2,-3,-4,-2,1
1528181687957387,1,0,1,1,1,0,4,1
1528181687957387,-5,-1,-1,0,-1,-2,2,1
1528181687957387,0,0,0,1,1,0,-1,1
1528181687957387,0,0,0,-1,-3,-2,-2,-3
1528181687979329,0,0,-1,-1,0,-3,-1,-1
1528181687979329,-2,-2,-2,2,3,2,3,1
1528181687979984,-1,1,0,-2,-4,-4,-2,0
1528181687979984,-3,1,1,-4,-4,-2,-1,-2
1528181688002486,-1,1,1,0,-3,-7,-3,-4
1528181688002486,-3,-3,-2,-3,1,-2,0,-2
1528181688003233,-1,-3,-1,1,0,4,0,-2
1528181688003233,0,-1,0,0,3,0,-1,1
1528181688017182,0,-3,-1,1,-1,-1,1,0
1528181688017182,-1,0,-3,-2,-3,-1,-2,0
1528181688018228,-1,0,0,4,5,1,-1,2
1528181688018228,-1,-2,1,1,-6,6,-2,0
1528181688039372,-1,-2,-2,-2,1,-3,-1,0
1528181688039372,-2,0,1,-3,-1,1,1,0
1528181688040122,1,2,-2,-1,-2,-3,-1,1
1528181688040122,-2,1,0,-3,-1,-1,2,-1
1528181688062357,-3,-1,2,-1,0,8,1,0
1528181688062357,10,6,0,-1,-2,-9,-1,-1
1528181688063074,-3,-3,-2,-5,-1,-3,1,-3
1528181688063074,-1,-1,-3,0,1,-2,-1,0
1528181688076065,0,-1,-1,0,-3,2,-1,0
1528181688076065,-4,-3,-1,-5,-2,-1,-4,-1
1528181688084248,-1,1,-2,0,-1,0,-3,-3
1528181688084248,0,-2,-1,-6,-4,-7,1,-1
1528181688099206,1,-2,0,6,4,0,1,0
1528181688099206,-3,-2,1,-3,-4,3,-2,-1
1528181688099961,-1,-2,-1,-1,-2,-1,4,0
1528181688099961,-3,-3,-2,2,1,2,2,1
1528181688122243,-2,0,-2,-4,-3,2,-3,-1
1528181688122243,-1,-3,0,0,0,-6,-4,1
1528181688129390,1,1,0,1,1,-1,2,1
1528181688129390,1,0,0,-2,1,0,-1,0
1528181688136406,-1,0,0,-1,-2,-4,-1,-2
1528181688136406,-2,0,-1,-1,-3,3,-2,-2
1528181688144382,-3,-3,1,-2,-1,-2,-1,-3
1528181688144382,4,3,1,2,3,2,0,-1
1528181688159101,0,1,0,-1,1,-3,-4,-2
1528181688159101,0,-2,0,1,-4,-1,5,-1
1528181688160106,-1,0,0,0,2,0,-1,0
1528181688160106,-5,-3,-2,0,1,-4,0,-3
1528181688182039,-2,0,-3,-7,-5,3,3,1
1528181688182039,-1,-1,-2,4,1,-2,-3,0
1528181688183037,0,-2,1,-3,-6,-2,-3,0
1528181688183037,1,1,-1,0,-1,2,-1,-1
1528181688204994,-1,0,1,-2,1,-1,2,-1
1528181688204994,-1,-4,-1,-5,-2,-4,-1,0
1528181688205974,-1,-1,-1,1,1,0,-2,0
1528181688205974,0,0,1,1,-1,2,1,4
1528181688219169,-1,0,-2,0,1,-6,-2,-2
1528181688219169,0,-2,-1,-2,-2,-1,-3,-2
1528181688219938,-1,0,0,-1,0,0,-3,0
1528181688219938,0,-1,-1,0,2,-1,-5,-2
1528181688243874,3,-1,0,0,-1,-1,-1,-1
1528181688243874,-2,1,0,0,-1,1,0,1
1528181688245942,-1,0,-2,-1,-3,1,2,-2
1528181688245942,0,-1,-2,-1,-1,-2,2,-1
1528181688255842,-2,-1,-1,0,-1,2,-1,1
1528181688255842,4,-1,-2,-1,1,2,2,0
1528181688263821,0,-3,1,-1,-1,-1,-2,0
1528181688263821,-1,-2,2,-2,-1,0,-3,-2
1528181688278798,-3,-1,2,-1,-1,-2,-2,0
1528181688278798,-2,1,-3,0,-1,-1,0,0
1528181688279777,-1,0,-3,0,-1,-1,0,-1
1528181688279777,1,-1,0,0,-2,-3,-1,-1
1528181688302771,0,-1,0,0,2,0,0,1
1528181688302771,-1,0,-1,-1,0,-1,-4,0
1528181688302771,0,-1,-2,-2,-1,1,-1,-2
1528181688302771,-2,1,-4,0,1,-1,-2,-2
1528181688315737,-2,-2,-2,0,1,-1,1,-2
1528181688315737,0,0,-1,-1,0,4,3,-2
1528181688324701,2,0,-1,-2,0,-3,-3,-2
1528181688324701,1,-1,0,0,0,-2,-2,-2
1528181688338675,2,-2,-2,-2,-4,-1,-1,-1
1528181688338675,-3,-3,-2,-1,-2,1,1,1
1528181688347601,1,-1,-1,-2,1,-2,1,2
1528181688347601,-3,-1,1,0,-2,-2,0,0
1528181688362611,-1,1,1,0,0,0,1,0
1528181688362611,-6,-1,1,-2,-2,-3,-1,-3
1528181688363609,5,2,-3,0,-1,0,0,0
1528181688363609,-1,-1,1,-1,-1,-1,0,0
1528181688376555,1,0,-1,-1,0,-3,-3,1
1528181688376555,1,1,2,-1,0,-2,-1,0
1528181688385499,-1,-2,2,-1,1,1,0,1
1528181688385499,0,-1,-2,-1,-1,1,-1,-1
1528181688399457,1,1,-2,1,-1,-2,0,0
1528181688399457,0,2,-2,-2,-1,-2,1,-2
1528181688401452,-3,-2,-1,0,0,-1,0,0
1528181688401452,0,-2,-1,-2,-1,0,-3,1
1528181688422396,-1,0,-2,-1,-2,-3,-2,-2
1528181688422396,-1,-1,-1,0,2,-3,-4,0
1528181688424390,-1,-1,-2,0,-1,-2,-1,-2
1528181688424390,-1,-3,-4,0,0,1,1,0
1528181688436360,1,-1,1,1,1,4,1,0
1528181688436360,0,-2,0,0,-1,0,-1,0
1528181688445336,-2,-1,0,0,1,-4,0,-1
1528181688445336,0,-2,1,0,-1,-3,2,0
1528181688459298,-3,0,-1,-1,0,0,-1,-2
1528181688459298,-2,-3,-2,-1,-1,2,0,-3
1528181688466280,2,1,-1,1,-1,1,-2,-1
1528181688466280,0,1,-1,-1,-1,0,-1,-1
1528181688491247,0,1,1,0,-2,-1,-1,0
1528181688491247,1,0,-1,0,-1,1,0,2
1528181688493208,-1,-1,2,0,-1,-2,2,-1
1528181688493208,-1,1,2,-1,-1,-1,0,-2
1528181688505175,0,-1,-3,0,1,1,1,-1
1528181688505175,-1,0,-2,-1,-1,1,1,-3
1528181688506172,6,1,-1,0,-1,-1,-1,0
1528181688506172,-2,-1,-1,1,-1,-3,-1,2
1528181688519137,-1,-3,-1,-3,-1,-3,0,0
1528181688519137,-1,-1,-3,0,-1,-2,-3,0
1528181688526118,-1,-1,0,-4,0,0,0,0
1528181688526118,0,0,-1,-1,0,0,-1,0
1528181688542076,-1,1,1,-2,0,1,0,0
1528181688542076,0,0,-1,0,1,3,-1,-1
1528181688544071,-4,-1,-2,-1,0,1,-1,-2
1528181688544071,-1,-1,-1,-1,-1,-3,-3,-2
1528181688565015,1,-3,0,-1,-3,0,-3,1
1528181688565015,-1,-2,0,-4,-1,-2,-5,0
1528181688566012,-1,-2,-2,-1,-1,1,-1,0
1528181688566012,-2,-1,-2,1,0,-1,1,-1
1528181688579230,-1,0,1,1,0,-2,-1,-1
1528181688579230,0,-1,0,0,0,0,2,0
1528181688586196,-2,-1,1,-1,0,1,-1,0
1528181688586196,-1,-1,-1,-4,0,1,0,-4
1528181688602504,0,0,-1,0,0,1,-1,-1
1528181688602504,0,-1,-1,1,0,0,0,-2
1528181688604230,-2,-1,-2,0,0,-1,1,-1
1528181688604230,0,-2,-1,-2,-1,0,2,1
1528181688625271,-1,1,-4,-2,-1,-1,-3,-1
1528181688625271,-1,0,-1,-1,1,-3,-1,0
1528181688626191,-1,-3,-2,-1,0,-1,0,-2
1528181688626191,2,0,1,1,-4,-2,-4,-1
1528181688640800,-1,-3,-3,-1,-3,0,-1,1
1528181688640800,-2,-1,1,2,-2,-1,0,1
1528181688655380,-1,0,-1,1,-1,1,0,0
1528181688655380,-1,-1,0,-1,2,0,0,-2
1528181688662607,-1,-2,0,-1,1,0,2,-2
1528181688662607,2,0,0,0,1,1,1,-1
1528181688664356,-1,-1,0,0,-1,-1,1,-1
1528181688664356,0,0,-1,0,0,0,-1,-1
1528181688685300,0,-1,0,1,-1,-2,0,-2
1528181688685300,-1,-1,-2,-1,0,-3,-1,-1
1528181688686431,-1,0,-2,0,-2,-2,-2,-2
1528181688686431,-1,0,1,-2,-1,-2,0,0
1528181688698266,1,1,-2,-1,-1,0,0,0
1528181688698266,0,-1,1,-1,0,0,-1,0
1528181688707246,0,-1,0,0,0,-1,-1,0
1528181688707246,-1,1,-2,-1,-1,2,0,-2
1528181688722204,-1,0,1,-3,0,1,0,1
1528181688722204,0,-1,1,-1,-1,1,1,2
1528181688724204,0,-1,-2,0,-2,0,0,0
1528181688724204,-2,1,1,0,0,-1,-1,1
1528181688745140,-1,0,-1,-1,-1,-3,-1,-2
1528181688745140,-2,-1,-3,-1,-3,-2,-2,-2
1528181688746140,1,-1,-1,-1,-1,-2,0,-1
1528181688746140,2,-3,-1,0,-1,-1,-1,2
1528181688758432,0,-1,2,-1,-1,-1,0,1
1528181688758432,0,1,1,0,0,1,0,1
1528181688767084,-2,2,1,-1,-2,0,-1,-2
1528181688767084,0,-2,0,-1,-1,-2,0,-3
1528181688782044,0,-1,-3,0,-1,0,-2,-1
1528181688782044,0,0,1,1,0,0,0,-1
1528181688784036,-1,0,-2,0,2,1,0,2
1528181688784036,-1,1,-1,0,0,0,-2,2
1528181688805208,-1,1,0,2,0,0,-1,-2
1528181688805208,1,-1,-2,-1,-1,0,0,-2
1528181688805977,-1,-1,-1,-1,-2,-3,-2,-2
1528181688805977,0,-3,-1,0,0,0,-1,-1
1528181688818947,-3,-2,2,-2,0,-3,0,-2
1528181688818947,-2,-1,0,-1,-1,0,-1,-2
1528181688827919,0,0,-1,-2,0,-1,-1,-1
1528181688827919,0,-1,-3,0,-1,-1,-1,0
1528181688841914,0,-2,-1,-1,-2,-1,-1,1
1528181688841914,0,-2,-1,0,-1,-1,1,2
1528181688843875,-1,0,0,-1,-1,-1,-2,0
1528181688843875,-1,0,-1,-1,-1,-1,-2,-2
1528181688864821,0,0,-2,-2,0,0,-2,0
1528181688864821,0,0,0,0,0,-1,-2,-2
1528181688867054,0,0,-2,-2,0,0,0,-1
1528181688867054,0,1,0,-1,0,-1,0,1
1528181688878785,-2,-1,1,0,0,-2,2,1
1528181688878785,-1,0,0,0,-1,0,1,-1
1528181688887759,-1,-2,0,-1,-2,2,0,0
1528181688887759,-1,-1,-2,-1,-1,1,1,0
1528181688902942,-2,-1,0,-2,1,1,-2,-2
1528181688902942,-1,0,-1,-1,-1,-1,-3,-2
1528181688904750,0,1,1,0,1,-2,-1,-1
1528181688904750,0,-1,-3,1,-2,-1,-3,1
1528181688924702,-1,-1,-2,1,-1,-1,-1,1
1528181688924702,-1,-4,-1,1,-1,-3,0,-1
1528181688926694,0,-2,0,0,0,-4,1,-1
1528181688926694,-2,-1,0,-2,0,-1,0,-2
1528181688939011,0,1,-2,0,1,0,-1,-2
1528181688939011,1,-2,0,-2,-3,2,-1,-1
1528181688947638,-1,-1,-1,-1,-2,0,0,-1
1528181688947638,-1,-1,1,-1,0,1,-2,-4
1528181688962598,-1,-2,0,-1,0,1,2,-1
1528181688962598,-1,0,0,-1,0,-1,1,2
1528181688963602,0,1,-1,0,0,-1,0,0
1528181688963602,-3,2,1,-2,-3,-1,1,0
1528181688985544,0,2,-1,0,-3,1,0,-2
1528181688985544,-1,-1,-2,1,-2,-1,0,1
1528181688986534,0,-3,1,0,-1,1,0,1
1528181688986534,0,-2,-1,-1,0,1,-3,1
1528181688998502,1,-1,-2,0,-1,1,-2,0
1528181688998502,0,1,0,-1,0,-2,-1,-3
1528181689007479,-2,-1,-2,-1,0,-2,0,-2
1528181689007479,-1,-3,0,0,-1,-2,-1,-1
1528181689022486,-3,-1,-1,-1,1,-1,-1,0
1528181689022486,-2,0,-2,0,-1,-4,1,-1
1528181689024678,-1,0,-2,-1,0,-1,-1,1
1528181689024678,-1,-2,-1,0,0,0,-3,-1
1528181689045380,-2,-2,1,1,0,-1,-3,-2
1528181689045380,0,-1,-2,0,1,-1,-3,-2
1528181689046375,2,1,1,0,-1,0,1,-1
1528181689046375,1,0,-3,0,-1,0,0,2
1528181689058342,-2,-1,0,-2,-4,0,-1,2
1528181689058342,-2,0,-2,-2,-1,2,-2,1
1528181689067621,-2,0,0,1,-1,-2,0,0
1528181689067621,0,3,1,-1,1,-1,2,1
1528181689082280,1,2,-1,-1,0,-1,2,1
1528181689082280,-1,-3,-1,-1,0,0,1,0
1528181689084273,0,-4,-2,-1,1,0,-1,-4
1528181689084273,-1,-2,0,0,-3,0,2,-1
1528181689105220,-1,1,0,-1,-1,0,0,0
1528181689105220,-1,1,-2,-2,0,-1,1,0
1528181689107216,-3,0,0,-3,0,-1,-2,-1
1528181689107216,-2,1,1,-1,1,-1,-1,-4
1528181689118185,-1,-2,-2,-1,0,-1,-2,-2
1528181689118185,0,-1,-1,-2,1,0,0,0
1528181689127161,-1,-2,-1,0,-1,-2,0,1
1528181689127161,0,0,0,-1,-1,-2,-2,0
1528181689142126,0,0,-2,0,-3,-2,-2,0
1528181689142126,0,0,1,0,-2,-2,-1,0
1528181689144114,0,1,-1,-1,0,-1,-2,-1
1528181689144114,0,-2,-1,-1,0,0,-1,-1
1528181689165360,1,0,-2,0,0,2,1,-2
1528181689165360,-2,-2,0,-2,-1,0,0,0
1528181689166357,-2,-2,-1,1,-1,0,1,0
1528181689166357,-1,0,0,0,1,-1,1,-1
1528181689178322,-2,-1,-2,-2,-2,-1,-2,-2
1528181689178322,0,-1,-2,-1,-1,-1,-1,0
1528181689187479,0,-1,0,-1,0,1,-3,1
1528181689187479,1,-3,-1,0,0,0,-3,2
1528181689201260,0,-2,0,-1,-1,-2,2,0
1528181689201260,-2,-1,1,0,-1,-3,-1,-1
1528181689208245,0,-1,-1,-1,0,-2,0,1
