timestamp,emg1,emg2,emg3,emg4,emg5,emg6,emg7,emg8
1529314317684715,0,-1,-1,-1,0,0,0,0
1529314317684715,0,0,-1,-2,-1,-1,-1,-1
1529314317690716,-2,0,-1,0,-1,0,0,-1
1529314317690716,-1,2,0,0,0,-1,0,-1
1529314317697681,0,-1,-1,1,-1,0,0,0
1529314317697681,-2,0,1,0,0,0,-1,0
1529314317705660,-2,-2,0,-1,0,-2,0,0
1529314317705660,-2,-1,-2,-1,-2,-2,-1,1
1529314317720620,0,0,0,0,0,-1,0,-1
1529314317720620,-1,-2,0,0,-1,-1,-1,-1
1529314317727600,0,0,-1,0,-2,-2,0,0
1529314317727600,-1,-1,-1,0,-1,-1,-1,-2
1529314317743558,-1,0,-1,0,-1,-2,-1,-1
1529314317743558,0,0,0,-1,-2,0,-1,-1
1529314317750539,1,-3,-2,-1,-1,0,0,1
1529314317750539,0,-2,-1,-2,-2,0,1,0
1529314317768490,1,0,-1,-1,-1,-1,0,0
1529314317768490,-1,-1,0,-1,0,-1,-1,-2
1529314317773477,0,-1,0,0,0,-2,-1,-1
1529314317773477,0,-1,-2,0,0,0,-2,0
1529314317788438,-1,0,0,-2,-2,1,0,-2
1529314317788438,-1,0,-2,-1,-1,-2,1,0
1529314317803424,-1,1,0,-2,-1,0,-3,0
1529314317803424,-1,1,-1,0,-1,-3,-1,-1
1529314317819381,1,-2,0,0,-2,-1,-1,-2
1529314317819381,0,-1,-2,1,-1,0,-1,-1
1529314317833319,-1,1,0,1,0,-1,0,-1
1529314317833319,-1,0,0,-1,0,-1,-1,0
1529314317840299,-1,0,1,-2,2,0,0,0
1529314317840299,-1,0,0,-2,1,0,0,-2
1529314317848509,0,-1,-1,2,1,-2,-2,-1
1529314317848509,-1,-1,-2,0,0,-1,-1,0
1529314317855528,-2,1,-2,1,-1,1,1,-1
1529314317855528,0,1,1,0,0,-1,-1,-1
1529314317871729,1,-1,-3,-1,-1,0,-1,-1
1529314317871729,1,-2,0,-1,1,-1,0,0
1529314317885693,1,0,0,-2,-1,-1,-2,0
1529314317885693,-1,-1,-2,1,0,-1,-2,0
1529314317892673,-2,-1,1,-1,-1,-2,-1,1
1529314317892673,-2,-1,-1,-2,0,1,-3,-1
1529314317915613,0,1,0,-2,-2,-1,-1,-2
1529314317915613,0,0,-2,-1,-1,0,1,-1
1529314317922595,-1,-1,0,-2,-2,-1,-3,-1
1529314317922595,0,-1,-1,1,-1,-3,0,0
1529314317938552,0,-1,0,1,1,0,0,-2
1529314317938552,2,1,1,-1,-3,-1,-1,0
1529314317953524,0,-1,-1,0,-2,0,-1,0
1529314317953524,0,0,0,-1,-1,1,1,-1
1529314317968471,0,-1,0,0,1,-1,-1,-2
1529314317968471,0,-2,-1,0,0,-2,-1,0
1529314317983433,0,1,2,0,-1,0,-2,0
1529314317983433,0,0,-2,0,1,-1,0,1
1529314318005374,0,0,-2,-1,-1,-1,-1,0
1529314318005374,-2,-1,0,2,-2,-1,-1,0
1529314318013352,-1,-2,0,-1,0,-2,-2,1
1529314318013352,0,-1,0,-3,-1,0,0,0
1529314318020333,0,1,0,1,-1,-1,-1,0
1529314318020333,1,-1,-1,-2,-2,-1,-2,-2
1529314318035294,0,-1,-1,-2,1,-1,-1,0
1529314318035294,-1,-1,-2,-2,0,1,-1,1
1529314318050252,0,-2,-1,2,-1,-2,0,-1
1529314318050252,-1,-1,0,-1,-1,0,0,-1
1529314318065226,0,0,0,0,1,1,0,-1
1529314318065226,0,0,0,0,-1,-2,0,0
1529314318073191,-1,-2,0,-2,0,0,1,-1
1529314318073191,0,-1,-1,-1,1,-1,0,-2
1529314318088164,-3,-1,0,-2,-1,-1,-1,-2
1529314318088164,0,0,1,0,-2,-1,-1,1
1529314318103112,0,-1,0,-1,-1,-1,-1,-2
1529314318103112,0,3,-1,-1,-1,-1,-1,0
1529314318110093,0,0,-2,0,-1,-1,-1,-1
1529314318110093,-1,0,-1,-2,1,1,0,0
1529314318125054,-1,-1,-1,0,0,-1,-1,0
1529314318125054,-1,-1,-1,0,0,-1,-1,-1
1529314318133031,0,0,1,-1,-1,1,-1,-2
1529314318133031,-1,-2,-2,0,-1,-2,-1,-2
1529314318147992,-1,-2,0,0,-1,-1,-1,1
1529314318147992,-2,2,0,0,-1,-1,1,0
1529314318162980,-1,-1,-1,0,-1,0,-1,-1
1529314318162980,0,1,-2,-2,0,-2,1,-1
1529314318170931,0,0,-1,-1,1,1,-2,-2
1529314318170931,0,-1,0,-1,-1,-1,-2,0
1529314318185916,1,-1,-1,1,-2,-2,-1,-1
1529314318185916,0,-2,0,0,0,1,-2,-2
1529314318192871,-1,0,0,-1,0,0,1,0
1529314318192871,1,0,0,-1,2,-1,1,-2
1529314318207831,0,-1,0,-3,2,0,-2,-1
1529314318207831,-1,-2,-1,-1,0,-1,-3,-1
1529314318215810,-1,1,1,0,-1,-1,0,-2
1529314318215810,0,0,-1,-2,1,0,-2,-2
1529314318230794,-2,0,-1,0,0,-2,-1,1
1529314318230794,0,-2,-1,-1,0,1,-1,-1
1529314318245732,-1,-1,0,-1,-2,-1,-1,0
1529314318245732,0,0,1,0,-1,0,-2,0
1529314318252751,-1,0,-2,-1,-2,1,-1,-2
1529314318252751,0,-2,-1,0,-2,0,0,0
1529314318267680,1,-2,-2,0,-3,-1,-1,-1
1529314318267680,-1,0,1,0,1,1,0,0
1529314318282633,2,0,0,-1,-1,0,-1,-2
1529314318282633,-2,0,0,-1,-2,-1,0,-2
1529314318290611,1,-2,-1,-1,-1,-1,0,-1
1529314318290611,-2,-1,-1,0,1,-1,-1,-3
1529314318305617,-1,0,0,0,0,0,1,1
1529314318305617,0,-1,0,0,-1,2,1,1
1529314318312553,1,1,0,0,3,0,0,-1
1529314318312553,-1,0,-1,-3,-2,1,-1,-2
1529314318328509,-1,-1,-1,1,1,-1,-3,-1
1529314318328509,0,1,1,1,0,-2,-2,0
1529314318342472,0,0,-1,-2,1,-1,-1,1
1529314318342472,0,0,-1,0,-1,-1,0,2
1529314318350450,-1,0,0,-1,0,0,0,0
1529314318350450,-1,-1,-2,1,-2,-2,1,0
1529314318365410,0,1,-1,0,-3,0,-1,-1
1529314318365410,-1,-2,-1,0,1,-1,-1,-1
1529314318373388,0,0,0,-1,-2,-2,-1,0
1529314318373388,2,-1,0,-1,-1,-1,0,1
1529314318388349,-1,0,0,0,0,0,1,0
1529314318388349,1,0,-2,-1,0,0,-1,-1
1529314318395332,-2,-1,-1,0,0,0,0,-1
1529314318395332,-1,0,-1,-1,0,-1,-1,0
1529314318410290,1,-2,-2,-1,-1,-1,-1,-1
1529314318410290,0,-1,-1,0,-2,-1,-2,0
1529314318425250,-1,-1,1,0,-1,-2,-2,0
1529314318425250,-2,0,-2,2,1,1,-1,0
1529314318433228,0,0,1,-2,-1,0,0,-1
1529314318433228,-1,0,-2,-2,-1,0,-1,-2
1529314318448188,-1,0,2,0,0,-2,-1,-2
1529314318448188,0,0,0,-2,-2,-1,0,0
1529314318455170,0,0,0,-1,-1,0,-1,1
1529314318455170,-1,0,-1,1,0,-1,-1,0
1529314318470130,-1,-1,0,-2,0,-1,0,-2
1529314318470130,-1,-1,-1,1,2,-1,0,-1
1529314318485090,-2,0,-1,-1,1,0,-2,-1
1529314318485090,1,-1,-1,0,-3,-1,-2,-1
1529314318493082,-1,0,0,0,1,0,-1,-1
1529314318493082,-2,0,0,0,-1,0,-2,-1
1529314318508084,0,-1,-1,1,0,1,0,0
1529314318508084,0,0,-1,1,0,1,-1,-1
1529314318515067,-1,0,0,0,0,-1,0,2
1529314318515067,-1,-1,-1,-1,1,0,1,-1
1529314318530968,1,0,-1,-1,-2,1,0,-1
1529314318530968,0,0,-1,1,-1,0,-1,-1
1529314318545927,-1,0,0,-3,0,1,-1,-3
1529314318545927,-1,0,-1,-1,-3,-1,-1,-3
1529314318552961,-2,-2,-2,-1,0,-1,-1,-1
1529314318552961,0,0,0,0,-1,-1,-1,-1
1529314318567921,0,0,-2,-1,-1,0,-1,0
1529314318567921,1,0,0,-2,0,0,1,-1
1529314318575848,0,1,1,0,0,0,-2,-1
1529314318575848,0,1,0,0,-2,0,-2,-1
1529314318590827,1,0,-1,1,-1,-1,-1,-2
1529314318590827,-2,-2,0,-1,0,1,-2,-1
1529314318605824,-1,-3,-2,1,0,-2,-2,-1
1529314318605824,1,-1,-1,-2,-1,-1,-1,-1
1529314318612783,-2,-1,0,0,-1,0,0,-1
1529314318612783,1,1,-1,0,0,-1,2,0
1529314318628706,-2,0,-1,0,-2,-1,0,0
1529314318628706,-1,1,-2,0,-1,-1,0,-1
1529314318635739,-1,0,-1,0,-1,-1,-2,1
1529314318635739,1,1,-2,-2,1,-1,0,-1
1529314318650699,-1,0,0,-1,1,-2,0,0
1529314318650699,-1,-1,1,0,0,-1,-2,0
1529314318665607,0,1,0,2,0,-2,-1,0
1529314318665607,-1,0,2,0,-4,-2,-4,-1
1529314318672643,-1,-2,-8,-3,1,-1,0,-1
1529314318672643,-1,-1,-2,-7,-9,-3,-1,-2
1529314318687610,-1,-1,-1,-2,-1,0,0,-1
1529314318687610,0,-1,1,0,0,0,-2,0
1529314318695582,1,1,3,2,1,0,-1,-1
1529314318695582,0,-1,1,0,-1,0,-2,-2
1529314318710486,-1,-2,0,-1,-1,-1,-2,1
1529314318710486,0,1,0,0,0,0,-1,1
1529314318725712,0,0,0,-2,-1,-2,0,-1
1529314318725712,-1,-1,-2,-2,2,0,-1,-1
1529314318732750,-1,-2,-1,0,-2,-1,-2,-2
1529314318732750,-1,0,-2,0,-1,0,0,0
1529314318747979,0,-1,-1,-2,0,-2,-2,0
1529314318747979,0,0,-2,-1,-1,-1,1,0
1529314318756267,0,0,-1,-2,0,-1,0,-1
1529314318756267,0,0,-1,0,1,-1,1,0
1529314318770599,-1,0,2,0,-2,0,1,-2
1529314318770599,-2,-3,-1,0,2,1,-1,1
1529314318785520,-2,-1,1,0,-1,-1,-2,-1
1529314318785520,1,-1,-2,0,-1,-1,-2,1
1529314318793133,-2,-1,-1,0,-2,0,-1,0
1529314318793133,1,-1,0,0,-1,-1,0,0
1529314318808754,0,0,0,0,0,0,-1,0
1529314318808754,-1,0,-1,1,1,-1,-1,1
1529314318815528,1,-1,-1,1,1,-2,0,-1
1529314318815528,-2,0,-2,1,-2,-1,0,-1
1529314318830545,0,-1,-3,-2,1,1,0,-1
1529314318830545,-2,0,-1,-1,2,1,0,-2
1529314318853697,1,-1,0,-1,2,0,-2,0
1529314318853697,0,-1,0,0,0,-1,0,-2
1529314318860408,0,0,0,-1,0,0,-1,1
1529314318860408,-1,-1,-1,-1,0,-1,0,0
1529314318875371,-1,-2,-2,0,0,-2,0,-2
1529314318875371,0,0,0,-1,0,-2,0,-1
1529314318883348,0,-1,0,0,-1,-2,-1,-1
1529314318883348,-1,2,1,0,0,0,-1,-1
1529314318898684,-1,-2,-1,0,-3,-2,-1,0
1529314318898684,0,-3,-1,-2,0,-1,-2,-1
1529314318906331,-1,-3,-1,-1,1,-2,-1,-1
1529314318906331,-1,0,-1,-1,-1,0,-2,-1
1529314318913481,-1,1,2,0,-2,1,-2,0
1529314318913481,0,0,0,0,-2,0,0,-2
1529314318928343,-1,1,1,1,0,-1,-1,-1
1529314318928343,0,-2,0,-1,1,-2,0,-1
1529314318936201,0,0,-1,0,1,0,-1,-2
1529314318936201,0,-1,-1,0,-2,0,0,-1
1529314318950601,-1,0,-1,-1,-2,-2,1,-1
1529314318950601,-2,0,1,0,2,0,-1,-1
1529314318965334,-1,-1,0,-1,1,0,0,0
1529314318965334,-1,-1,-1,1,-1,-1,-1,-2
1529314318973515,0,-2,0,0,-1,1,-1,0
1529314318973515,-1,0,-1,0,0,-2,0,1
1529314318988531,-1,1,-1,-2,2,2,1,-2
1529314318988531,-1,-1,-1,0,-3,0,0,-1
1529314318995211,-2,-1,0,-2,0,0,-3,0
1529314318995211,0,-1,-1,0,0,-1,1,0
1529314319010433,-1,-1,1,1,-1,-1,-1,0
1529314319010433,-2,1,-2,1,-1,-1,0,0
1529314319018410,0,-2,0,-3,1,-1,-1,-2
1529314319018410,-1,-3,-1,-2,0,-2,-1,-1
1529314319025638,1,-2,-1,0,-2,-1,-3,0
1529314319025638,0,-2,-1,0,2,0,0,-1
1529314319033615,-1,0,-3,1,0,-3,0,-1
1529314319033615,0,0,1,-1,0,1,-2,-1
1529314319048597,-1,-3,-1,-2,0,-3,-3,0
1529314319048597,-1,-2,-1,-1,-1,-2,-2,0
1529314319056310,-1,-1,0,-2,0,-1,-2,1
1529314319056310,1,0,-1,0,2,-2,1,-1
1529314319070562,-1,1,-1,0,-1,1,0,-2
1529314319070562,-1,-1,0,-2,-1,0,-1,-1
1529314319078784,-1,-2,-1,0,0,-1,1,0
1529314319078784,1,0,-1,0,-3,0,-2,-1
1529314319085563,0,-1,-1,-1,-3,-2,0,0
1529314319085563,0,0,0,-1,1,-1,0,0
1529314319093502,1,1,-1,0,-1,-1,-1,-2
1529314319093502,-1,0,-2,0,-1,-1,-1,1
1529314319108492,-2,-1,0,1,-1,-2,-1,-1
1529314319108492,-1,-1,0,-1,-1,2,-3,0
1529314319115447,-1,-1,-1,0,0,1,0,1
1529314319115447,0,0,-1,0,-1,0,-2,1
1529314319131065,1,1,-1,0,-1,-2,0,0
1529314319131065,-2,-1,0,-2,-1,-1,-1,1
1529314319138796,-1,-2,-1,0,0,0,-1,-1
1529314319138796,-1,0,-2,-2,0,0,0,-4
1529314319146052,-1,0,-1,-3,-2,-1,-1,0
1529314319146052,0,1,-2,1,-2,-1,0,0
1529314319153458,-1,0,-1,1,-2,3,-1,-1
1529314319153458,-1,0,1,0,0,1,1,-2
1529314319168379,1,-1,0,0,2,2,0,0
1529314319168379,0,-3,-2,0,1,1,-1,-2
1529314319175356,1,1,0,-1,0,-2,0,0
1529314319175356,0,-1,0,1,-1,-3,1,0
1529314319190668,-1,0,-2,-1,-2,-1,-1,0
1529314319190668,0,-2,0,-1,0,-2,0,0
1529314319197670,-2,-1,-1,0,-3,-2,0,-1
1529314319197670,-1,-3,0,-1,1,2,0,-1
1529314319205685,-1,0,-2,-1,1,0,0,0
1529314319205685,0,0,1,0,5,0,1,1
1529314319213838,-2,-1,-1,-1,-2,-1,-2,0
1529314319213838,-1,-1,0,0,0,-2,-2,-1
1529314319228741,-1,-1,-2,-1,0,-1,-1,0
1529314319228741,-1,0,-2,0,-3,1,-2,0
1529314319235972,0,-1,-1,-2,-1,-2,1,-1
1529314319235972,0,-1,0,0,-2,-2,-1,1
1529314319242707,-2,-1,0,-2,-1,-2,0,0
1529314319242707,-1,0,-1,-1,-3,-2,0,0
1529314319251303,-2,-2,0,-1,0,2,0,0
1529314319251303,-2,-1,-2,-1,-1,-1,-3,0
1529314319265483,-1,-1,1,0,-2,1,1,-2
1529314319265483,-2,0,0,-2,-1,0,-1,0
1529314319273458,-2,2,-1,-1,0,0,0,-1
1529314319273458,0,-1,0,-1,0,1,0,0
1529314319288438,0,-1,-1,0,-1,0,0,-1
1529314319288438,1,1,-1,1,-1,-2,1,-1
1529314319296273,1,-1,-1,0,-1,-1,0,-1
1529314319296273,1,-1,-1,-1,0,-1,-2,1
1529314319303400,0,-1,-1,0,1,-1,0,-2
1529314319303400,-1,-1,1,0,-1,0,0,0
1529314319310119,0,0,-2,1,-1,-1,-1,0
1529314319310119,0,0,-3,-1,-1,1,-1,-1
1529314319325327,-2,-1,-1,-1,-1,0,-3,0
1529314319325327,0,1,-1,-1,-1,-1,-2,-1
1529314319333330,1,2,-2,-2,-1,0,-3,-1
1529314319333330,-1,0,0,-1,-2,-2,0,0
1529314319348290,-2,0,-2,-4,-1,-1,0,-1
1529314319348290,-1,-1,-1,-1,0,0,1,0
1529314319355274,-1,0,-1,0,1,-1,-1,0
1529314319355274,-1,-2,0,1,0,-1,-1,-1
1529314319371254,2,0,-1,-1,0,1,0,0
1529314319371254,0,0,-1,-2,-2,-1,-1,-2
1529314319378668,0,0,0,-2,1,0,-1,-1
1529314319378668,-1,-1,-2,-2,0,-3,-1,0
1529314319385895,0,-1,0,1,-1,-1,-1,0
1529314319385895,-1,-2,-2,-2,-2,-1,1,-1
1529314319393631,0,-2,-2,-1,2,-1,-2,1
1529314319393631,-1,-1,0,-1,-2,0,-1,1
1529314319408118,0,-1,-2,-2,-2,-2,0,0
1529314319408118,1,-1,0,1,-1,-1,0,-1
1529314319416084,1,0,0,0,-1,-2,0,0
1529314319416084,-1,-1,-2,-2,0,0,1,1
1529314319422835,-1,-1,1,1,0,1,0,-2
1529314319422835,0,0,0,2,-1,1,0,-3
1529314319431273,0,-1,-1,-1,-1,-4,-1,-1
1529314319431273,1,0,0,-3,-2,-1,-1,-1
1529314319446282,0,-1,-1,0,0,0,0,-2
1529314319446282,-1,-1,0,-1,-2,-2,-1,1
1529314319461294,-1,-2,0,-2,-1,1,1,-1
1529314319461294,-1,-1,-2,-2,0,1,1,-1
1529314319476027,0,1,1,0,0,-1,-2,2
1529314319476027,0,-1,-1,1,-1,0,-2,-1
1529314319482963,0,-1,-1,0,-2,-2,-2,-1
1529314319482963,0,-2,0,-2,0,-1,-2,-1
1529314319490305,-1,-1,0,1,-2,0,1,-1
1529314319490305,-3,0,0,-2,2,-2,-1,-1
1529314319498618,-3,-1,-1,0,-2,-1,0,0
1529314319498618,-1,1,0,-1,-1,0,-2,-1
1529314319506312,0,-1,-1,-2,-2,0,0,-1
1529314319506312,-2,-1,0,-2,0,-2,-1,0
1529314319513538,-1,-2,-1,-1,0,0,0,-2
1529314319513538,-1,0,0,1,0,-1,0,-1
1529314319528293,0,1,0,-2,-1,0,-2,-1
1529314319528293,-1,0,-2,-1,0,1,1,1
1529314319536256,1,-1,-2,-1,0,1,-1,0
1529314319536256,0,-2,0,-1,0,-1,2,-1
1529314319543306,0,-1,-2,0,-2,-1,-1,0
1529314319543306,-1,-1,0,-1,0,-1,0,-1
1529314319550546,-2,-1,2,-1,0,-1,-1,0
1529314319550546,-1,0,0,0,-1,0,-1,0
1529314319566294,-1,0,-3,-2,0,-1,-1,0
1529314319566294,0,0,-2,-1,-1,-1,-1,1
1529314319573627,-1,-1,-1,0,0,-1,0,0
1529314319573627,0,0,-1,-1,-2,-3,0,0
1529314319588500,-1,-3,0,-3,1,0,0,0
1529314319588500,0,0,-1,0,0,-1,-2,-1
1529314319595539,0,-1,-1,-1,-1,0,1,0
1529314319595539,-2,0,0,0,-1,-1,-1,-1
1529314319603250,-1,-1,0,-1,0,-2,-1,-2
1529314319603250,-1,-1,0,-1,0,0,0,0
1529314319610246,0,-2,-1,0,-1,-1,0,-1
1529314319610246,0,1,-1,-1,0,0,0,1
1529314319625196,-1,-1,0,-1,2,1,-1,0
1529314319625196,-2,-2,-1,0,-1,-2,-1,0
1529314319633223,-1,0,-2,1,0,-2,-1,0
1529314319633223,-1,-1,-1,1,0,1,0,-1
1529314319648133,1,0,0,0,0,1,0,0
1529314319648133,0,0,0,-1,-2,-1,1,-1
1529314319655147,-1,0,-1,-2,-1,-1,1,-1
1529314319655147,1,-1,-1,0,-1,1,-2,-1
1529314319663090,-1,1,0,0,-2,-1,-1,0
1529314319663090,0,-1,-1,-3,2,0,0,0
1529314319670072,0,-1,-1,-2,-1,1,-1,1
1529314319670072,0,-3,-1,-1,0,-1,0,-1
1529314319686027,0,-2,-1,0,-1,-1,1,-2
1529314319686027,0,0,-1,-1,-2,0,0,-1
1529314319693016,1,2,-1,-1,-1,0,0,-1
1529314319693016,0,0,0,-2,-1,-2,0,0
1529314319707969,-2,1,-1,1,0,-2,-2,-1
1529314319707969,0,-2,0,1,-1,1,-1,0
1529314319715947,-1,0,1,-1,-1,-2,-2,-1
1529314319715947,0,0,-1,0,0,0,-1,0
1529314319722929,0,0,1,-2,-1,0,0,1
1529314319722929,-1,0,-2,-1,-2,0,-1,-1
1529314319730907,0,-1,0,1,-2,-1,0,0
1529314319730907,0,-1,-1,-1,-2,-1,0,0
1529314319745867,-2,-1,1,-2,-1,0,0,-1
1529314319745867,0,1,-1,1,1,-1,0,1
1529314319752849,0,-1,0,0,-1,0,-1,-1
1529314319752849,-3,0,0,-2,2,-1,-1,-3
1529314319767809,-2,0,0,-1,-1,0,0,1
1529314319767809,1,-1,0,-1,-2,-2,-2,0
1529314319775787,0,-2,0,-1,0,0,-2,-2
1529314319775787,1,-1,0,0,-1,1,0,-1
1529314319782769,0,0,-2,-1,0,0,0,-2
1529314319782769,-1,0,0,0,-1,1,-1,-1
1529314319790748,0,-2,-2,1,0,-1,-1,2
1529314319790748,-1,-2,-1,-1,-2,-1,0,1
1529314319805708,0,-1,-2,0,-1,-2,0,0
1529314319805708,-2,0,-1,0,0,1,-1,-1
1529314319812689,-1,-2,0,-2,0,-1,-1,-1
1529314319812689,0,-1,-1,0,-2,1,-1,-2
1529314319827650,1,-1,-1,-1,0,-1,0,-1
1529314319827650,0,-1,-2,-2,-1,-1,0,-1
1529314319835628,-2,0,-1,0,1,-1,0,-1
1529314319835628,-1,-1,-1,1,0,-1,-1,1
1529314319842611,0,-1,-1,-1,0,0,-1,1
1529314319842611,0,-1,0,0,0,-1,-1,-2
1529314319850632,-1,-2,0,-1,0,0,-1,-2
1529314319850632,-1,-1,-1,0,-1,-1,-1,1
1529314319865606,1,0,1,0,-2,-1,-2,-1
1529314319865606,1,-3,-1,-2,-1,0,0,-1
1529314319872585,0,-1,0,-1,-1,0,-1,0
1529314319872585,1,1,0,-1,0,-1,-2,-2
1529314319888544,1,-1,1,-1,0,-1,0,0
1529314319888544,-1,-2,0,-1,1,1,-1,0
1529314319895523,0,1,-2,0,-2,0,0,-1
1529314319895523,-2,-1,-1,-1,0,0,-1,0
1529314319903511,-1,-1,-2,-1,0,1,1,-1
1529314319903511,-1,0,-1,-1,0,-2,1,0
1529314319910486,-2,-2,-1,-1,-2,1,-1,-1
1529314319910486,-1,-2,-1,0,-1,-1,-2,-1
1529314319925444,0,-1,-1,-1,-1,-1,-2,-1
1529314319925444,-1,-1,0,0,-2,0,0,0
1529314319933423,0,0,0,-1,-1,0,-1,1
1529314319933423,-2,1,-2,0,-1,-1,2,-1
1529314319948327,-1,-1,0,1,-1,-1,-2,1
1529314319948327,0,0,-1,-1,1,0,1,-1
1529314319956317,0,-1,0,0,0,0,1,1
1529314319956317,0,-1,0,-2,0,-1,-1,-1
1529314319963551,-1,0,-1,0,0,-1,0,1
1529314319963551,0,1,-1,1,0,-1,-2,-1
1529314319970281,0,-1,-1,-2,0,0,0,0
1529314319970281,0,1,-2,-1,-1,0,1,-1
1529314319986304,-1,-2,-1,-1,-1,-1,-2,-1
1529314319986304,0,-1,-1,-2,-1,0,-2,1
1529314320000156,-2,1,-2,-1,-1,-1,0,0
1529314320000156,-1,0,0,0,-1,1,-1,0
1529314320008133,-2,0,0,-1,0,0,-2,-1
1529314320008133,0,0,-1,-2,0,-1,0,1
1529314320023092,1,0,0,0,-1,0,0,0
1529314320023092,-1,-1,-1,-1,-1,-1,1,0
1529314320031249,-1,-1,0,0,-1,-2,0,-1
1529314320031249,-2,-3,0,-2,-1,-2,-1,-1
1529314320045033,-1,-1,-2,-3,-2,0,0,-1
1529314320045033,-2,-1,0,-1,0,0,-1,0
1529314320060991,0,-1,-1,-1,-2,-2,0,1
1529314320060991,0,-2,-1,0,0,-1,-1,0
1529314320068214,-1,0,-1,0,1,0,0,-1
1529314320068214,1,-1,-1,1,0,-1,0,0
1529314320083595,-1,2,-2,0,0,1,-1,-1
1529314320083595,-1,-1,0,-1,-2,-2,0,-1
1529314320090976,0,1,0,-2,-2,0,-1,0
1529314320090976,-2,2,-2,-1,0,-1,-2,-2
1529314320105851,0,-1,-2,-2,-2,-1,0,0
1529314320105851,2,-3,1,-2,-1,0,-1,-1
1529314320121147,0,0,-2,-1,-2,-1,0,0
1529314320121147,0,0,-1,0,-1,1,1,0
1529314320128087,0,-1,0,0,0,0,-1,1
1529314320128087,0,-1,0,-1,-1,1,0,-2
1529314320142856,-1,-2,-1,0,0,-2,0,-1
1529314320142856,-3,-2,-1,-2,-3,-1,-1,0
1529314320151236,-2,1,0,1,-1,-2,-1,0
1529314320151236,1,0,-1,2,-2,-1,0,0
1529314320166008,-1,1,-1,-1,1,0,0,-1
1529314320166008,-1,0,-1,0,0,1,0,-1
1529314320180971,0,-1,-1,0,0,0,0,-1
1529314320180971,-1,-2,-2,-2,0,-1,-1,0
1529314320188211,-1,-3,-1,-1,0,-1,-1,-1
1529314320188211,0,0,-1,-1,0,-2,1,1
1529314320203276,0,0,-2,0,0,-1,-1,1
1529314320203276,0,-1,0,-1,-1,-1,-1,0
1529314320210218,0,-1,-1,-1,-1,0,-1,0
1529314320210218,-1,-1,-1,0,0,1,-1,1
1529314320225416,1,0,1,-1,0,0,-1,-1
1529314320225416,1,-1,-2,-1,-1,-1,-1,0
1529314320240656,-2,1,-1,-1,0,1,1,-1
1529314320240656,0,0,-1,-1,-1,-1,-1,-1
1529314320248654,0,0,-2,0,-2,1,0,0
1529314320248654,-2,0,-1,0,-1,0,0,-1
1529314320263614,0,0,-1,-3,0,0,-1,1
1529314320263614,1,0,-1,-1,0,-1,-1,0
1529314320270590,-2,-1,0,0,-2,-1,0,-2
1529314320270590,-1,-2,0,-1,-2,0,0,-1
1529314320285559,0,-1,-3,0,1,-1,-2,-2
1529314320285559,-2,-2,-1,0,-1,-2,-1,-1
1529314320301145,-1,-1,-1,0,0,-1,0,-1
1529314320301145,-1,0,-1,-1,-1,1,-1,-1
1529314320308209,-1,-2,-1,0,-1,-1,1,1
1529314320308209,-1,1,-1,-2,-1,-2,-1,-1
1529314320322825,1,-1,-2,0,0,-1,1,-1
1529314320322825,0,0,0,-1,-1,-1,1,0
1529314320330814,-1,-1,1,-2,-1,1,-1,0
1529314320330814,0,0,-1,0,1,0,0,-1
1529314320346098,0,-1,0,-2,-2,-1,0,-1
1529314320346098,-1,0,0,0,1,-1,-1,0
1529314320360503,-1,1,0,-2,1,-2,-1,0
1529314320360503,-1,-2,-1,-1,-1,-1,1,0
1529314320368482,-1,1,0,-2,-1,-1,0,0
1529314320368482,0,-1,0,0,0,-1,-2,-1
1529314320383773,0,-1,-1,0,-1,0,-1,-1
1529314320383773,-1,-1,-1,1,-2,-1,-2,-1
1529314320390762,0,0,-1,-1,0,0,0,0
1529314320390762,0,-2,0,-1,-1,0,-2,0
1529314320406167,-2,0,-1,-1,0,1,-1,0
1529314320406167,0,-1,-2,0,-1,0,1,0
1529314320420212,-1,-2,-1,0,0,0,0,0
1529314320420212,0,-1,-1,-1,-1,-1,0,1
1529314320428422,0,0,-1,-1,-2,-2,-1,-2
1529314320428422,-1,-1,-1,-1,-2,0,1,0
1529314320443162,1,0,0,-1,0,-2,-1,-1
1529314320443162,0,-2,0,-1,-2,0,0,-1
1529314320458456,-1,-1,-2,0,0,1,-2,-1
1529314320458456,-1,0,1,1,1,0,0,-1
1529314320473339,0,-1,-2,-1,1,-2,-1,-1
1529314320473339,-1,0,0,0,-2,0,-2,-1
1529314320488078,0,-1,-1,-1,0,0,-1,-1
1529314320488078,-2,-2,0,-1,2,-1,-1,-1
1529314320496008,0,0,1,-1,-1,0,0,-1
1529314320496008,0,0,-2,-2,0,0,0,0
1529314320511244,0,-1,-1,0,-1,0,0,-1
1529314320511244,0,-1,0,-2,-1,-2,-2,0
1529314320525964,0,0,-1,-1,1,0,0,1
1529314320525964,-1,-2,0,0,0,-1,0,-1
1529314320540893,0,-1,-1,-1,-1,-1,-1,-1
1529314320540893,-2,-1,-1,0,-1,-1,-2,0
1529314320547873,0,-1,-1,-1,-1,0,0,-1
1529314320547873,-1,-1,-4,-1,-1,0,0,0
1529314320563192,-1,-1,-2,-1,-1,0,1,0
1529314320563192,0,-2,-2,-1,-1,-1,0,-2
1529314320571212,-1,0,0,-2,-1,-1,-1,-1
1529314320571212,0,1,0,0,-1,-1,0,-1
1529314320586188,0,-2,0,0,1,0,-1,-1
1529314320586188,-1,0,-2,-1,0,-2,0,-2
1529314320600131,0,0,0,-2,-1,0,-1,-1
1529314320600131,0,1,-1,0,-2,-1,0,-2
1529314320608496,0,-3,-1,-1,0,0,-1,-1
1529314320608496,-1,0,0,-1,2,1,-1,1
1529314320623722,-1,-2,1,0,1,0,0,-1
