timestamp,emg1,emg2,emg3,emg4,emg5,emg6,emg7,emg8
1528448011338046,-2,0,-2,0,0,-1,0,-1
1528448011338046,1,0,-1,0,-2,0,-1,0
1528448011339044,-1,0,1,0,0,-1,0,-1
1528448011339044,-1,-1,0,0,-1,0,-2,-1
1528448011339044,-1,-3,-1,-2,-1,-1,-1,0
1528448011339044,0,0,0,0,0,-1,-1,-1
1528448011341038,-1,-1,-3,-1,0,-1,-1,-1
1528448011341038,0,-1,0,0,-1,-2,1,-1
1528448011352009,-1,-1,0,0,0,0,-1,0
1528448011352009,1,-2,-1,-2,-1,0,-1,0
1528448011360990,0,1,0,1,-1,1,0,-1
1528448011360990,-1,-1,-1,-1,1,-1,0,-1
1528448011365972,-1,1,-2,-2,-1,-2,-2,-1
1528448011365972,0,0,-1,0,0,0,0,0
1528448011380931,-1,0,-2,-1,-2,0,-3,0
1528448011380931,0,1,-1,-1,0,0,-1,0
1528448011391902,-1,-2,-1,-1,1,-2,0,-1
1528448011391902,0,0,-1,-2,1,-1,-1,-1
1528448011395911,0,-1,1,-3,-1,0,0,-1
1528448011395911,0,0,-1,-1,0,1,-1,-1
1528448011411849,1,1,-1,2,1,2,0,-2
1528448011411849,-3,0,0,0,-1,1,1,0
1528448011419828,-1,-1,-2,0,-2,-3,0,-2
1528448011419828,1,-1,-1,-1,0,0,0,2
1528448011459722,-2,1,-2,-1,-1,0,-1,-1
1528448011459722,0,1,0,0,0,-4,-1,-1
1528448011460720,0,-2,-1,0,1,0,0,-1
1528448011460720,0,-1,-1,0,-2,1,0,-2
1528448011461717,-1,0,-1,-1,-1,-2,0,-1
1528448011461717,-1,-1,-1,-1,-1,0,0,1
1528448011463711,-1,-1,1,0,-1,0,0,2
1528448011463711,1,1,0,-1,-1,-3,-2,0
1528448011471689,0,-1,0,-1,0,-1,-2,0
1528448011471689,-1,-1,-1,-1,-1,-1,-1,-1
1528448011478671,-1,0,-1,-2,-2,-2,-1,-1
1528448011478671,-1,0,-1,-1,-2,-1,-1,0
1528448011487648,2,-1,0,0,0,0,1,0
1528448011487648,-1,-2,0,-1,-2,1,0,-1
1528448011500650,-1,0,0,-1,-1,0,-2,-1
1528448011500650,-1,-1,-1,0,-1,0,-1,-1
1528448011508646,1,-1,-2,-1,1,1,0,-1
1528448011508646,-1,0,-1,-1,0,-1,0,-2
1528448011515571,0,0,-1,0,-1,0,0,-1
1528448011515571,-2,0,-2,-1,1,0,0,-2
1528448011531529,0,-1,-1,1,0,-2,1,0
1528448011531529,-1,0,-1,-2,0,1,1,-2
1528448011539507,-2,-2,-2,0,-1,0,-1,-2
1528448011539507,1,-2,0,0,-2,-2,-1,0
1528448011545531,0,-2,1,1,-2,-1,-3,0
1528448011545531,-1,-1,-1,0,-2,0,1,-1
1528448011561468,-1,-1,0,-1,-1,-2,-1,0
1528448011561468,0,-2,-1,0,-1,-1,-2,0
1528448011569439,-1,0,-1,-1,-1,0,-3,1
1528448011569439,1,0,0,0,0,-2,-2,-1
1528448011575412,1,1,0,0,0,0,1,0
1528448011575412,-1,0,0,-1,1,0,-1,-1
1528448011592366,0,-1,-1,-1,-2,-1,2,0
1528448011592366,-2,-1,-1,0,0,-1,-1,0
1528448011598350,-1,-1,-1,-3,-1,-1,0,0
1528448011598350,1,0,0,-1,0,-2,0,1
1528448011606330,0,0,-1,0,-1,-3,-1,0
1528448011606330,0,-1,-1,0,-1,0,-1,0
1528448011620344,-1,-1,-2,0,-1,-1,-1,-1
1528448011620344,-1,-1,0,-3,-1,-1,-1,0
1528448011629321,-1,-1,0,-1,-1,-1,-2,-3
1528448011629321,-1,-1,0,0,0,-1,-1,0
1528448011636249,-1,0,-1,0,-1,-1,-1,0
1528448011636249,-1,-1,-2,-1,0,1,-1,-1
1528448011651210,0,-2,2,0,1,0,0,-1
1528448011651210,-1,1,0,0,1,0,1,0
1528448011658205,-1,-1,-1,0,-1,-1,0,-1
1528448011658205,-2,-1,1,0,-1,-1,-1,-1
1528448011666170,-1,-2,-2,-2,0,0,-1,-1
1528448011666170,0,-1,-1,-2,-2,-1,-1,0
1528448011681158,1,0,-1,-1,-1,0,1,-1
1528448011681158,-1,-1,-2,0,0,-2,-2,0
1528448011689137,-3,0,-1,-1,-1,0,0,-1
1528448011689137,0,0,0,-1,0,-2,-2,-1
1528448011696118,-1,-1,-1,-1,-1,1,-1,1
1528448011696118,0,-2,-1,-1,-1,0,0,0
1528448011711050,-1,-2,-1,0,1,2,0,-2
1528448011711050,-1,-1,-2,-2,0,-1,0,0
1528448011718031,-1,-1,-1,-1,0,-1,-1,-2
1528448011718031,0,0,-1,0,1,-2,-2,-2
1528448011726009,-1,0,-1,-3,-1,-1,-2,1
1528448011726009,-1,2,-1,-1,-2,-1,-2,-1
1528448011740969,2,-1,1,0,-1,-1,-2,-1
1528448011740969,0,-1,0,-1,-2,-1,-1,1
1528448011748948,0,1,-1,0,-2,-1,1,0
1528448011748948,-1,-2,0,-2,-1,0,-1,-1
1528448011762926,0,1,-1,-1,-1,-1,-1,-1
1528448011762926,-2,0,-1,0,-1,-2,0,-1
1528448011771886,0,0,-2,0,-1,0,0,-1
1528448011771886,0,1,-1,0,-1,0,0,0
1528448011777871,-1,-1,-1,-1,0,1,-1,-1
1528448011777871,-1,-2,-1,-1,-1,0,-1,0
1528448011794826,-1,-1,0,-1,-1,0,-1,-1
1528448011794826,-1,-1,0,1,-1,-1,0,-1
1528448011809785,-1,-1,0,-2,0,-2,0,-2
1528448011809785,0,1,0,-2,0,-1,0,0
1528448011810783,-2,-1,0,0,1,-1,-2,-1
1528448011810783,1,-2,-2,0,1,-1,-3,-1
1528448011823748,-1,0,-2,0,-2,-3,-1,0
1528448011823748,-1,-1,-1,-1,-2,-1,-1,-2
1528448011832724,0,0,-1,-2,-1,1,-2,0
1528448011832724,-1,-2,0,-1,0,-1,0,0
1528448011838708,-1,0,0,0,0,-1,0,-1
1528448011838708,-2,-2,0,0,-1,0,-1,0
1528448011854668,0,-1,1,-2,-2,-2,-1,-1
1528448011854668,1,-2,-2,-2,-2,2,1,0
1528448011860651,-1,-1,-1,0,1,0,-1,0
1528448011860651,0,-1,0,1,0,0,1,-1
1528448011869628,-1,-1,0,0,-1,-2,0,-2
1528448011869628,1,-1,-1,0,0,0,-1,-1
1528448011883589,-1,0,1,0,-1,-2,0,0
1528448011883589,1,1,-1,-1,-1,0,1,-2
1528448011892565,0,0,-1,-1,0,-1,-1,-1
1528448011892565,-3,-1,-2,-2,-2,-1,0,-1
1528448011898549,0,0,-1,-2,0,1,0,-1
1528448011898549,0,-1,0,-1,1,0,-2,1
1528448011914506,0,-1,-1,0,1,0,-1,0
1528448011914506,0,0,1,1,0,-3,-2,0
1528448011920491,1,-1,-2,1,1,-1,0,0
1528448011920491,0,1,-2,-1,-2,-2,0,-1
1528448011929467,0,0,-1,-1,-3,1,0,-1
1528448011929467,-1,0,-1,0,0,-1,0,-2
1528448011943431,0,1,0,0,0,0,0,1
1528448011943431,-2,-2,0,0,0,-1,0,0
1528448011952404,-1,0,0,-1,0,-2,-2,-2
1528448011952404,-1,0,2,0,-1,-1,-1,0
1528448011965369,-3,-1,-3,0,-2,-1,-2,-3
1528448011965369,-1,-1,-2,-1,-2,0,0,0
1528448011974345,0,-1,0,1,-1,0,0,-1
1528448011974345,-2,-2,-1,0,-1,-1,-1,-1
1528448011989305,0,0,0,-2,-2,0,-2,-1
1528448011989305,0,0,0,-1,0,1,0,0
1528448011991300,-2,-3,-2,-1,1,-1,-1,1
1528448011991300,0,0,-1,0,0,1,0,0
1528448012003268,-2,-2,-1,0,0,-1,-1,0
1528448012003268,-2,-1,-2,0,0,-1,0,-1
1528448012012245,0,0,-1,-1,0,1,0,1
1528448012012245,-1,-1,1,-1,-2,-1,-1,1
1528448012018228,-2,0,-2,-2,-2,0,0,0
1528448012018228,0,0,1,0,0,-1,-1,-2
1528448012035184,-1,-1,0,-1,-1,0,0,-1
1528448012035184,-1,-2,-2,-1,0,-1,-1,-2
1528448012041167,0,-1,0,0,-1,-1,-1,0
1528448012041167,-2,-1,0,-1,0,-1,-1,-1
1528448012050143,-2,-1,-2,-2,-2,0,1,-2
1528448012050143,-1,-1,1,-1,0,1,0,1
1528448012063108,0,0,-1,1,-1,-1,-2,-2
1528448012063108,0,1,0,0,-1,-1,-2,-1
1528448012072094,-1,0,-1,-1,0,-2,-2,0
1528448012072094,-1,1,0,-1,-2,-2,0,-1
1528448012086047,-1,0,-1,-2,-1,-1,0,0
1528448012086047,-1,-1,-2,-1,0,-2,-1,1
1528448012095023,-1,1,0,0,-1,-1,0,0
1528448012095023,-1,0,0,-1,-1,-2,0,0
1528448012101007,-2,-2,0,-1,0,1,0,-2
1528448012101007,-2,-2,-2,-2,0,-1,0,0
1528448012109984,-1,-1,-1,-1,-1,0,-2,1
1528448012109984,1,0,-2,1,-1,1,-1,-1
1528448012122949,0,0,0,-2,-1,-1,0,-1
1528448012122949,1,-1,1,-1,-1,0,0,-1
1528448012131924,-1,0,0,-1,0,-2,0,-1
1528448012131924,0,0,-2,0,0,-1,-1,0
1528448012137908,0,-1,-1,0,1,-1,1,0
1528448012137908,0,0,-1,1,-1,-1,-3,-1
1528448012154864,0,-1,-1,-2,-1,1,0,0
1528448012154864,-1,-1,1,-1,-1,0,-2,-1
1528448012160852,2,0,0,1,-1,-3,-1,0
1528448012160852,-1,-1,-1,-1,0,-1,2,0
1528448012169824,-1,0,0,0,0,-1,-1,0
1528448012169824,0,-2,0,-1,-1,-1,2,-1
1528448012183786,-2,-2,-2,-2,0,0,-1,-2
1528448012183786,0,0,-1,0,-2,1,0,0
1528448012191792,1,-1,-1,0,-2,-1,0,-2
1528448012191792,0,-1,-1,-2,-1,-1,1,-1
1528448012198746,0,1,-2,1,0,0,0,0
1528448012198746,-2,0,0,-1,-1,0,-2,-1
1528448012214705,-2,-1,0,0,-1,-1,1,0
1528448012214705,-2,0,0,0,0,0,-1,0
1528448012220689,1,0,0,-1,1,-1,0,1
1528448012220689,-1,-2,-2,0,0,-1,-3,-2
1528448012229664,-1,0,-2,-1,-1,-1,-1,-1
1528448012229664,-1,0,0,0,0,-1,0,-1
1528448012243626,0,0,0,0,0,2,-1,0
1528448012243626,0,0,0,-1,-1,-1,0,0
1528448012252603,-1,-1,-1,-1,0,-1,0,-2
1528448012252603,-2,-2,-1,-2,-3,-1,-1,0
1528448012258586,0,-1,-1,0,-1,-1,0,0
1528448012258586,1,0,-1,-1,1,-3,-1,-1
1528448012274544,0,0,0,1,1,0,1,1
1528448012274544,1,0,-1,-1,-2,-1,0,0
1528448012280584,-1,-2,1,1,-1,1,0,0
1528448012280584,0,-2,0,0,-1,0,-1,-1
1528448012289532,-2,0,-2,-1,0,0,-1,-1
1528448012289532,-1,-1,-1,-1,-1,0,-3,-1
1528448012303493,-2,0,1,-1,0,-1,0,0
1528448012303493,0,1,0,0,-1,0,0,-1
1528448012312443,0,-2,0,0,0,0,-1,0
1528448012312443,-1,-2,-1,-2,0,0,-1,1
1528448012318479,1,-1,0,-2,0,-1,-1,-1
1528448012318479,-1,-1,-1,0,-3,0,0,0
1528448012334384,0,0,-1,1,-3,-1,-1,0
1528448012334384,1,0,0,0,1,-1,-1,0
1528448012340368,0,1,0,-1,0,0,-2,0
1528448012340368,0,0,-2,-1,0,-1,-1,-1
1528448012349344,-1,-3,-1,1,-1,-3,-2,-2
1528448012349344,-1,-1,-1,-1,-1,-2,0,-1
1528448012363306,-1,-1,-1,0,-1,-2,1,-1
1528448012363306,-1,-1,0,-1,0,1,-1,0
1528448012372283,0,-1,0,0,0,0,1,0
1528448012372283,0,1,-2,0,0,0,0,-1
1528448012378268,0,-1,0,-1,-2,0,0,-1
1528448012378268,1,0,-1,-1,-1,-1,0,-1
1528448012395221,-1,0,0,0,-1,-2,-1,1
1528448012395221,-1,-1,-1,0,0,-1,0,0
1528448012401205,-1,0,-1,-1,-1,0,1,-1
1528448012401205,-2,-1,-1,0,-1,0,-1,1
1528448012410210,-2,-1,0,-1,0,0,-2,-1
1528448012410210,-1,-1,-1,0,-2,-1,-1,0
1528448012423021,1,-2,-2,1,-1,-1,-1,-1
1528448012423021,0,0,0,-1,-1,-2,0,-2
1528448012431997,0,-1,-2,-1,0,-1,-1,0
1528448012431997,-1,-2,1,-1,1,0,-1,0
1528448012445954,-1,-1,-2,0,-2,-2,-3,0
1528448012445954,0,1,1,0,-1,-1,-1,-1
1528448012455236,0,0,-1,-2,-1,-1,-1,0
1528448012455236,-1,0,-1,-1,-2,0,-1,-3
1528448012470223,0,-1,-1,-2,-1,-3,1,1
1528448012470223,-2,-1,0,-1,0,0,0,0
1528448012471116,1,0,0,-1,-1,0,0,-1
1528448012471116,0,1,-1,1,0,0,0,0
1528448012483243,-2,0,-1,0,1,0,-2,-2
1528448012483243,1,0,-2,1,-1,-2,0,1
1528448012492108,0,-1,0,-2,-1,-1,0,-1
1528448012492108,-1,-1,1,-1,0,0,0,-1
1528448012506211,0,0,-1,-1,-2,0,-1,-1
1528448012506211,1,-2,-2,-2,-1,1,0,1
1528448012515248,-1,0,-1,0,0,0,-1,-1
1528448012515248,-1,-1,-2,-1,1,-1,-1,-1
1528448012529211,-3,-1,-1,0,0,-2,0,-1
1528448012529211,0,-2,0,0,0,-1,-2,0
1528448012531218,0,0,0,0,-2,-2,-1,0
1528448012531218,1,-1,-1,0,0,-1,0,-1
1528448012543183,0,0,0,-1,-1,1,0,1
1528448012543183,-1,-2,-1,-2,1,1,-1,0
1528448012552903,0,-1,-1,1,-1,1,-1,-1
1528448012552903,-1,0,0,-1,-1,0,0,-1
1528448012567030,0,-1,-1,-1,-1,-2,0,-2
1528448012567030,-1,0,1,-1,0,-1,0,-2
1528448012573024,1,1,-2,-1,0,-1,-1,-1
1528448012573024,0,-2,-2,0,-1,-2,-1,1
1528448012605512,-2,0,-2,-1,0,0,-2,0
1528448012605512,-1,-1,-1,-1,-2,-1,0,-1
1528448012607486,-1,-1,-1,-1,0,-2,0,0
1528448012607486,-1,0,0,0,-1,-3,0,-1
1528448012608497,0,-2,-2,-2,-1,-1,-1,0
1528448012608497,0,2,-2,0,0,-1,-1,-1
1528448012612329,-1,-1,0,-1,-2,-1,-1,0
1528448012612329,0,-1,-1,1,0,0,-1,0
1528448012626663,1,-1,0,-2,-1,0,-1,0
1528448012626663,-3,-2,-2,-1,0,1,-1,-1
1528448012640977,-2,0,0,-1,-1,-2,-1,1
1528448012640977,2,-2,-1,-2,-1,0,0,-1
1528448012649953,-1,0,-1,0,1,-3,-3,-2
1528448012649953,1,0,-1,-1,-1,0,-1,0
1528448012651867,0,-1,0,1,0,1,0,0
1528448012651867,-1,-1,0,-1,-2,-1,-3,-1
1528448012662919,-2,0,-1,-1,1,0,-1,0
1528448012662919,1,0,-1,-1,-1,-1,0,-1
1528448012672870,-2,-2,0,0,0,-1,0,0
1528448012672870,0,0,0,-1,-1,0,-1,-1
1528448012686853,0,-1,0,0,-3,0,-1,-1
1528448012686853,-2,1,1,0,0,-1,-1,0
1528448012693693,0,0,0,-2,-1,0,-1,-1
1528448012693693,0,-1,1,-1,0,1,-1,0
1528448012710162,-1,-1,0,-1,-2,-1,-1,0
1528448012710162,-1,-1,-2,1,-1,-1,-1,0
1528448012710980,0,-1,0,-1,-1,0,-1,-1
1528448012710980,-1,-1,-2,-3,0,-1,0,0
1528448012723154,0,1,-1,0,0,0,0,-1
1528448012723154,0,0,-1,1,-1,-1,0,0
1528448012732146,-1,-1,-1,-1,-1,-1,-1,0
1528448012732146,-1,0,0,-2,-1,-1,-2,0
1528448012746093,-1,0,1,-1,0,0,1,1
1528448012746093,1,-2,0,-3,0,1,2,-1
1528448012753114,1,-1,0,-1,1,0,-1,0
1528448012753114,0,-2,2,0,0,-1,0,-1
1528448012770057,0,-1,-2,-2,1,0,-1,-1
1528448012770057,0,-1,0,-1,-1,-2,-1,0
1528448012771027,-1,-2,-2,0,-1,0,0,-2
1528448012771027,-1,0,-3,2,-2,-1,-2,-2
1528448012783154,1,0,0,0,-2,-1,-1,-2
1528448012783154,-1,0,0,0,-1,-1,0,-1
1528448012792091,-1,0,-2,-2,-1,1,-2,-1
1528448012792091,-1,1,0,1,-1,-1,1,0
1528448012806220,-1,-1,-1,-1,-1,0,-2,0
1528448012806220,0,-1,-2,-1,0,-1,-1,-1
1528448012813202,0,-2,-2,0,0,-2,-1,-1
1528448012813202,-1,-1,-2,0,-2,-2,-1,1
1528448012829995,0,0,-1,0,-2,0,0,-1
1528448012829995,-1,1,0,-2,-1,-1,-1,-1
1528448012830990,-1,1,0,-1,-1,-1,-2,1
1528448012830990,0,1,-3,-1,-1,1,0,0
1528448012842957,-1,-1,-1,0,0,-2,-1,0
1528448012842957,-1,-1,1,-1,-1,-3,-2,-1
1528448012851946,1,0,0,0,0,1,1,0
1528448012851946,-1,0,-1,-2,1,-2,-2,0
1528448012866896,1,0,0,0,-1,0,0,0
1528448012866896,-1,-2,-1,-1,-1,-1,0,-1
1528448012873089,-1,-1,-2,0,0,-1,-2,0
1528448012873089,-1,-2,1,1,-1,-2,-2,-1
1528448012897187,0,-2,0,-1,1,1,-1,1
1528448012897187,1,-1,1,1,0,0,-3,0
1528448012899034,0,-1,-2,-2,-3,-2,-1,-2
1528448012899034,-1,-1,-1,-1,0,1,-1,-1
1528448012903011,-2,0,-1,-1,0,-1,-1,-1
1528448012903011,-2,-1,-1,-1,-1,0,0,0
1528448012920322,-1,0,1,-1,-2,0,1,0
1528448012920322,-1,-1,-1,0,0,0,-2,0
1528448012926686,0,0,-1,-1,-1,-2,0,-2
1528448012926686,0,-1,1,-2,0,0,1,-1
1528448012933532,0,-2,0,1,-2,0,-2,1
1528448012933532,0,1,-3,0,-1,-1,1,-1
1528448012949618,0,-2,-3,0,-1,0,-2,-1
1528448012949618,1,0,-1,1,-1,-1,-2,0
1528448012951454,-1,1,-1,-1,1,1,-1,0
1528448012951454,0,-1,0,-1,-1,-1,0,1
1528448012963586,1,-1,-1,-1,-2,-1,-1,0
1528448012963586,-1,0,-1,-1,0,1,-1,-2
1528448012972747,-2,0,0,-2,-2,0,-1,-2
1528448012972747,-1,0,0,1,1,0,0,-2
1528448012986728,-1,-1,0,0,0,-1,0,0
1528448012986728,0,-1,-2,-1,-1,-1,-1,1
1528448012993565,-2,-1,0,0,0,0,-1,0
1528448012993565,1,-1,0,-2,-1,-1,-2,-1
1528448013008852,0,1,-1,1,-1,-1,0,0
1528448013008852,-2,-1,-1,0,-1,-1,1,-1
1528448013015889,-2,0,-1,-1,-1,-2,0,-1
1528448013015889,0,-1,1,-2,-1,1,0,-2
1528448013023866,-2,-1,1,-2,-1,-1,0,0
1528448013023866,0,-1,0,0,0,0,-2,0
1528448013032701,0,-1,-3,-1,0,-1,-2,-1
1528448013032701,-2,-2,0,-1,0,-1,0,-1
1528448013046799,0,1,0,-1,-2,-1,-2,0
1528448013046799,-1,-1,-1,1,0,1,2,-2
1528448013053783,-1,-1,0,-1,1,-1,0,0
1528448013053783,-1,-1,-3,1,1,0,0,0
1528448013068745,0,-1,-1,-3,-2,-1,0,-2
1528448013068745,-1,-1,-1,0,-2,0,-1,0
1528448013075721,0,1,0,-2,0,-1,-1,-1
1528448013075721,-1,0,0,-2,-2,0,-2,-2
1528448013083641,0,-1,-2,-1,0,-1,-2,-1
1528448013083641,2,-1,0,-1,-1,-2,0,-2
1528448013092776,-1,-1,-2,0,-2,-2,0,0
1528448013092776,0,-2,-2,-1,-1,-1,-2,-1
1528448013106803,-2,0,-2,-1,0,0,-1,0
1528448013106803,-1,0,0,-1,0,0,0,-1
1528448013113897,-1,-1,1,0,0,-1,-1,0
1528448013113897,0,0,0,-2,0,0,0,-1
1528448013129017,0,0,2,0,0,-1,0,-2
1528448013129017,0,1,0,-1,0,0,-1,0
1528448013135840,0,-2,-3,-1,-1,-1,0,-1
1528448013135840,0,0,0,1,-1,-1,-1,1
1528448013143782,-1,-3,-1,0,-1,0,-1,-1
1528448013143782,-2,-1,-2,-1,0,-2,-1,0
1528448013152758,0,0,-1,0,-2,1,-1,-1
1528448013152758,-1,0,-1,-2,0,-2,0,-2
1528448013174842,-2,-1,-1,-1,0,0,1,0
1528448013174842,-2,0,-1,-1,-1,-1,-1,-1
1528448013176693,1,0,0,-1,-1,1,0,-1
1528448013176693,-1,0,-1,-2,0,-1,-1,0
1528448013188802,0,-1,-1,-1,0,0,-2,-1
1528448013188802,-2,-1,-2,-1,-1,0,-1,-1
1528448013195800,-1,-1,-1,2,1,-4,-1,0
1528448013195800,-2,-1,-2,0,-1,-1,0,0
1528448013212754,0,1,0,1,-2,0,-1,1
1528448013212754,0,0,-1,0,-1,2,-1,-1
1528448013213754,0,0,-1,-2,-1,0,-1,-1
1528448013213754,-1,0,-1,-1,-2,1,-1,1
1528448013226760,-1,0,-2,0,0,-3,0,0
1528448013226760,0,0,-1,-1,0,-2,0,0
1528448013233849,-2,0,0,-1,-2,0,0,-1
1528448013233849,0,-2,0,-1,-1,0,-1,-1
1528448013248817,0,0,-1,0,3,0,1,0
1528448013248817,-1,1,-2,0,0,-2,-2,-1
1528448013255798,1,-1,-2,0,1,-4,-2,0
1528448013255798,1,-2,-1,-1,-1,1,-1,0
1528448013271796,-1,-1,-1,-1,-3,0,-2,-1
1528448013271796,1,0,-1,1,2,0,-1,0
1528448013273794,-1,0,-2,-1,0,-3,0,0
1528448013273794,1,1,-1,1,-1,-1,-1,0
1528448013286807,-1,1,-1,0,0,1,0,-2
1528448013286807,0,-2,1,-1,-3,-2,0,-3
1528448013293768,-2,-1,-3,-3,-2,1,0,-1
1528448013293768,0,-1,-1,-1,0,-2,0,0
1528448013309393,1,-2,0,-1,-2,-1,-1,-1
1528448013309393,0,2,0,-1,-2,-2,0,-1
1528448013316389,0,-1,-1,-1,-2,0,-1,-1
1528448013316389,-2,0,1,0,-1,-1,-2,-2
1528448013332491,-2,-2,-2,-2,-1,0,-2,0
1528448013332491,1,0,-2,-1,-1,0,0,1
1528448013334362,-1,-2,1,-1,-1,0,-2,0
1528448013334362,0,0,-1,0,0,-1,1,-1
1528448013346300,0,-1,-1,0,-1,-1,0,0
1528448013346300,-2,0,-1,-1,0,-3,0,-1
1528448013361257,-1,0,0,0,2,1,1,-1
1528448013361257,-1,-2,-1,0,0,-1,-1,0
1528448013369236,-1,-1,-2,-1,-3,-2,1,0
1528448013369236,1,-2,-1,-1,-2,0,0,0
1528448013376315,1,0,-2,0,-1,0,0,0
1528448013376315,0,-2,0,0,-1,0,-1,-1
1528448013392286,0,-1,-1,0,0,-1,-1,-2
1528448013392286,-2,-1,-2,-2,0,-2,-1,0
1528448013393231,-2,-1,-2,-2,-1,0,-2,-1
1528448013393231,0,0,-1,-1,0,-1,0,1
1528448013406196,0,0,1,-1,-1,-2,0,-1
1528448013406196,-1,-2,0,0,-1,0,0,-1
1528448013413177,1,1,0,1,1,-2,-2,0
1528448013413177,-1,1,-1,-2,-2,0,-1,-1
1528448013429136,0,0,0,-2,0,0,-3,-1
1528448013429136,0,-1,0,1,2,2,-1,-1
1528448013436116,-1,0,0,-1,-1,0,0,0
1528448013436116,1,-1,-1,0,0,0,-2,-2
1528448013452073,-1,0,-2,-2,0,-1,1,0
1528448013452073,0,-1,0,-2,-1,-1,-2,1
1528448013454068,-1,-1,1,0,0,-2,-1,-1
1528448013454068,-2,0,-1,-2,-1,0,-1,0
1528448013475012,-2,0,-1,1,-2,-1,0,-2
1528448013475012,0,0,-2,0,1,-1,-1,-1
1528448013476030,1,-1,0,0,0,0,1,0
1528448013476030,1,-2,0,-1,-2,0,-1,-1
1528448013489029,0,0,0,0,-2,-1,0,0
1528448013489029,-1,1,1,-1,0,2,0,1
1528448013496011,-1,-2,0,-2,-1,0,0,-2
1528448013496011,-3,1,-2,-1,-1,-1,-1,-2
1528448013519947,-1,-1,0,-1,0,0,1,1
1528448013519947,0,1,0,0,-2,-1,0,-2
1528448013520944,-1,-3,0,-1,-1,0,-1,0
1528448013520944,0,0,-1,-3,-2,-2,-1,0
1528448013525933,0,-1,0,-1,0,0,-1,0
1528448013525933,0,-1,-2,-2,-3,-2,-2,-2
1528448013534852,0,0,-2,0,-2,0,1,-1
1528448013534852,0,0,-1,-1,-3,-1,-2,-2
1528448013548870,0,-2,-1,-1,0,-2,-2,-1
1528448013548870,-1,-2,0,-1,-2,1,0,0
1528448013555851,-1,0,-2,0,-2,-1,0,0
1528448013555851,-2,-1,0,0,-2,0,1,-1
1528448013571754,-1,-2,-1,1,0,0,0,0
1528448013571754,-2,-1,-2,-1,-1,-1,0,1
1528448013573748,1,0,-2,-1,-2,-2,-2,-2
1528448013573748,0,-1,0,1,2,0,1,0
1528448013586714,-1,-1,-1,-2,-2,-1,-2,-1
1528448013586714,-2,-3,-2,-1,-4,2,0,-2
1528448013593695,0,0,0,1,3,-2,-2,1
1528448013593695,-1,-1,1,0,1,-1,1,-1
1528448013609653,0,0,-1,-1,1,0,0,0
1528448013609653,-1,-1,-1,0,0,-1,0,0
1528448013615637,-2,-1,0,1,0,-1,-1,-1
1528448013615637,1,-2,-1,-1,0,0,1,1
1528448013632609,-2,0,-1,1,1,-1,-1,-1
1528448013632609,-1,0,-1,-1,0,-2,-4,0
1528448013633604,-1,1,-1,2,2,-1,-2,-2
1528448013633604,0,0,-2,-2,-2,1,-2,-1
1528448013646554,-1,0,-1,-3,-4,0,0,-2
1528448013646554,-1,0,-1,0,-3,-5,-4,-1
1528448013653535,0,1,1,1,2,1,1,2
1528448013653535,1,1,-2,3,5,0,0,0
1528448013668495,-1,-1,-1,0,-4,-2,-4,-2
1528448013668495,-1,-1,0,0,0,1,2,-1
1528448013675476,-2,-3,-2,-4,-2,3,3,-1
1528448013675476,0,-1,0,-2,-4,-2,-2,-1
1528448013692432,-1,0,1,3,3,-3,0,-1
1528448013692432,0,0,1,2,-2,-1,-1,0
1528448013693441,-2,-2,-4,-2,-7,-4,-3,-3
1528448013693441,-1,1,-1,-1,-1,-3,-1,0
1528448013705397,-1,-1,-1,-2,-4,-2,-1,0
1528448013705397,-1,-4,-1,-3,-1,-1,-1,-1
1528448013714558,-1,-1,1,0,1,-2,0,2
1528448013714558,-1,0,-3,-1,-1,-1,0,0
1528448013729491,0,-1,-1,-1,1,-1,-1,0
1528448013729491,1,0,1,2,5,-2,0,0
1528448013736345,1,0,-1,-1,-3,1,-1,0
1528448013736345,-2,0,0,0,-1,-1,-1,0
1528448013752433,0,-3,-1,-1,3,1,3,-2
1528448013752433,-1,0,-2,-2,0,0,0,0
1528448013754277,-2,-2,-1,-2,-1,1,1,0
1528448013754277,-2,-1,0,-3,-1,0,-1,0
