timestamp,emg1,emg2,emg3,emg4,emg5,emg6,emg7,emg8
1529288762058638,0,-1,-1,-1,-5,1,0,-4
1529288762058638,4,3,2,3,3,13,-6,-5
1529288762060630,-4,0,-3,1,0,0,-7,-9
1529288762060630,2,-1,-6,-10,-8,1,-8,-12
1529288762060630,0,1,-1,8,2,6,1,-5
1529288762060630,1,4,-1,5,-4,3,4,6
1529288762063659,0,-2,-6,-7,-5,-1,4,8
1529288762063659,1,0,-4,0,1,3,-1,8
1529288762071601,-4,-5,-1,-6,3,2,-3,-2
1529288762071601,-7,-3,-1,-8,2,-1,-4,-4
1529288762079580,-8,3,4,-4,0,6,1,0
1529288762079580,-10,-1,1,-2,-6,-5,-3,-4
1529288762085604,-1,2,3,4,3,2,6,2
1529288762085604,-2,-5,-2,0,4,-3,5,3
1529288762101520,4,1,-1,-9,-14,-12,-2,2
1529288762101520,2,-3,7,13,16,2,0,-1
1529288762109499,1,-3,4,-2,-2,-9,-3,0
1529288762109499,-3,0,-5,-3,3,10,7,-7
1529288762115483,3,-3,-6,10,10,3,5,-7
1529288762115483,7,2,0,1,-4,-1,-4,2
1529288762131475,3,-5,2,-4,-2,3,-7,2
1529288762131475,-1,-4,6,-2,1,-3,-3,2
1529288762139445,1,2,5,2,5,2,-2,0
1529288762139445,-4,-4,-4,-8,-5,1,-4,-8
1529288762178315,2,3,0,4,0,1,5,-2
1529288762178315,-4,-7,-4,1,2,0,-1,-6
1529288762180312,2,-1,-3,-1,1,1,0,0
1529288762180312,2,-2,-2,2,2,2,-4,0
1529288762181308,0,2,-5,-1,-3,1,-3,1
1529288762181308,-5,6,-6,-1,-5,-4,-5,-7
1529288762183339,2,7,0,4,-5,4,12,13
1529288762183339,-4,-1,3,12,7,1,-1,-6
1529288762191299,-7,-4,0,1,8,9,1,-3
1529288762191299,-1,0,3,0,0,-1,4,4
1529288762199262,-6,-4,-5,-15,-12,-4,-1,-3
1529288762199262,1,7,8,-1,-3,0,10,4
1529288762205244,1,6,6,2,3,3,-1,3
1529288762205244,4,5,3,0,1,0,-6,0
1529288762222199,-2,2,-3,5,1,-5,-10,-4
1529288762222199,-1,-5,-7,-6,-6,10,3,-1
1529288762228182,-4,-6,-5,1,-1,-6,-6,0
1529288762228182,2,2,4,0,4,4,4,6
1529288762236196,-2,7,-2,-4,5,-3,-1,1
1529288762236196,0,-3,-6,-4,-7,-9,0,7
1529288762251122,1,0,-2,0,-8,-3,5,4
1529288762251122,3,-2,0,1,-2,-1,0,2
1529288762258130,-2,1,5,4,0,-6,-6,-6
1529288762258130,-3,4,1,-3,3,3,-1,0
1529288762265119,-2,-4,2,-2,2,-2,7,2
1529288762265119,2,-1,0,1,-3,-5,-4,-7
1529288762282039,2,-8,-2,0,1,7,5,-9
1529288762282039,0,-3,-2,-7,1,3,-2,-11
1529288762288022,3,-1,1,-2,-12,0,-1,-5
1529288762288022,-4,1,-5,1,1,-1,0,2
1529288762295007,-7,-2,-5,-5,-3,-4,-7,1
1529288762295007,-11,-1,-2,1,3,-10,-12,-7
1529288762310961,-1,5,1,-3,6,-5,3,15
1529288762310961,-4,1,4,-1,0,-2,2,-2
1529288762317942,12,2,1,3,-2,-1,9,4
1529288762317942,1,-3,-4,1,-1,-5,2,-17
1529288762324924,9,-2,-4,-4,-1,5,6,12
1529288762324924,-4,-6,1,2,1,3,-3,2
1529288762339930,-6,-7,5,0,8,9,-3,6
1529288762339930,-2,-5,4,-1,-1,4,-5,6
1529288762348861,-1,-5,-3,0,0,4,-6,-6
1529288762348861,6,2,-6,-3,-9,0,0,-1
1529288762354846,-5,2,-6,1,-5,-1,0,-7
1529288762354846,-4,8,-5,-2,-2,-4,3,0
1529288762370801,-7,2,0,2,-4,-5,-2,-5
1529288762370801,5,-3,-1,-2,-6,-4,-2,2
1529288762377783,2,0,4,5,5,1,-3,-7
1529288762377783,6,-2,0,-1,-1,-2,6,1
1529288762384798,0,2,-2,-4,1,-2,3,-4
1529288762384798,-6,-3,1,-1,2,-12,-14,-14
1529288762400741,7,2,1,-2,0,1,7,17
1529288762400741,5,-1,5,1,3,6,1,13
1529288762416712,-2,-2,3,-4,0,7,0,-9
1529288762416712,-2,1,2,0,-3,7,1,-2
1529288762418704,-4,3,4,4,-6,-5,-11,-9
1529288762418704,-4,-1,-2,-3,1,-4,1,-2
1529288762430641,-7,-6,-6,0,0,-6,-4,-6
1529288762430641,-5,1,-9,-8,0,2,11,-2
1529288762437622,-7,-2,-2,-5,-2,-2,2,-6
1529288762437622,2,1,1,-1,-1,0,-7,0
1529288762445601,-6,-1,-2,-6,-4,-8,-7,0
1529288762445601,2,-1,-2,5,2,3,3,1
1529288762460561,2,0,-3,2,0,-3,1,2
1529288762460561,1,3,1,2,0,-5,1,2
1529288762469573,2,0,5,-3,1,1,-5,-4
1529288762469573,4,1,8,-4,4,8,3,9
1529288762482503,2,-11,2,-6,-1,-6,-6,-5
1529288762482503,-1,-5,-3,0,-4,-1,-4,3
1529288762491478,2,1,-4,7,0,2,4,6
1529288762491478,-2,-2,-3,2,1,-1,2,3
1529288762497508,1,5,-4,1,3,5,1,0
1529288762497508,3,-2,-4,-4,-4,-5,-1,6
1529288762514418,4,0,1,1,-1,-4,-4,-5
1529288762514418,-1,-1,-1,1,2,1,-3,-2
1529288762520402,-6,-3,3,2,1,-4,-1,-7
1529288762520402,-8,2,0,3,1,-1,0,-9
1529288762529379,-2,2,0,0,-4,0,-1,-6
1529288762529379,-2,-1,-4,-6,-6,-6,-3,-6
1529288762542342,-5,0,-1,0,0,-1,-2,0
1529288762542342,-2,3,2,3,-2,3,3,9
1529288762551320,5,-1,2,-2,3,2,1,5
1529288762551320,6,-4,-2,-2,4,-2,-3,5
1529288762557302,2,1,-1,-3,-4,1,0,5
1529288762557302,-2,-2,-1,-1,0,1,5,-1
1529288762582236,-1,-1,4,2,4,2,0,-9
1529288762582236,-2,-3,-3,-3,-4,-2,-4,-6
1529288762583235,-2,3,-2,0,-1,0,4,-6
1529288762583235,1,2,-3,-1,-1,-2,-4,0
1529288762589217,3,5,4,1,0,-5,4,8
1529288762589217,-2,3,6,4,-2,0,-4,1
1529288762603180,-6,-3,3,9,8,2,-4,-5
1529288762603180,2,0,3,1,0,0,1,9
1529288762612156,-1,-6,-9,-7,-2,3,-3,-6
1529288762612156,-1,-3,-3,-5,-4,-10,0,10
1529288762618141,-2,1,0,-5,-2,0,-3,-8
1529288762618141,-2,-2,-1,-7,0,-3,-2,-2
1529288762634097,0,-1,2,4,9,-2,-6,-8
1529288762634097,-2,-2,-3,-1,-3,0,5,-4
1529288762640116,6,-2,-2,1,4,1,2,8
1529288762640116,4,-3,-1,6,-9,-3,0,-4
1529288762649057,3,3,-1,2,0,4,7,16
1529288762649057,-4,5,5,3,0,-3,-16,-10
1529288762663066,-5,-1,-2,-3,5,1,-6,-11
1529288762663066,4,-2,4,0,4,-3,6,7
1529288762672031,-3,-2,1,-3,-2,-4,5,0
1529288762672031,-3,-6,0,-5,-2,-1,9,1
1529288762677980,-3,-3,1,0,2,1,0,-2
1529288762677980,-2,1,0,2,-1,-2,-27,-15
1529288762693938,-3,3,-8,0,-12,0,12,-4
1529288762693938,5,6,-3,-8,-4,-2,9,24
1529288762699954,-5,0,-2,11,6,5,-1,-17
1529288762699954,4,2,-1,-9,-3,7,9,16
1529288762708897,6,-1,4,5,8,-3,-3,-1
1529288762708897,-8,-1,6,4,-2,-3,-7,-19
1529288762722860,1,0,-1,-6,-7,1,18,15
1529288762722860,-10,-6,-10,-16,-8,-7,-1,0
1529288762731836,7,2,-1,-1,-4,-7,-7,2
1529288762731836,3,1,-4,0,-5,-3,-4,-3
1529288762737821,2,-1,-1,-2,3,-2,-20,-12
1529288762737821,-2,-3,-1,-1,-1,2,11,1
1529288762753810,-18,-10,-13,-13,-7,-10,-7,1
1529288762753810,-3,-2,-1,11,6,-1,5,1
1529288762759808,4,5,0,4,-8,-2,3,3
1529288762759808,9,2,-1,-5,0,8,0,5
1529288762775758,4,0,2,3,2,5,3,-2
1529288762775758,-3,-8,-2,-5,4,2,-9,-13
1529288762782702,0,-6,-1,-8,-7,-5,4,11
1529288762782702,-3,2,1,3,2,-5,-2,-7
1529288762791676,-4,-1,-1,0,1,2,-4,-4
1529288762791676,-2,-1,-3,-1,-2,3,2,-1
1529288762797699,1,-1,6,5,-4,1,-4,1
1529288762797699,3,7,4,4,-5,6,1,-4
1529288762814616,1,7,0,1,-12,4,-1,-6
1529288762814616,14,7,-5,-1,0,13,17,20
1529288762820637,-5,-11,-10,-9,-2,2,8,6
1529288762820637,0,-3,1,1,12,-4,8,5
1529288762829575,-8,-10,-3,-3,11,-9,-18,-13
1529288762829575,4,-2,5,4,17,1,10,18
1529288762842543,1,5,8,1,6,2,-3,5
1529288762842543,-2,5,3,1,0,1,-8,-3
1529288762851646,-4,3,0,-1,6,3,-1,-3
1529288762851646,0,-3,-3,-1,-7,-7,-9,-9
1529288762857549,0,0,1,1,-7,-4,-5,3
1529288762857549,-7,1,-2,8,-2,3,-5,-12
1529288762880477,-1,4,4,4,2,0,-2,1
1529288762880477,-1,-2,-3,5,6,4,-5,-6
1529288762881461,1,-6,-3,-4,1,-7,-6,-2
1529288762881461,2,-1,-2,0,-6,-8,-5,4
1529288762889415,-2,-1,1,-1,-5,-5,2,5
1529288762889415,0,0,1,-7,-8,-9,2,-2
1529288762911357,8,2,-5,-3,0,2,9,0
1529288762911357,-1,-6,-4,-1,-11,1,2,-1
1529288762913351,-3,1,0,-2,-8,1,-1,4
1529288762913351,-7,4,-1,2,1,5,2,-4
1529288762918338,-5,0,-1,2,6,11,6,6
1529288762918338,-3,-6,0,-1,4,-1,-3,-7
1529288762934295,-3,-8,1,-2,-4,-8,-4,0
1529288762934295,-6,-5,4,-3,-4,4,-2,-1
1529288762940461,0,-3,-2,-6,-1,-1,-4,3
1529288762940461,1,1,0,3,9,5,1,2
1529288762949477,1,1,-3,3,7,4,0,1
1529288762949477,-3,-1,-7,-2,-1,-7,-8,-6
1529288762971652,-4,-1,-4,0,2,-3,0,-1
1529288762971652,-6,-1,-2,0,0,-1,7,-3
1529288762973650,3,2,-1,-2,-7,-7,5,-3
1529288762973650,3,0,0,-3,-2,2,4,-2
1529288762977640,7,6,7,-1,0,-1,-3,3
1529288762977640,3,2,2,0,-1,-2,-7,-5
1529288762994594,8,1,4,-2,3,10,-6,-3
1529288762994594,0,-2,4,1,-3,3,-3,-1
1529288763000580,1,-2,0,-3,9,4,3,1
1529288763000580,-6,0,-1,-5,-11,-6,-8,-2
1529288763009747,3,3,-2,4,1,7,8,22
1529288763009747,2,0,1,0,-4,-2,-2,-2
1529288763022896,-5,-1,-3,1,-6,-12,-4,-12
1529288763022896,4,5,4,7,11,-2,11,4
1529288763031686,-6,-2,-1,1,5,2,-6,-5
1529288763031686,-13,-6,-7,-7,-25,-23,-4,-6
1529288763037840,-2,-5,-10,-4,-1,-4,-5,-13
1529288763037840,6,-1,0,3,6,2,11,8
1529288763054785,-4,-6,-3,-5,-10,-9,-2,-2
1529288763054785,0,0,5,-3,-5,-18,-12,1
1529288763060610,-1,2,8,8,14,20,5,8
1529288763060610,-4,-3,0,-4,-3,-5,-6,3
1529288763075812,3,1,3,4,10,12,5,2
1529288763075812,-4,4,-3,-3,-7,-14,-12,-3
1529288763082908,-8,-6,-3,-4,-13,-12,-5,-6
1529288763082908,-12,-7,-9,-7,-6,-16,-14,-10
1529288763092061,1,7,-3,-8,-27,-22,10,-1
1529288763092061,6,1,-1,7,23,37,18,-3
1529288763098204,13,9,-1,-1,9,16,11,7
1529288763098204,3,0,0,-2,-2,-11,-18,-4
1529288763114232,-6,-3,0,-5,-15,-19,-13,-12
1529288763114232,-6,1,0,-5,-7,-22,-14,-11
1529288763120033,0,6,4,17,27,31,17,13
1529288763120033,-4,5,-4,-3,-10,-12,-1,1
1529288763128962,4,5,4,11,17,16,5,4
1529288763128962,8,0,-1,0,1,13,8,10
1529288763142924,3,-3,9,1,-12,-16,-11,-3
1529288763142924,-1,-7,-6,-11,-7,0,-2,-10
1529288763151901,-1,-3,-7,-1,18,26,5,1
1529288763151901,-2,-5,-1,-5,3,3,4,0
1529288763165276,-9,-3,-5,-8,-9,-13,-12,-1
1529288763165276,-5,0,2,6,5,8,-3,-3
1529288763174434,-3,-4,2,3,0,3,1,4
1529288763174434,1,-3,3,0,-10,-12,0,1
1529288763189660,1,-3,-2,-1,-6,-3,4,2
1529288763189660,6,-1,3,1,12,3,4,6
1529288763190603,-5,-7,2,-7,4,-4,-11,-8
1529288763190603,-3,4,-3,0,12,14,2,-6
1529288763202750,5,0,-5,-5,-14,-14,0,-8
1529288763202750,5,2,1,3,7,14,12,0
1529288763211768,9,-5,-6,-3,-6,-7,0,1
1529288763211768,11,4,-2,-1,5,-4,4,3
1529288763224734,-4,5,-2,-2,-1,-8,-1,-3
1529288763224734,-7,0,-5,2,2,-2,1,-8
1529288763234709,-7,-1,3,3,0,-3,-1,-4
1529288763234709,-6,-1,2,3,1,0,1,2
1529288763249725,-3,-5,-1,-3,-7,-3,-1,4
1529288763249725,-3,-5,1,-1,-4,-1,-3,10
1529288763250712,0,-2,-4,-2,-9,-8,-6,2
1529288763250712,2,-5,-1,0,0,6,-1,9
1529288763263656,1,-2,-4,-1,-6,-2,-3,0
1529288763263656,-3,-4,-1,-1,-2,6,4,-2
1529288763271657,-10,0,2,1,2,3,3,-1
1529288763271657,-6,2,4,2,3,2,4,-2
1529288763285572,0,-1,2,2,-1,-3,0,2
1529288763285572,4,-2,4,-2,-7,-7,-5,2
1529288763301559,5,-1,-6,-4,-1,-4,-1,-6
1529288763301559,1,3,-8,-3,-9,-5,-1,-7
1529288763310865,-4,5,-8,-4,-5,-7,-2,0
1529288763310865,2,3,-3,0,3,2,2,1
1529288763313858,1,-4,0,2,0,1,2,4
1529288763313858,-6,-3,1,2,1,-3,1,7
1529288763333808,-3,-2,2,2,1,-3,2,2
1529288763333808,1,-1,1,0,4,2,0,1
1529288763336802,1,3,3,-2,4,-5,-4,10
1529288763336802,2,2,3,0,1,-1,0,1
1529288763344776,-5,-1,8,-1,2,5,1,-5
1529288763344776,-1,0,-1,0,0,4,3,-12
1529288763353752,1,4,-5,3,-5,0,-6,-11
1529288763353752,-1,-2,-4,-1,1,3,-6,-6
1529288763369712,-2,-3,-2,-4,-2,-4,-5,-11
1529288763369712,0,-1,2,-5,-2,0,-2,-7
1529288763372898,2,-1,-4,-4,-3,-2,-3,-3
1529288763372898,-3,-1,-6,-4,-1,-1,-2,6
1529288763383040,-3,5,-1,-1,-1,1,-1,8
1529288763383040,-7,5,0,-2,3,8,0,3
1529288763391827,-4,4,7,2,3,-4,5,1
1529288763391827,2,1,0,1,2,9,6,-7
1529288763405919,11,-4,-1,1,-2,2,5,-5
1529288763405919,10,-1,-6,2,-1,1,3,-3
1529288763414940,0,-4,-5,-4,1,0,-4,0
1529288763414940,-4,-9,2,-4,4,-2,-7,7
1529288763429818,-7,-6,2,-1,0,-2,-9,2
1529288763429818,2,0,-1,-1,1,5,1,-4
1529288763430780,0,-1,-2,-2,2,6,3,-7
1529288763430780,1,3,-1,-3,0,1,2,-5
1529288763442748,-1,3,-1,0,2,2,-1,0
1529288763442748,-2,-1,1,2,-1,-3,-3,4
1529288763451943,1,-1,2,0,4,4,-1,-1
1529288763451943,-2,0,2,1,3,1,-1,1
1529288763465069,1,-3,0,-2,-3,-4,-8,-2
1529288763465069,0,-1,-3,-1,-5,-1,-4,-4
1529288763474034,-2,-5,-9,0,-9,0,-1,-5
1529288763474034,-1,-2,-7,2,-5,-7,-6,-1
1529288763489174,2,1,-3,1,0,-4,-3,0
1529288763489174,-1,-2,5,1,-1,-7,0,7
1529288763490840,-2,-1,3,0,1,-3,3,6
1529288763490840,-5,2,3,-3,-1,-4,2,-4
1529288763502976,-8,1,-4,-2,-3,0,2,-7
1529288763502976,-3,5,-2,-1,-1,-1,4,-4
1529288763511785,0,-1,5,2,1,-2,1,-4
1529288763511785,4,-5,4,-1,0,0,-1,-1
1529288763524749,1,0,2,-3,-3,1,0,4
1529288763524749,0,1,-1,0,0,-1,-2,0
1529288763534926,-2,0,-3,2,-3,0,1,0
1529288763534926,-2,0,-2,-3,-1,-5,1,-3
1529288763549078,2,-1,2,-3,-2,-1,-3,0
1529288763549078,2,3,0,-2,-3,0,-2,2
1529288763551072,5,-4,3,-1,-1,-1,-3,0
1529288763551072,7,-2,-5,1,1,4,-4,-6
1529288763563266,2,-2,-5,1,3,-3,0,-7
1529288763563266,-6,-7,-1,1,1,-5,-1,-5
1529288763579225,-7,0,2,-1,-2,-5,6,4
1529288763579225,-8,2,5,2,-3,1,6,-2
1529288763585387,-5,0,0,-1,-5,-4,1,3
1529288763585387,1,3,0,-4,-3,-9,-8,2
1529288763594396,-1,0,-4,0,4,0,-9,3
1529288763594396,1,0,-3,1,5,-4,-3,7
1529288763609356,0,-1,0,2,1,3,1,-2
1529288763609356,-4,-5,-1,0,-4,1,-1,0
1529288763610522,-1,1,7,-1,-2,2,4,-5
1529288763610522,1,2,1,-1,-5,2,3,-2
1529288763623496,7,2,-1,1,-3,0,2,-4
1529288763623496,0,-1,0,1,2,1,2,-1
1529288763632479,2,3,-1,-3,1,0,-2,5
1529288763632479,1,3,-1,-1,2,-2,-3,5
1529288763645484,0,2,2,-3,-4,-1,-6,1
1529288763645484,1,-1,1,-3,4,4,1,0
1529288763654464,1,1,-4,-1,-3,-2,3,-6
1529288763654464,0,-5,4,-1,2,-1,2,-1
1529288763669426,-1,-6,-2,1,0,-2,2,-1
1529288763669426,-3,-2,-1,1,0,3,2,-4
1529288763670424,-3,0,3,-1,0,1,-3,-7
1529288763670424,-1,1,-1,1,-1,1,-3,-3
1529288763682615,-4,6,-8,2,2,-4,2,3
1529288763682615,3,4,-5,3,-2,-3,4,4
1529288763692363,3,2,-3,-3,1,-1,-4,4
1529288763692363,-1,-1,-1,-5,-2,1,-5,-3
1529288763706560,-1,-3,1,-2,0,4,-2,0
1529288763706560,-6,-2,1,-5,1,-1,-2,0
1529288763714539,0,-2,0,-2,1,-4,0,0
1529288763714539,7,-1,2,0,0,-2,-1,-3
1529288763728502,4,1,7,1,3,-4,-1,3
1529288763728502,5,-2,-2,2,-3,-1,0,4
1529288763735524,-1,-2,-4,2,-2,1,5,3
1529288763735524,-2,3,-2,1,-1,5,3,1
1529288763742463,1,2,-3,-2,0,-1,1,0
1529288763742463,2,-3,2,-6,-2,-2,-2,1
1529288763757458,-5,-2,-1,-6,-5,-6,-1,1
1529288763757458,-3,-3,0,1,-3,1,-1,-4
1529288763765437,0,-4,6,0,-2,6,-1,1
1529288763765437,-2,-2,4,0,2,5,0,0
1529288763774380,-1,-2,1,0,3,5,0,1
1529288763774380,2,1,1,-1,1,-1,6,1
1529288763788376,4,2,-5,1,-1,-4,2,-3
1529288763788376,2,-3,-4,0,-2,-7,-2,-4
1529288763795323,6,1,-1,2,1,-2,-5,1
1529288763795323,-3,4,-1,0,2,-1,-4,-3
1529288763802304,-2,4,-1,-2,2,1,-3,-2
1529288763802304,-3,1,1,3,-3,5,-2,0
1529288763811280,-3,2,5,3,-1,6,-3,-1
1529288763811280,-4,1,3,0,-3,3,0,2
1529288763825245,0,1,2,-2,0,1,1,2
1529288763825245,0,1,2,-2,1,1,2,-3
1529288763834219,0,-7,5,-3,2,0,0,-4
1529288763834219,1,-8,3,3,0,0,-3,3
1529288763848228,0,-3,-3,2,-1,0,3,-1
1529288763848228,-6,3,-2,1,-1,-8,1,-3
1529288763857195,-2,3,-8,-4,-3,-9,1,-1
1529288763857195,-1,4,-5,-4,-1,-5,-2,2
1529288763863171,-4,3,-5,-5,3,0,-1,-3
1529288763863171,9,2,1,-3,2,6,-2,-4
1529288763872118,-3,-1,4,-4,0,4,-3,0
1529288763872118,-7,0,-1,0,-3,-1,-2,2
1529288763885133,0,-4,-1,3,-2,-3,1,1
1529288763885133,-4,-2,-9,2,-1,-7,0,-3
1529288763894058,1,-4,-8,3,-3,-4,2,-5
1529288763894058,2,-4,1,2,0,-4,-2,-2
1529288763908067,-1,-5,6,-2,1,-1,-8,2
1529288763908067,-1,-3,2,-7,3,-2,-2,2
1529288763915051,-4,1,-2,-4,0,-5,-1,2
1529288763915051,3,3,-7,-3,-2,-2,0,-4
1529288763931993,0,0,-3,0,-1,0,0,-4
1529288763931993,1,-2,-2,1,-2,0,-3,-2
1529288763932956,0,1,0,2,-2,1,-4,1
1529288763932956,-2,-2,0,-1,-3,-1,0,2
1529288763944931,0,-1,3,0,0,-2,2,2
1529288763944931,2,-3,0,1,-2,-2,6,3
