timestamp,emg1,emg2,emg3,emg4,emg5,emg6,emg7,emg8
1528277002170437,-1,-1,-2,-5,-1,-3,-4,-1
1528277002170437,0,0,1,5,8,-1,-5,-1
1528277002210330,-2,-1,1,-3,7,2,3,-1
1528277002210330,2,1,-2,6,13,-2,-2,0
1528277002211327,-1,-1,1,-5,-14,-1,-6,1
1528277002211327,0,-1,0,14,26,6,-8,-3
1528277002212325,-2,-2,-3,2,3,-4,13,1
1528277002212325,-3,-3,-4,-22,-55,-18,-14,-5
1528277002215317,0,0,1,14,26,-13,5,3
1528277002215317,0,-1,-3,-23,-18,36,12,3
1528277002222298,-4,-4,-6,-8,-5,-2,-15,-7
1528277002222298,-2,0,-1,15,35,12,9,-3
1528277002229280,-2,-1,-2,1,-12,-12,-22,-4
1528277002229280,1,0,2,7,-5,-21,4,3
1528277002238255,2,0,2,6,0,20,1,0
1528277002238255,-1,-2,2,-10,-6,-12,10,2
1528277002252218,-3,-2,-7,-6,-11,-14,-11,-6
1528277002252218,0,1,1,8,20,-7,5,2
1528277002261194,-3,-2,-2,-1,0,-13,-48,-8
1528277002261194,-3,-2,3,22,25,36,46,4
1528277002283135,1,-2,2,-7,1,23,1,0
1528277002283135,-1,-2,-6,-22,-35,-38,-9,-2
1528277002285130,2,1,0,0,-4,31,24,5
1528277002285130,-2,-2,-1,2,15,36,-19,-5
1528277002297098,-3,-1,-4,1,-2,-22,30,-2
1528277002297098,-2,-3,-3,-1,0,-10,-23,1
1528277002306074,-1,0,0,-11,-11,-56,12,1
1528277002306074,4,3,2,-4,-10,30,5,4
1528277002335994,0,0,-1,14,47,1,-8,-1
1528277002335994,-5,-4,1,3,-4,26,11,-7
1528277002336991,-1,-1,0,3,3,-4,-9,2
1528277002336991,0,0,-3,8,-5,-19,-14,-5
1528277002342975,-2,-3,-1,-3,-17,4,-10,1
1528277002342975,-2,-1,-2,-13,-7,-56,-26,-6
1528277002344970,-4,-2,-3,-6,1,22,6,-3
1528277002344970,-3,-2,-4,-17,-58,-79,-73,-8
1528277002356938,0,2,6,11,11,8,63,11
1528277002356938,0,1,2,16,51,52,24,8
1528277002366911,2,2,-7,-8,-37,55,38,3
1528277002366911,-8,-6,-6,-21,-17,-35,-59,-23
1528277002380874,5,-1,-1,3,14,-41,-6,10
1528277002380874,3,-1,-8,-13,-44,-24,-18,0
1528277002382869,5,4,5,14,46,55,39,11
1528277002382869,-3,-1,-7,-21,8,64,38,-4
1528277002403813,-8,-6,-5,-4,-15,-38,-58,-20
1528277002403813,-4,-2,2,19,-15,-79,-30,-7
1528277002404810,-2,-3,1,12,-4,-63,-36,-3
1528277002404810,1,0,1,14,8,35,60,10
1528277002425754,2,2,7,-13,37,81,11,0
1528277002425754,2,-1,-6,-1,9,12,3,2
1528277002427749,-2,1,10,3,-13,-80,-35,-10
1528277002427749,1,2,15,12,-45,31,43,12
1528277002440714,-4,-12,-33,-19,0,-30,-12,-2
1528277002440714,-7,-6,-9,14,78,-58,-23,-13
1528277002442709,-2,0,-7,-15,-95,64,-16,-7
1528277002442709,0,-4,-13,-39,28,-2,-9,0
1528277002462656,3,4,10,-2,-4,54,15,9
1528277002462656,-2,-6,-21,-21,-42,12,10,1
1528277002469637,-2,-1,12,18,32,-45,7,-1
1528277002469637,-4,-5,-16,12,40,-59,-25,-6
1528277002476627,2,6,11,-2,-9,69,7,-1
1528277002476627,-4,-8,-10,-10,-11,0,11,-2
1528277002485594,4,4,1,4,26,25,15,9
1528277002485594,-2,0,11,27,32,1,-5,1
1528277002502549,-2,-2,-6,-8,-11,-33,-17,-7
1528277002502549,-1,3,17,-1,-22,6,13,-2
1528277002503546,-4,-8,-3,1,-27,-41,-12,-3
1528277002503546,3,3,19,-2,33,-1,0,7
1528277002523493,2,0,-5,6,-104,-55,5,3
1528277002523493,4,3,0,-1,20,100,23,6
1528277002524491,-2,-2,-20,10,24,-80,-27,-10
1528277002524491,3,-4,-8,17,58,63,6,7
1528277002537455,-4,-5,-20,-4,-60,-5,-3,-4
1528277002537455,0,5,-15,-2,6,3,2,0
1528277002546432,-3,-6,-9,-3,15,1,2,2
1528277002546432,-2,2,6,20,-38,-41,-8,-6
1528277002561391,-1,-2,-32,-23,92,-11,-6,-2
1528277002561391,-2,2,-2,-18,-78,28,-1,-2
1528277002562389,-1,1,11,6,4,31,3,-3
1528277002562389,3,2,-11,2,2,-15,7,5
1528277002583333,-2,0,11,-3,-22,-5,-7,-5
1528277002583333,-2,2,10,6,29,-19,-7,-5
1528277002585328,2,-4,0,-17,-1,8,12,8
1528277002585328,-1,0,4,-1,26,2,0,0
1528277002597295,-2,4,21,14,-11,-19,-3,1
1528277002597295,-2,-4,-11,-9,14,0,-1,-5
1528277002606272,-3,-6,1,28,11,5,-2,-4
1528277002606272,0,-8,-21,-48,-88,-24,-5,-3
1528277002621232,1,4,7,14,54,9,1,1
1528277002621232,-2,-1,13,0,-14,-5,-3,-2
1528277002622243,6,1,-3,-26,19,5,-1,7
1528277002622243,-5,3,4,6,-75,-43,-13,-8
1528277002643174,-8,-2,9,-4,-3,30,13,-2
1528277002643174,-1,-5,-4,13,-2,-3,2,3
1528277002645169,-1,0,1,21,13,2,2,0
1528277002645169,0,-1,0,-6,35,12,-4,0
1528277002657136,0,-1,-7,-10,-14,0,-3,-2
1528277002657136,3,5,12,11,24,26,9,6
1528277002666112,1,-5,-9,17,-9,-8,1,0
1528277002666112,-1,1,-3,-52,1,14,0,0
1528277002681072,-3,-1,15,-17,-27,-8,-3,-4
1528277002681072,-3,-4,-2,5,51,9,-2,-1
1528277002682070,-3,5,11,10,-36,-8,-6,-6
1528277002682070,0,0,8,11,75,22,6,3
1528277002703017,-1,-4,0,-4,-25,3,-1,-1
1528277002703017,1,1,7,-34,-27,-7,-1,-2
1528277002705008,-2,1,0,-10,-14,1,-1,-5
1528277002705008,-1,1,-1,18,9,-5,-8,-4
1528277002716975,0,0,-1,7,1,-13,1,2
1528277002716975,2,-2,2,10,16,18,5,3
1528277002725953,-2,-2,-8,-20,5,9,7,-7
1528277002725953,0,7,12,-1,-25,-15,-3,5
1528277002740911,2,1,10,15,21,0,-8,-3
1528277002740911,-5,1,8,6,-21,-18,-7,2
1528277002742906,-4,1,-2,-16,7,21,0,-8
1528277002742906,-10,-8,-9,6,-17,-3,1,-10
1528277002763908,3,1,13,10,10,1,5,-4
1528277002763908,1,-2,-10,1,-3,-7,-3,0
1528277002764912,7,7,11,-8,-11,-10,-2,15
1528277002764912,-2,-10,-24,-2,5,14,3,-2
1528277002776869,-4,-4,-7,-5,19,3,-4,-1
1528277002776869,-1,0,2,-1,0,9,1,-5
1528277002785845,-3,-3,10,1,12,10,4,0
1528277002785845,2,-5,-10,14,-35,-36,-4,3
1528277002800806,0,-8,-13,-1,40,28,4,3
1528277002800806,-2,-1,-5,-10,3,-10,-6,-7
1528277002802800,-3,-2,-2,-14,-15,-1,1,1
1528277002802800,0,2,8,4,6,1,2,-2
1528277002823745,0,-2,-6,5,-6,-7,-1,0
1528277002823745,1,4,14,15,-2,-11,-2,-1
1528277002824743,-6,-6,-16,-2,-28,-10,-9,-4
1528277002824743,2,1,3,-6,-10,1,6,2
1528277002836710,1,1,2,24,-1,-28,-4,0
1528277002836710,1,0,1,5,-13,33,9,1
1528277002845685,1,1,-8,-11,18,-12,-4,-2
1528277002845685,0,3,20,31,-28,-18,-1,1
1528277002860646,-4,-3,-10,-32,20,19,-1,-1
1528277002860646,-3,-3,-6,-48,-61,-15,-7,-6
1528277002862645,0,-4,-6,5,21,10,8,5
1528277002862645,2,0,-1,-1,1,-4,-1,1
1528277002883584,-1,7,23,60,27,5,4,-1
1528277002883584,-2,0,4,14,39,-14,-8,-5
1528277002884581,-5,-5,-14,-111,-97,-4,-6,-5
1528277002884581,0,3,10,32,17,-8,-1,-3
1528277002896549,-2,-6,-29,-50,-29,2,-8,-3
1528277002896549,-1,0,13,24,19,-2,3,2
1528277002905527,0,0,0,-5,31,19,0,0
1528277002905527,-1,-2,-2,-7,4,-1,-2,-1
1528277002920485,-4,0,-4,-11,-44,-4,0,-4
1528277002920485,1,-4,-6,18,9,-7,0,-1
1528277002922481,-4,-4,0,-1,15,-2,-5,-2
1528277002922481,0,-2,-3,-18,2,15,1,5
1528277002943425,1,1,3,5,9,-1,0,-3
1528277002943425,-4,-4,-17,-8,-8,-2,8,-13
1528277002945419,-2,-1,4,25,10,-2,0,48
1528277002945419,-4,3,-5,-11,9,10,-10,-1
1528277002957390,8,0,6,-15,-19,-16,-9,1
1528277002957390,2,5,4,-2,-3,0,-2,-5
1528277002966363,-3,-3,-7,10,8,3,5,-16
1528277002966363,-8,-5,-12,-5,-7,-16,-3,-2
1528277002980326,-5,-8,-3,12,9,11,2,0
1528277002980326,0,1,5,-2,-12,4,1,-1
1528277002987307,1,-3,-3,15,17,3,-1,-6
1528277002987307,0,1,4,2,-22,-21,-6,-2
1528277003003264,3,0,3,0,14,12,8,-2
1528277003003264,-3,-1,2,-5,-5,-21,-9,2
1528277003005259,1,0,-8,3,4,11,0,-3
1528277003005259,-1,-6,-15,-9,-17,11,2,-4
1528277003017261,-3,-1,-9,0,-18,-21,-3,0
1528277003017261,-4,-6,-15,12,25,-32,-6,6
1528277003026204,2,1,5,-15,-33,22,4,-2
1528277003026204,-1,-5,1,14,25,-21,-3,-8
1528277003040211,0,8,34,17,20,27,3,4
1528277003040211,-1,-6,-22,-4,-49,3,-2,4
1528277003047203,-3,0,-3,30,-7,-28,-8,-14
1528277003047203,4,2,3,-36,25,28,3,-1
1528277003063104,-3,0,9,12,4,-19,-3,1
1528277003063104,-1,-1,3,7,17,-4,-3,-1
1528277003069089,1,3,0,10,-15,-4,0,-2
1528277003069089,-1,-2,-4,-8,8,-1,-1,-1
1528277003077067,-4,-4,-13,-26,-39,0,-2,-2
1528277003077067,-3,0,4,8,5,-4,0,-3
1528277003086043,-1,-3,-8,-11,16,11,-1,-3
1528277003086043,-1,-2,0,-10,17,6,6,2
1528277003101003,0,-2,-5,-14,-20,3,3,-1
1528277003101003,0,-4,-2,-1,-2,5,0,0
1528277003102001,-1,5,13,37,57,-12,-7,-8
1528277003102001,-3,0,2,6,-77,4,-6,-5
1528277003122945,3,-2,-1,-3,1,-1,7,8
1528277003122945,-3,-1,-1,8,33,21,-5,-5
1528277003124954,-2,-1,4,1,-2,-15,-4,-3
1528277003124954,-1,-3,-10,2,-1,8,4,1
1528277003137158,-3,-2,-6,-5,-15,-20,-6,-4
1528277003137158,0,1,8,-11,2,15,5,4
1528277003145944,-1,-1,-2,-9,-1,-3,-4,-5
1528277003145944,-1,-1,1,23,1,-9,-4,0
1528277003159857,0,1,0,10,10,5,3,2
1528277003159857,0,1,-6,-6,-4,-4,1,1
1528277003166832,-3,-2,-1,-9,-3,-4,-2,-3
1528277003166832,-1,-2,-8,1,2,-5,-5,-5
1528277003182875,0,-1,-4,7,18,4,2,2
1528277003182875,-2,0,0,-20,-18,-2,-2,1
1528277003191152,-3,0,-1,-12,-5,0,-6,-15
1528277003191152,2,-3,1,-3,3,-2,5,13
1528277003206130,-2,-1,-5,-8,-3,-6,-6,-8
1528277003206130,0,-2,-13,-16,-11,-3,-4,-4
1528277003207458,-6,-1,3,6,-8,-3,0,-19
1528277003207458,10,1,11,6,15,10,12,10
1528277003228461,-19,-1,6,-3,4,-6,-31,-20
1528277003228461,5,6,20,11,0,5,3,12
1528277003230050,3,-9,-10,0,-2,-6,-1,-5
1528277003230050,-9,0,2,-10,-4,-7,-4,10
1528277003242280,6,-13,-26,3,18,1,6,-3
1528277003242280,-4,6,12,6,-15,2,0,-3
1528277003251024,-1,6,-7,-11,8,-17,1,0
1528277003251024,9,-7,-27,-6,-6,18,1,-2
1528277003265957,1,3,8,-7,-2,19,7,6
1528277003265957,-6,-15,-37,9,-13,-21,-9,-7
1528277003268194,1,-5,-6,2,16,11,5,12
1528277003268194,-7,4,11,11,26,-21,-8,-11
1528277003288565,1,0,-17,1,-51,4,1,2
1528277003288565,0,-6,9,10,1,-10,2,-1
1528277003290208,-1,-1,15,8,-10,16,-4,5
1528277003290208,-1,1,13,-15,-17,-5,-2,1
1528277003302176,-1,2,8,21,42,2,0,-1
1528277003302176,-1,4,38,34,-9,6,5,2
1528277003311152,-5,-6,-31,-43,-37,-16,-11,1
1528277003311152,-4,3,1,-10,5,-19,-10,-12
1528277003325356,3,2,18,10,10,7,3,3
1528277003325356,0,2,-1,-11,20,1,-4,1
1528277003332362,1,1,19,33,-3,19,6,5
1528277003332362,-2,0,0,-4,3,4,3,-4
1528277003348402,-2,-8,-22,-15,-35,-12,-1,3
1528277003348402,-1,2,4,18,24,9,-4,-6
1528277003350356,0,-3,5,15,-9,2,7,0
1528277003350356,-2,-6,-13,-50,-3,7,4,3
1528277003362415,0,4,2,12,-1,-9,3,2
1528277003362415,0,-1,-8,-14,-7,-1,-4,-4
1528277003371300,0,-1,-10,3,51,12,1,-6
1528277003371300,-7,-4,-1,19,-54,-21,-11,-7
1528277003393520,-1,-2,2,-9,15,-7,-5,0
1528277003393520,0,-4,-10,-14,-5,-3,2,0
1528277003395236,-3,1,10,-5,-7,-9,-1,-1
1528277003395236,2,3,-1,7,22,14,3,-4
1528277003408202,0,-7,-7,-15,-11,-2,0,4
1528277003408202,-1,-2,-15,-24,-8,-1,0,-1
1528277003410196,1,2,5,6,1,-12,-5,0
1528277003410196,-1,-5,-4,1,3,11,5,5
1528277003422163,-1,-3,3,0,-1,-6,2,-1
1528277003422163,-1,0,4,3,3,2,-3,-3
1528277003438422,-1,-2,-8,-8,3,-1,-2,-13
1528277003438422,-4,3,6,6,-19,0,1,11
1528277003445345,3,-3,-4,2,12,-2,-2,1
1528277003445345,-1,-2,-9,-5,17,2,1,2
1528277003453322,0,0,8,16,-12,9,1,3
1528277003453322,-2,0,7,-9,-5,-4,-7,-15
1528277003468297,-7,-1,-5,-67,-14,-9,-7,-8
1528277003468297,-2,-3,-5,-2,9,-6,-1,-1
1528277003468297,2,3,6,9,-18,10,4,6
1528277003468297,-3,-4,-8,6,13,-6,-4,-5
1528277003489999,-1,0,4,13,1,-1,0,2
1528277003489999,0,0,-1,-4,-9,2,0,0
1528277003490979,0,-2,-4,-12,11,1,3,7
1528277003490979,-1,-4,-11,3,20,-4,-4,-4
1528277003505043,0,2,3,5,-4,7,0,-3
1528277003505043,-3,-4,-9,-20,-32,-6,-3,-3
1528277003505940,-1,-2,-3,3,7,0,-4,5
1528277003505940,1,1,9,-14,9,3,-1,-5
1528277003528145,-1,-1,2,22,13,-14,-7,-5
1528277003528145,0,5,7,2,16,16,7,5
1528277003528879,-1,-4,-11,-13,-16,-2,0,1
1528277003528879,-4,-5,2,9,-3,-5,-4,-5
1528277003550896,-3,-1,-6,-9,-24,-4,-1,-3
1528277003550896,0,-2,3,-2,-7,0,0,2
1528277003550896,-1,-1,0,-1,17,-4,-1,-2
1528277003550896,3,0,-7,4,0,14,6,5
1528277003565904,-1,0,8,19,1,0,6,1
1528277003565904,-1,-4,-11,-5,-4,-12,-7,-4
1528277003565904,-1,-3,3,-1,6,-1,1,1
1528277003565904,-1,1,-9,7,7,2,-1,-2
1528277003588363,-1,4,0,2,-11,-12,-6,-4
1528277003588363,1,-1,2,-20,-7,9,8,3
1528277003588363,0,1,1,-1,3,-3,-6,0
1528277003588363,-1,-2,8,10,-1,-2,0,-1
1528277003610205,-1,-1,-11,-17,1,6,0,-2
1528277003610205,-3,-1,-10,14,0,-5,-4,-3
1528277003610965,-1,0,-1,16,-27,-14,-6,-3
1528277003610965,0,4,16,-23,25,2,0,2
1528277003626918,0,3,-1,7,-13,15,4,0
1528277003626918,-1,-2,3,-21,-17,-4,-4,-5
1528277003627915,1,1,-5,5,2,-3,3,2
1528277003627915,-1,-2,-11,7,-4,-10,-7,-6
1528277003647862,-2,-2,2,-10,5,-4,-2,0
1528277003647862,0,-3,0,5,-5,-7,-2,0
1528277003649132,-1,3,2,4,8,-2,-1,0
1528277003649132,-2,-4,-6,-12,-33,0,-1,-2
1528277003671130,-1,-5,-5,15,16,-1,0,0
1528277003671130,0,2,0,6,-3,1,0,-1
1528277003672108,-1,-4,-5,-3,13,-2,-2,-2
1528277003672108,2,1,1,8,-3,-1,1,1
1528277003685297,-3,-1,-1,-13,-5,-8,-6,-3
1528277003685297,-2,-1,6,6,-3,-2,0,-2
1528277003686071,0,1,3,5,2,5,2,-1
1528277003686071,-1,-2,-5,-21,-14,-8,-3,-1
1528277003708013,-1,0,4,10,11,4,1,-1
1528277003708013,-2,-4,-17,-10,23,6,-1,0
1528277003708013,-1,-2,12,0,-25,-4,-1,0
1528277003708013,-1,-3,-8,-22,-3,-1,-1,-2
1528277003731010,0,-1,9,12,8,-4,0,-2
1528277003731010,1,3,5,2,-11,-1,-1,-1
1528277003731010,0,-3,-6,-1,0,0,0,-1
1528277003731010,0,2,3,10,4,-1,-1,-1
1528277003745978,-1,-2,-6,-28,-5,-4,-1,-1
1528277003745978,-2,2,9,6,-7,-2,-1,-1
1528277003745978,-3,-3,-16,-5,-2,-2,-3,-1
1528277003745978,2,0,14,8,1,3,1,1
1528277003768167,-1,-4,-15,7,4,-3,-1,-2
1528277003768167,-1,-2,1,4,5,2,-1,-1
1528277003768851,-2,1,4,-9,-3,-2,-2,-2
1528277003768851,-2,-2,-2,9,5,1,0,-1
1528277003791050,-2,-1,1,4,-4,-2,-3,0
1528277003791050,0,-1,-8,-7,-3,-3,-1,0
1528277003791050,-2,0,1,-3,-3,-2,-4,-3
1528277003791050,-1,-2,4,4,3,1,1,0
1528277003805093,1,-1,16,4,-3,0,-2,-2
1528277003805093,0,-2,13,2,2,-1,1,0
1528277003805756,-1,-3,12,-5,4,-1,-1,-1
1528277003805756,-3,-1,0,7,-6,-3,-2,-1
1528277003828111,-1,-1,-5,-5,-1,1,-2,-2
1528277003828111,-3,-2,-7,4,1,-1,-1,0
1528277003829222,-1,-1,-9,-5,-3,-1,-1,-1
1528277003829222,-1,0,-13,-1,-1,0,0,-2
1528277003850219,-1,-1,10,-3,-3,-2,1,1
1528277003850219,-1,0,10,-3,1,-1,-1,-1
1528277003851000,-2,0,10,-9,-2,0,0,-1
1528277003851000,-2,-2,6,7,-2,-1,-2,-2
1528277003865146,0,1,8,7,5,0,1,2
1528277003865146,-1,-1,1,3,-1,-2,0,-1
1528277003865908,-2,-3,3,-8,-5,-3,-3,-1
1528277003865908,-1,0,65,13,-1,-3,-3,0
1528277003888107,-2,-5,32,4,1,0,1,-1
1528277003888107,2,-1,14,-3,-1,5,2,1
1528277003888861,0,0,-23,-1,-2,0,-2,-1
1528277003888861,-2,0,-53,-1,-1,-2,-4,-2
1528277003910348,0,0,-45,-3,-4,-4,-2,0
1528277003910348,-1,0,-39,1,0,-3,-1,0
1528277003911087,0,-1,-33,-1,3,2,2,1
1528277003911087,0,-1,-27,-4,-2,-1,0,-2
1528277003925370,0,0,-15,-4,-4,-4,0,-4
1528277003925370,1,-3,-15,-1,-1,-2,-3,2
1528277003926368,1,0,-4,-1,-1,-2,-1,-3
1528277003926368,-2,-1,-6,-2,0,-2,-1,-6
1528277003948672,-3,-2,-11,-3,0,1,1,6
1528277003948672,-1,0,-1,0,0,-1,0,6
1528277003955105,-1,-1,7,-1,1,-3,0,1
1528277003955105,0,6,-2,1,2,0,1,-10
1528277003970844,-1,-19,-5,1,2,2,1,12
1528277003970844,-3,-4,-4,-3,-4,-4,-2,-6
1528277003978125,-3,-3,16,-2,-1,-5,-3,1
1528277003978125,-3,-5,20,-4,0,2,0,0
1528277004001220,0,5,20,-2,-4,1,0,-6
1528277004001220,-1,0,15,1,-1,0,0,0
1528277004001760,0,-2,-1,-3,-1,0,0,-5
1528277004001760,0,0,-12,2,0,-2,-3,1
1528277004008000,-4,2,-13,-2,-3,-6,-3,-5
1528277004008000,-2,-2,-10,2,-1,-2,-2,0
1528277004008753,-2,0,-9,-3,-4,-2,-1,-8
1528277004008753,0,-2,-10,0,0,2,3,6
1528277004030486,0,1,-6,-1,-1,-2,-3,-3
1528277004030486,0,0,-7,-1,-3,-3,-3,-6
1528277004031222,0,1,1,0,-1,0,-3,1
1528277004031222,0,-5,-5,-5,-1,1,-1,2
1528277004045761,1,1,-4,-2,0,1,1,-3
1528277004045761,0,2,1,0,0,-2,-3,-4
1528277004046702,0,-1,4,-1,-1,1,0,2
1528277004046702,-2,-2,2,-1,-2,-2,-2,1
1528277004067845,-2,2,-1,-3,-3,-3,-5,-5
1528277004067845,-1,-1,4,-2,-2,-2,-2,-4
1528277004068439,1,0,3,-2,0,3,3,4
1528277004068439,0,-2,-1,0,0,-1,0,-2
1528277004091090,0,-1,1,-3,-2,0,0,-1
1528277004091090,-1,-3,3,0,0,-1,-1,-1
1528277004091090,0,-1,-2,0,-1,-1,-1,-3
1528277004091090,-2,-2,0,-2,-2,-4,-5,-1
1528277004104854,-1,2,1,0,0,1,-1,-5
1528277004104854,2,-1,1,-2,-1,6,5,12
1528277004105797,-4,-2,2,2,0,-2,-1,-2
1528277004105797,0,-1,1,-1,-1,-2,-1,1
1528277004127738,-1,0,0,0,-3,-4,-3,-5
1528277004127738,-1,-1,0,-2,0,-3,-2,-6
1528277004128736,0,-1,-2,-1,-1,-1,0,0
1528277004128736,-1,0,0,2,-1,-1,0,-2
1528277004150676,-2,-1,0,0,-1,-2,-2,-2
1528277004150676,0,0,1,3,-2,1,0,-2
1528277004150676,-4,-4,-6,-1,-1,-3,-4,-3
1528277004150676,0,-1,-4,0,1,0,-1,0
1528277004165636,1,0,2,2,0,2,1,0
1528277004165636,-3,-3,-4,-4,-3,-2,-3,-3
1528277004165636,-1,-3,-1,-4,-2,-4,-3,-3
1528277004165636,0,-1,0,0,0,1,1,0
1528277004187632,-1,-1,-2,-4,-2,-2,-1,0
1528277004187632,-2,2,3,1,2,0,-2,-3
1528277004188583,-2,3,13,5,-1,-2,-2,-2
1528277004188583,-4,-7,-19,-15,-10,-6,1,0
1528277004210571,-2,1,2,0,-9,-1,0,0
1528277004210571,-1,-1,-2,-3,-4,-6,-1,-3
1528277004211515,0,-2,1,1,2,6,2,1
1528277004211515,0,2,8,2,4,0,-4,-1
1528277004225531,-2,-1,1,-3,1,-2,-1,-1
1528277004225531,-1,0,1,-2,-4,-4,-2,-2
1528277004226474,2,0,1,0,0,-3,-1,0
1528277004226474,-2,0,1,0,0,0,0,-1
1528277004247473,1,-3,-3,-2,0,-1,-2,0
1528277004247473,-1,-2,-2,1,1,2,-1,-3
1528277004248416,-1,-4,-3,-1,1,0,1,-6
1528277004248416,-4,-3,3,-2,2,1,-1,-15
1528277004270412,-8,-4,-2,-6,0,-2,-2,-20
1528277004270412,-7,0,-9,-11,0,-3,-5,-21
1528277004271410,-6,9,-8,-3,-2,0,1,-8
1528277004271410,-1,-5,3,12,-4,1,-1,10
1528277004284346,10,27,1,18,3,1,0,28
1528277004284346,-7,-6,-1,18,-1,1,0,32
1528277004292324,10,7,2,24,2,4,2,38
1528277004292324,-4,-2,4,12,-4,-2,-3,14
1528277004316242,13,-37,-5,12,3,2,2,24
1528277004316242,4,28,12,-9,-5,-5,-6,-3
1528277004316242,0,-7,10,-6,-2,3,0,-18
1528277004316242,27,-15,-17,-17,-2,-4,-5,-21
1528277004330196,-14,9,3,-11,0,1,-2,-25
