timestamp,emg1,emg2,emg3,emg4,emg5,emg6,emg7,emg8
1528453397800152,0,-1,2,-7,-8,-14,0,0
1528453397800152,-1,-2,-6,7,8,15,1,-1
1528453397807116,0,0,2,4,7,1,1,1
1528453397807116,-3,-3,-14,2,4,5,-1,-2
1528453397832047,-3,-3,-4,-40,-27,-11,-7,-4
1528453397832047,1,0,17,40,31,10,2,1
1528453397845012,-5,2,7,25,17,8,2,1
1528453397845012,0,-4,-12,-4,-1,-2,-2,-2
1528453397852991,0,-2,-9,-10,-11,-8,-2,-1
1528453397852991,1,4,18,-30,-37,-31,-9,-2
1528453397867951,2,-1,35,13,3,14,6,0
1528453397867951,-3,0,-19,19,-5,24,5,-1
1528453397874932,-2,-5,-6,-21,32,1,-1,-2
1528453397874932,-2,-6,-23,10,16,2,1,1
1528453397885920,0,3,3,6,-56,16,-1,0
1528453397885920,-8,-3,-4,-14,-76,3,7,3
1528453397897907,5,5,-1,-8,92,24,2,0
1528453397897907,1,-4,-12,17,-3,13,0,-2
1528453397904893,0,-3,5,-10,2,-106,-11,-2
1528453397904893,2,3,-6,13,13,58,-5,0
1528453397919813,-4,-5,-10,21,-27,32,13,-1
1528453397919813,3,3,15,3,31,33,4,2
1528453397928788,-7,-7,-2,4,9,-5,-2,-1
1528453397928788,-3,1,6,-10,-10,-51,-10,-3
1528453397964744,-3,-4,-5,-6,46,4,-2,-2
1528453397964744,1,1,7,-8,-10,-5,-3,-1
1528453397979704,-1,-3,-16,11,-3,-1,-3,-3
1528453397979704,2,6,12,36,59,17,3,-1
1528453397987684,3,-1,-3,-15,-40,-16,-5,0
1528453397987684,-2,-5,-5,-11,12,-47,-4,-2
1528453397994639,-2,2,0,-15,-40,36,2,1
1528453397994639,-13,-14,-9,-31,-74,17,6,-1
1528453398002592,8,12,12,52,89,31,10,4
1528453398002592,3,-6,-11,-4,27,11,0,-2
1528453398009574,-10,-7,-5,-8,-64,-23,-5,-4
1528453398009574,3,8,6,-7,-20,-3,-2,2
1528453398024534,-10,-14,-14,-23,15,0,-4,-5
1528453398024534,4,5,2,-10,-4,-5,-3,0
1528453398039494,2,1,3,1,1,5,3,1
1528453398039494,1,5,-4,-1,17,-6,-3,-2
1528453398047473,-1,-5,-6,-7,-14,-5,-5,-4
1528453398047473,2,7,2,-3,-10,8,3,3
1528453398069413,0,5,11,6,25,8,3,1
1528453398069413,2,-1,6,16,5,-3,-1,0
1528453398092353,3,1,23,53,53,10,7,3
1528453398092353,-1,-4,-21,-21,-6,-9,-5,-3
1528453398100332,-3,-6,7,7,4,8,0,0
1528453398100332,-10,-12,-21,-20,-20,-8,-1,-4
1528453398115292,0,-1,-13,-23,-27,-12,-4,-4
1528453398115292,4,3,12,19,39,12,2,3
1528453398130253,-1,0,0,-3,-14,-7,-1,-3
1528453398130253,-6,-10,-17,-20,-17,-1,1,-4
1528453398152191,-1,1,13,31,4,1,1,1
1528453398152191,-3,-4,7,20,17,0,1,-2
1528453398175172,-2,-4,-7,-26,-17,-11,-4,-4
1528453398175172,0,-1,-5,-38,-39,-17,-7,-2
1528453398182112,0,3,32,50,22,8,2,0
1528453398182112,0,-3,-6,1,12,10,2,0
1528453398205051,-2,0,-3,11,12,2,1,-2
1528453398205051,-1,-2,3,-8,-5,-6,-2,0
1528453398212085,-1,-4,-6,-13,-6,-2,-1,-2
1528453398212085,-1,-3,-1,7,17,8,2,0
1528453398226992,0,-1,9,-20,-31,-19,-2,-1
1528453398226992,-1,0,-23,21,21,30,0,0
1528453398234970,-4,-2,7,-4,3,-16,-8,-6
1528453398234970,3,4,19,12,-14,-8,-6,-1
1528453398257918,0,-2,-11,-17,14,9,21,5
1528453398257918,-3,2,10,9,-3,-5,-24,1
1528453398264890,-1,-3,2,1,-15,-4,23,-4
1528453398264890,1,-1,2,-3,22,64,18,8
1528453398272870,5,-6,-19,-7,-10,-26,-34,-6
1528453398272870,-5,-2,-3,-3,-10,-12,-1,-4
1528453398279876,-1,0,-1,-7,0,-34,-22,-4
1528453398279876,-2,4,6,3,-15,13,17,1
1528453398287829,-3,1,3,9,-13,16,12,3
1528453398287829,2,0,1,3,30,-41,-25,-2
1528453398302790,-5,-15,-8,-14,-17,23,3,-2
1528453398302790,-9,0,-8,-3,11,23,-2,-10
1528453398309808,-12,-8,-6,-5,-3,-15,28,-5
1528453398309808,7,-2,9,0,3,29,6,8
1528453398317750,9,8,5,9,-7,-34,-21,2
1528453398317750,3,-1,-4,18,-8,-32,-3,-5
1528453398332710,7,-3,-2,-23,1,16,2,-1
1528453398332710,-21,-12,-9,5,-23,-25,3,-10
1528453398339691,-2,-12,-11,-30,-12,19,8,5
1528453398339691,4,3,15,-8,32,-3,-9,5
1528453398354651,0,8,-14,-11,-29,-13,-16,-3
1528453398354651,7,9,23,-7,14,12,21,4
1528453398369622,1,4,21,-22,1,-4,-1,0
1528453398369622,-1,-9,-39,-8,-5,14,8,0
1528453398377589,2,7,48,34,15,8,-4,0
1528453398377589,4,7,26,5,1,7,1,1
1528453398384607,-4,-4,-11,-22,-13,-7,-1,-2
1528453398384607,2,-2,-20,-15,4,-9,1,-1
1528453398400557,0,-1,-23,10,-2,1,-8,0
1528453398400557,-1,1,13,12,13,1,0,-3
1528453398407508,-2,2,17,26,16,7,8,0
1528453398407508,-1,-1,3,-19,-14,-7,-5,-1
1528453398422469,-4,-4,-26,-11,-12,-4,-9,-2
1528453398422469,-4,-5,-1,-36,-16,-5,0,-2
1528453398429450,2,2,-16,16,4,9,5,2
1528453398429450,1,1,7,19,23,0,-2,2
1528453398437428,2,0,14,-4,-3,-4,-3,-1
1528453398437428,3,0,-9,-3,-12,-6,1,0
1528453398445407,-2,0,1,-15,6,6,1,1
1528453398445407,-3,-2,-8,0,-10,-7,-3,-5
1528453398467352,-2,-2,7,4,5,3,0,-1
1528453398467352,0,-1,-62,-11,-6,-2,-2,-1
1528453398475362,-3,2,44,10,4,-3,-3,-2
1528453398475362,-1,-4,-14,-5,-7,-4,1,-1
1528453398490288,-2,-5,-2,18,16,4,-4,-2
1528453398490288,0,1,18,1,8,5,4,2
1528453398497490,0,2,-12,4,0,-3,0,0
1528453398497490,-1,-6,-10,-4,-7,-6,-4,-2
1528453398505275,-5,-5,6,7,2,-4,-1,-2
1528453398505275,-2,-4,-14,4,-14,-16,-22,-2
1528453398520241,-1,0,-3,-1,3,-5,-2,-2
1528453398520241,-1,-2,11,11,-10,-20,1,0
1528453398528186,1,1,3,4,23,33,-6,-1
1528453398528186,-1,-2,-11,-6,-17,-23,-3,-3
1528453398543197,-4,-5,-15,-1,2,0,-7,-5
1528453398543197,-1,0,12,4,-3,-8,1,-2
1528453398550127,-1,0,-5,10,-14,-40,-25,-5
1528453398550127,-2,-3,-5,-4,4,17,27,3
1528453398557109,6,7,1,2,6,53,17,11
1528453398557109,-2,-2,6,-2,3,-4,-4,-3
1528453398565338,-4,-5,-7,-5,-4,9,7,-2
1528453398565338,-2,-1,8,6,8,0,-38,-2
1528453398587029,2,1,-3,-3,-5,-28,8,-1
1528453398587029,-4,-3,-3,-2,-5,6,-48,-6
1528453398595034,0,2,-1,-1,1,-8,68,1
1528453398595034,-1,-3,1,-7,-15,-13,4,-2
1528453398624951,-4,-5,-6,-15,-9,15,-9,-1
1528453398624951,3,5,-1,-2,6,1,20,1
1528453398633265,-1,-5,0,11,10,3,-25,0
1528453398633265,-3,-6,11,-4,-14,-14,-11,-3
1528453398640228,-3,0,-16,16,1,-13,-6,-6
1528453398640228,-4,-8,-5,-14,2,4,0,-4
1528453398655204,-1,3,-5,-43,-25,-11,-19,-1
1528453398655204,0,-2,-4,35,16,5,14,0
1528453398669872,-1,-3,8,10,8,-8,2,0
1528453398669872,0,4,9,-21,-12,2,5,-1
1528453398677296,-4,-5,2,19,16,2,8,2
1528453398677296,-2,-4,14,-3,-2,5,8,-2
1528453398693354,1,1,-24,-1,8,4,-13,1
1528453398693354,-3,-1,-1,-42,-30,-16,-3,-3
1528453398707478,-3,-3,-19,16,-6,-3,1,-1
1528453398707478,1,2,13,20,22,8,4,1
1528453398715194,-2,-1,12,13,10,1,-4,-1
1528453398715194,1,2,-4,-5,8,0,2,-1
1528453398737138,1,2,-1,3,1,0,2,1
1528453398737138,-1,2,11,-19,-19,-6,-4,-2
1528453398745145,0,3,38,5,0,-3,-7,-1
1528453398745145,-1,-4,-10,-14,-11,-3,1,-1
1528453398752096,-2,-1,15,1,-4,-4,-3,-4
1528453398752096,-1,-6,-25,-11,-13,-5,-4,-4
1528453398775256,0,0,1,-12,2,0,3,0
1528453398775256,-2,-3,13,25,1,2,1,0
1528453398790220,0,-1,-14,-4,-5,-4,-3,-3
1528453398790220,1,1,-7,-1,2,2,4,1
1528453398798109,-4,-3,21,-21,-10,-3,-5,-3
1528453398798109,-3,-5,-30,-19,-10,-4,0,-3
1528453398805193,2,5,2,10,11,2,-2,-2
1528453398805193,4,5,11,4,2,-3,-1,0
1528453398813125,-2,-2,-15,11,7,-1,0,-1
1528453398813125,-1,2,21,-16,-22,-8,-2,-1
1528453398819997,-2,-8,-15,-4,0,3,-1,-1
1528453398819997,-3,-8,-24,-16,-13,-16,-7,-5
1528453398828137,3,4,3,10,14,14,4,3
1528453398828137,0,3,-2,-5,-20,-12,-6,-2
1528453398842872,1,3,6,7,28,22,6,4
1528453398842872,1,1,-3,-4,1,21,6,3
1528453398849835,-1,-3,6,14,13,-6,-8,-2
1528453398849835,-1,-1,-9,-10,-14,-36,-18,-6
1528453398857814,-10,-8,3,-10,-25,-44,-13,-12
1528453398857814,-2,-1,-8,0,6,36,15,6
1528453398865054,2,1,1,11,7,14,26,3
1528453398865054,0,-1,-4,-15,-9,-8,-34,-6
1528453398888128,0,0,-1,-3,-7,-22,-8,-1
1528453398888128,-2,-4,0,7,4,-7,-9,8
1528453398895800,-1,-3,-4,-1,2,12,19,2
1528453398895800,-10,0,-2,-2,12,17,-13,-1
1528453398910101,6,-2,-7,-15,-12,-16,-8,-12
1528453398910101,2,11,1,-1,0,-11,12,-8
1528453398917959,-4,-11,2,4,-2,-3,-44,3
1528453398917959,1,-2,2,4,3,21,25,17
1528453398924635,-5,-6,-8,-16,-4,17,37,9
1528453398924635,1,4,-2,9,-7,-15,-11,-4
1528453398947587,-2,-3,-8,-5,-6,11,-7,-1
1528453398947587,2,-1,11,21,33,10,9,4
1528453398962546,-4,0,-13,-28,-29,-12,-2,-5
1528453398962546,3,-2,7,19,24,16,4,1
1528453398969515,6,10,36,29,27,14,6,6
1528453398969515,-5,-10,-40,-39,-18,-10,-4,-4
1528453398984501,-2,0,-23,6,-19,-6,-5,-2
1528453398984501,-4,-2,28,3,1,-6,-12,-2
1528453399007676,2,5,3,3,9,4,-7,2
1528453399007676,-2,-6,-16,-7,-10,-1,-5,-4
1528453399022635,3,1,-4,-8,-1,0,10,3
1528453399022635,-1,-1,-7,-1,-7,-7,-3,-3
1528453399030622,-2,-5,-9,-7,-3,1,-6,-2
1528453399030622,-1,0,3,-3,-4,-3,0,-2
1528453399046309,1,1,5,5,0,-3,2,-1
1528453399046309,1,3,6,5,5,2,-4,-1
1528453399052294,-2,-1,-5,-10,-7,-2,-6,-1
1528453399052294,2,3,3,-1,-6,-6,4,-1
1528453399060645,-4,-4,-4,-8,-3,-1,0,-1
1528453399060645,-1,1,-2,2,-4,-6,-10,-1
1528453399075828,3,1,5,0,0,-3,0,0
1528453399075828,-4,-2,-13,-11,-7,-3,-3,-2
1528453399098280,-2,-4,13,-5,-4,-5,-2,0
1528453399098280,-1,0,-3,1,0,-8,-16,0
1528453399112984,9,2,-14,2,5,22,22,8
1528453399112984,-14,-5,-7,-2,-2,-3,-3,-17
1528453399128130,2,1,17,7,-3,-2,-3,-7
1528453399128130,5,-3,-3,-2,-2,-2,-4,11
1528453399143078,-4,-3,-10,-8,-3,0,-5,-5
1528453399143078,1,-2,-5,0,1,-1,3,-5
1528453399149796,-4,-1,-4,-4,-3,-2,-4,-4
1528453399149796,-1,-1,5,3,-1,4,4,0
1528453399164769,-2,0,0,-1,1,2,0,0
1528453399164769,0,1,3,2,0,-3,-4,-1
1528453399172984,3,-1,-10,-3,-2,4,2,4
1528453399172984,-3,-2,0,-2,-3,0,3,-2
1528453399179958,0,-2,-6,0,1,1,3,2
1528453399179958,-3,0,-1,1,1,2,-2,-3
1528453399202656,-1,-1,3,-3,-1,-4,-3,-3
1528453399202656,4,0,-4,-3,-3,-3,-2,2
1528453399210677,-1,-1,0,3,-1,-3,0,1
1528453399210677,-2,-2,-1,-1,-2,0,2,-4
1528453399225220,1,0,-3,-2,-1,2,-1,3
1528453399225220,4,0,3,1,0,-1,-1,2
1528453399233205,-9,-2,-2,-1,-1,-3,-7,0
1528453399233205,0,3,-2,0,-1,-1,7,-4
1528453399248210,-2,0,2,0,-2,-3,-4,-1
1528453399248210,-3,-1,-4,-2,0,2,1,1
1528453399263150,1,0,-3,-2,-1,3,6,-1
1528453399263150,-1,0,1,1,0,1,-2,-1
1528453399285413,-1,0,-2,-2,-2,1,5,0
1528453399285413,-1,-2,-1,-1,-2,-3,-2,-3
1528453399292417,-2,-1,-4,0,-1,-2,-2,-1
1528453399292417,0,-2,0,0,0,-2,-5,-3
1528453399307597,0,0,-2,-2,1,7,0,0
1528453399307597,-1,-3,-1,-1,-2,0,0,-2
1528453399322532,0,-2,-3,-1,-1,-1,-3,-2
1528453399322532,-2,-3,0,-1,-2,0,-3,-1
1528453399330091,-1,-1,-1,-1,-4,-2,0,0
1528453399330091,-3,-2,1,0,1,2,2,-1
1528453399337886,-1,-1,-4,-3,-1,-2,-4,-1
1528453399337886,1,-3,-2,0,-1,-15,-1,-1
1528453399344857,-2,-1,-1,0,3,17,2,-2
1528453399344857,0,-1,-3,-3,-3,-7,-3,0
1528453399359764,-1,0,0,-3,-3,-3,1,-1
1528453399359764,-3,-2,-4,-3,-5,-2,-7,-5
1528453399374723,2,0,-1,-9,-5,0,-1,1
1528453399374723,-2,-1,1,13,15,0,-2,-4
1528453399382701,0,-3,0,4,4,-2,2,1
1528453399382701,2,-1,0,1,-4,4,-2,0
1528453399397713,-2,-1,-4,-3,6,-4,2,-1
1528453399397713,-2,0,-4,-9,-14,0,-2,1
1528453399404695,-1,1,-2,-5,-4,-10,-9,-2
1528453399404695,3,-1,0,2,0,0,5,-1
1528453399419603,-2,-17,-5,1,-4,-10,-3,-2
1528453399419603,0,0,-4,-5,2,3,-3,-1
1528453399434616,3,0,0,4,1,2,2,-1
1528453399434616,-3,3,0,0,2,3,-6,-8
1528453399442597,3,5,-1,-1,-3,-3,3,2
1528453399442597,-7,-6,-2,-2,-1,-3,-6,-17
1528453399457563,0,6,1,4,4,0,1,10
1528453399457563,-3,-12,-2,-3,-4,1,-1,2
1528453399464537,-2,-9,-1,-3,-6,-1,0,4
1528453399464537,-8,-1,-1,-1,2,-13,8,13
1528453399479498,2,2,-1,0,1,-2,-3,-5
1528453399479498,-11,-19,0,-1,-2,-3,-5,-6
1528453399494457,-1,-3,-1,-1,-4,-4,-4,-7
1528453399494457,-4,-4,0,-1,-1,-2,0,2
1528453399502382,2,11,1,-3,-2,-1,-1,-4
1528453399502382,0,-2,-2,-1,-2,-1,-3,1
1528453399517396,-1,-4,-1,-3,-1,-2,-1,-2
1528453399517396,-1,2,2,2,2,-11,0,0
1528453399525321,-5,-2,-3,0,-12,4,0,0
1528453399525321,3,6,7,1,12,7,1,1
1528453399540337,2,-5,-9,-6,-4,1,-5,-1
1528453399540337,-1,-3,-6,-8,9,-25,-3,-4
1528453399547262,0,1,1,2,4,30,-7,4
1528453399547262,3,4,1,-3,-32,-1,20,3
1528453399562277,4,2,1,-1,3,-16,4,0
1528453399562277,1,1,-3,-3,-8,1,-12,0
1528453399577184,-2,-4,-1,-4,-15,-12,-1,-3
1528453399577184,-2,-2,-4,-5,-13,1,-3,0
1528453399585161,-3,-2,-3,-2,3,-8,-9,-5
1528453399585161,-1,-1,-3,-1,1,4,0,-1
1528453399600173,-1,-3,1,-1,-2,-7,5,0
1528453399600173,1,2,1,-1,0,9,-2,2
1528453399607154,-2,-2,-1,-2,-3,4,5,-2
1528453399607154,1,1,-3,0,3,-4,-2,1
1528453399622114,-2,-2,0,-1,0,-6,-4,-1
1528453399622114,1,1,-1,-4,6,-5,-10,-1
1528453399637074,-2,-3,-1,1,1,1,-5,-1
1528453399637074,-2,-2,0,-2,-6,5,4,0
1528453399645054,-3,-1,-2,-2,1,-5,3,-2
1528453399645054,0,1,-1,-1,6,-3,1,0
1528453399659997,-3,0,0,-1,-3,3,10,-1
1528453399659997,-1,0,-1,-1,-5,-1,7,1
1528453399668176,0,0,0,-1,2,-4,2,-1
1528453399668176,-1,1,-1,0,1,1,-1,-1
1528453399682892,-2,-1,1,2,0,-4,-3,-1
1528453399682892,0,1,1,0,-1,0,-2,0
1528453399697852,0,0,-3,-2,-3,-5,-3,-1
1528453399697852,-3,-3,0,1,3,-1,-2,-1
1528453399705136,0,0,-1,-1,-3,-1,-1,-1
1528453399705136,-1,-1,-2,-1,0,-2,-2,-1
1528453399719856,0,1,-1,-2,1,-2,-3,-3
