timestamp,emg1,emg2,emg3,emg4,emg5,emg6,emg7,emg8
1529564053733849,0,0,1,0,-2,-1,-1,0
1529564053733849,0,-1,-1,-1,0,-1,0,-1
1529564053740829,-2,0,-2,-2,0,0,1,1
1529564053740829,-1,-1,-1,-2,0,-1,-1,-1
1529564053755823,-2,-1,0,-2,2,-1,-1,0
1529564053755823,-1,2,-1,-1,-2,0,0,0
1529564053763793,1,1,-2,-1,0,-3,-1,0
1529564053763793,0,0,0,0,-1,1,0,0
1529564053778727,-2,-1,1,1,-2,0,-1,-1
1529564053778727,-2,-1,-1,-1,-1,0,-1,-1
1529564053793687,0,-1,0,0,1,2,1,-1
1529564053793687,0,-1,-2,-2,0,-1,-1,-1
1529564053800671,-1,0,0,0,0,-1,-1,-3
1529564053800671,-1,-2,-1,1,0,-2,0,0
1529564053815628,0,0,-2,-1,-1,-1,-1,-1
1529564053815628,0,1,0,0,-1,1,-1,-1
1529564053823642,-1,-1,-2,0,0,-1,-1,-1
1529564053823642,-2,1,-1,-1,1,-1,-1,-2
1529564053838568,0,-1,-1,-1,0,-1,-1,0
1529564053838568,0,0,-1,0,0,-1,0,-2
1529564053853529,-1,-2,0,-1,-1,-1,0,-2
1529564053853529,0,-1,-1,0,-1,-2,-1,0
1529564053860541,0,0,-1,-1,0,0,0,1
1529564053860541,-1,-1,0,-1,0,-1,0,-1
1529564053876469,-1,-1,-2,-1,-2,-1,-1,0
1529564053876469,-1,0,-1,1,1,-1,0,0
1529564053883448,1,-2,0,-1,-2,-1,0,-1
1529564053883448,1,-2,-1,-1,1,0,-1,0
1529564053898408,-1,-1,-2,-1,-1,-1,-1,-1
1529564053898408,-2,-1,1,0,-1,-1,0,-1
1529564053913367,0,0,0,-1,-1,0,-2,0
1529564053913367,0,-3,-2,-1,-1,-1,-2,0
1529564053921381,-2,0,-1,-1,-2,-1,-2,0
1529564053921381,-1,0,0,-1,-1,-1,-1,-2
1529564053936353,-2,-1,0,0,-1,-2,-2,0
1529564053936353,-2,0,-1,0,0,0,-1,-1
1529564053943288,1,-1,0,-1,0,-2,-1,0
1529564053943288,1,-1,0,0,-1,-1,-1,-2
1529564053958248,1,-2,-1,-1,0,1,0,-2
1529564053958248,0,-1,1,-1,-1,-1,1,-2
1529564053966272,-1,-1,-1,0,-1,0,1,0
1529564053966272,-2,-1,-1,0,-1,-1,0,0
1529564053973247,1,-2,0,-1,-1,1,-1,-4
1529564053973247,-1,0,-1,0,-1,-2,-2,-1
1529564053981189,0,-1,-1,-2,1,-1,-1,-1
1529564053981189,1,-1,-1,-2,0,0,0,0
1529564053996187,-1,1,-1,0,1,-2,-1,0
1529564053996187,-1,-1,-2,0,-1,-1,-2,-2
1529564054003165,-1,2,1,0,-2,0,0,-1
1529564054003165,0,-2,-1,1,-1,-1,-1,0
1529564054018121,-1,-2,0,0,-1,1,1,-1
1529564054018121,1,-1,2,0,-1,-1,2,0
1529564054026066,-1,-1,0,-1,0,-1,-1,-1
1529564054026066,0,1,-2,-2,-1,0,-1,0
1529564054033048,-2,-1,-1,-1,1,1,0,1
1529564054033048,0,1,-2,-2,-1,0,0,1
1529564054041027,1,-1,-2,0,0,0,0,-1
1529564054041027,0,-1,1,-2,-1,-1,1,-1
1529564054055987,-1,-2,-2,-1,0,-1,2,0
1529564054055987,0,-1,-2,-1,-1,0,-1,-1
1529564054063967,-1,-1,0,0,0,-1,0,0
1529564054063967,-1,-1,-1,0,0,-2,0,-1
1529564054078959,0,0,0,0,-1,0,-3,-2
1529564054078959,-1,-1,0,0,-1,-1,0,0
1529564054085942,-1,-3,-1,0,-1,0,0,0
1529564054085942,0,-2,-1,-2,-1,0,0,0
1529564054093884,0,0,0,-1,-1,-1,0,0
1529564054093884,0,1,-1,-1,0,0,-1,0
1529564054100866,-1,-2,-1,-1,-1,0,0,-2
1529564054100866,-1,1,-2,-1,0,-2,-2,1
1529564054115874,0,0,0,0,-1,0,-1,0
1529564054115874,0,-2,0,-1,0,0,-1,-1
1529564054123853,1,0,-2,0,0,0,0,1
1529564054123853,-2,-1,0,1,2,0,0,0
1529564054138811,0,-2,-2,-3,-2,-2,0,0
1529564054138811,-3,-1,0,-3,-2,1,0,-1
1529564054145793,-2,-2,0,0,0,-1,0,1
1529564054145793,0,-1,-1,0,-1,-1,-1,-2
1529564054153771,-3,-1,-1,1,0,-2,-4,1
1529564054153771,-1,-3,-2,-1,1,0,-2,0
1529564054160753,0,0,-1,-2,-1,-1,-1,-1
1529564054160753,-1,-1,-1,-1,-1,0,0,-2
1529564054175713,-1,-1,0,0,1,-1,0,-1
1529564054175713,0,-1,-2,-1,0,-2,0,-2
1529564054183692,0,-1,-1,0,-1,-1,-1,-1
1529564054183692,-1,1,0,1,1,0,0,1
1529564054198606,1,-1,-1,-2,0,0,-1,-1
1529564054198606,-1,0,-1,-1,-1,-1,-1,0
1529564054205635,0,1,-2,0,0,0,0,0
1529564054205635,1,-1,-2,-1,-2,-1,-1,1
1529564054213612,-2,0,-1,0,-1,-1,0,0
1529564054213612,-1,0,1,-1,-1,0,-1,-1
1529564054220593,-2,-2,1,0,-1,0,0,-2
1529564054220593,0,0,0,-2,0,-1,0,-1
1529564054235554,-1,-2,-1,1,-1,-1,2,0
1529564054235554,0,-1,-1,-1,-1,-1,0,0
1529564054243532,0,0,0,-2,-1,0,0,-1
1529564054243532,0,0,-3,0,-1,-1,0,0
1529564054258492,0,0,0,-1,0,1,0,-2
1529564054258492,0,-1,-1,0,1,-2,-2,0
1529564054266471,-1,0,-1,0,0,-1,-1,0
1529564054266471,-1,0,0,-1,0,-1,0,-1
1529564054273451,1,0,1,1,-1,-1,-1,0
1529564054273451,0,-2,-3,-1,-1,-1,0,0
1529564054281384,-2,1,1,0,-1,0,-1,-1
1529564054281384,-1,0,0,0,0,0,0,-1
1529564054296390,-1,0,-1,0,1,0,-2,0
1529564054296390,0,0,0,0,0,-1,1,-1
1529564054303372,0,-1,-1,-2,0,-1,-1,0
1529564054303372,-1,-2,0,0,0,1,-1,-1
1529564054318332,-1,1,0,-1,-2,-1,-1,-1
1529564054318332,0,-1,1,0,0,0,0,-1
1529564054326311,1,0,-1,-1,0,-1,-1,-2
1529564054326311,-1,-1,-1,1,1,-1,1,0
1529564054333291,0,-2,-2,0,0,-3,0,1
1529564054333291,-1,-1,0,-1,-1,0,-1,-1
1529564054341270,1,-1,-3,1,-3,-1,0,1
1529564054341270,-1,0,0,-1,0,0,-1,-2
1529564054356230,-2,1,-1,-1,0,0,-1,-1
1529564054356230,-3,0,-1,0,1,-2,-1,0
1529564054363212,-1,0,1,-1,0,-1,0,0
1529564054363212,1,-1,-1,-2,-2,0,-1,-1
1529564054386139,0,-2,1,0,0,-1,-1,-1
1529564054386139,0,-1,-2,-1,-1,1,1,-1
1529564054393085,-1,-3,-1,-1,-1,-1,0,0
1529564054393085,-1,0,1,1,0,0,-2,-1
1529564054401063,0,1,1,-3,-1,0,-2,-3
1529564054401063,0,-2,-2,0,-1,-1,-1,0
1529564054408045,0,0,-1,0,-2,1,0,-1
1529564054408045,0,-1,-2,0,1,-2,0,1
1529564054424059,-1,-3,-1,1,0,1,0,1
1529564054424059,0,0,0,-1,-1,0,0,-1
1529564054430984,0,-1,0,-1,-1,-1,-1,-1
1529564054430984,-1,-1,0,0,-2,-1,0,0
1529564054438963,-2,1,-1,0,-1,-1,-1,-1
1529564054438963,1,-1,0,-1,-1,-1,-1,1
1529564054446123,-2,0,-1,-1,-1,-1,-1,-1
1529564054446123,-1,-1,0,-2,-1,0,-1,-1
1529564054453561,0,-1,-1,-1,0,0,0,-1
1529564054453561,-1,0,0,1,-2,-1,0,-1
1529564054461531,-2,0,0,0,0,-2,-1,-1
1529564054461531,0,-2,-2,-1,-2,0,-1,2
1529564054476315,-1,0,-1,-1,-1,2,0,-2
1529564054476315,2,-1,1,0,-1,1,1,0
1529564054483459,0,-1,-3,-1,-2,1,0,-1
1529564054483459,-1,0,1,0,0,-2,-1,-1
1529564054498482,-2,-1,0,-1,-1,-1,0,-1
1529564054498482,-1,1,-1,0,0,0,-2,-1
1529564054506637,1,-1,0,-2,0,0,-1,0
1529564054506637,1,1,0,-3,-2,1,-1,0
1529564054513621,-1,1,-2,-1,-2,2,-1,0
1529564054513621,-2,0,-3,0,0,0,1,0
1529564054521421,0,-1,0,1,0,-1,0,0
1529564054521421,0,0,0,1,1,-2,-1,-1
1529564054536381,1,0,1,-1,-1,-2,0,0
1529564054536381,-1,-2,1,-1,-2,-1,-1,-1
1529564054543363,-1,0,0,0,-1,-2,0,-1
1529564054543363,-1,-3,-1,0,-1,-1,-1,0
1529564054558325,-1,-1,-1,0,-1,-1,-1,0
1529564054558325,-1,-1,-1,-1,0,0,0,-1
1529564054566638,-1,0,0,-1,-1,0,-2,-2
1529564054566638,0,0,0,-2,-1,0,0,1
1529564054573285,-1,-1,-2,1,-1,0,0,1
1529564054573285,-1,-1,1,-1,1,-1,-2,-3
1529564054581262,0,-1,-2,-2,0,-1,-1,0
1529564054581262,-2,-2,0,1,0,-1,1,-1
1529564054596357,0,-2,0,-1,-1,0,-1,1
1529564054596357,0,-1,-1,-1,-1,-1,-1,0
1529564054604200,1,0,1,0,0,-1,-1,0
1529564054604200,-2,0,-1,-2,1,-1,-1,0
1529564054619203,-1,-1,-2,1,-2,-1,0,-1
1529564054619203,-1,0,1,1,0,0,-1,-1
1529564054626524,1,0,-2,1,0,0,-2,0
1529564054626524,0,0,-1,-2,0,-1,1,-1
1529564054633503,0,-1,0,-1,0,-1,-1,0
1529564054633503,0,2,0,-1,-1,-1,0,0
1529564054641072,-2,-2,-1,-1,-1,1,0,0
1529564054641072,-1,-1,-1,-1,-1,1,-4,0
1529564054656148,0,-1,0,-1,1,-1,-2,-2
1529564054656148,-1,-2,1,-1,-1,-1,-1,0
1529564054663966,1,0,-2,0,0,0,-1,0
1529564054663966,-1,-1,0,1,-1,-2,-1,-1
1529564054679081,-1,-1,-1,-2,-1,1,0,1
1529564054679081,1,0,-3,0,0,-1,1,1
1529564054686288,-1,-1,-1,0,-1,0,-1,0
1529564054686288,0,0,0,-2,1,0,-1,-2
1529564054693269,-1,0,-1,-1,1,-1,-2,0
1529564054693269,-1,0,-1,0,0,0,0,0
1529564054701251,-2,-1,-1,-2,-1,0,0,0
1529564054701251,-1,-1,0,0,-2,1,0,-1
1529564054716243,-1,0,0,1,-1,-1,0,-1
1529564054716243,0,0,0,-1,-1,0,-3,-1
1529564054723376,0,-1,1,-1,0,-1,-1,-1
1529564054723376,1,-1,-1,-1,-1,0,-2,0
1529564054739173,-1,-1,1,-1,1,-2,1,0
1529564054739173,0,-1,-3,-1,-2,1,-1,-1
1529564054746532,-2,0,-1,0,0,-2,0,-1
1529564054746532,-1,-1,-1,0,0,-1,0,0
1529564054753726,0,-1,1,0,-1,-2,-1,0
1529564054753726,0,-2,0,-2,-2,0,0,0
1529564054761722,1,-1,0,0,0,-1,-1,-1
1529564054761722,-2,-1,0,0,-1,-1,0,-1
1529564054775691,0,-1,-2,0,-2,0,-3,-1
1529564054775691,-1,0,0,-1,0,0,0,0
1529564054791664,0,-1,0,-1,-1,0,0,1
1529564054791664,1,-1,-1,1,0,0,-1,-1
1529564054798806,1,0,0,0,-1,1,0,0
1529564054798806,-1,0,-2,-2,0,-2,-2,0
1529564054813402,0,0,-3,0,-1,1,0,-2
1529564054813402,-3,-1,-1,0,0,-1,-2,0
1529564054829299,0,1,-1,-1,-1,-2,1,0
1529564054829299,1,-1,0,-1,0,0,0,-1
1529564054836229,-1,-1,-1,-1,0,-3,-2,-2
1529564054836229,0,-2,0,0,0,0,0,-1
1529564054851534,2,-1,0,-2,-1,-1,0,0
1529564054851534,-1,-1,0,-1,1,-1,0,0
1529564054859197,0,-1,-1,-1,-1,-1,1,-1
1529564054859197,1,-1,2,3,-1,-1,0,0
1529564054874151,-1,-1,-1,-1,-1,0,0,1
1529564054874151,-1,-1,-1,-2,-1,0,-1,-1
1529564054889174,0,0,0,0,-1,-1,-1,1
1529564054889174,-1,0,0,1,-2,-2,-2,-1
1529564054896251,-1,-1,2,0,0,0,-1,-2
1529564054896251,1,-1,0,2,-1,-1,-1,-1
1529564054911247,-3,-1,-1,1,-1,0,-1,1
1529564054911247,0,-1,-1,0,-2,-1,0,-1
1529564054918392,-1,-1,-1,-1,-2,1,-1,0
1529564054918392,0,-1,-1,-1,-1,0,-1,0
1529564054933383,-2,0,-1,0,-1,-2,0,-1
1529564054933383,0,-2,-2,-3,-2,-2,1,-1
1529564054948316,1,0,1,-1,-1,0,-1,-1
1529564054948316,-2,1,0,-1,-1,0,1,-1
1529564054956524,-2,0,-1,0,-1,0,-2,0
1529564054956524,-2,0,-2,-2,0,-2,-1,-2
1529564054971522,0,0,0,1,-1,-1,-1,0
1529564054971522,2,0,0,-1,0,-1,-1,1
1529564054978853,2,-1,0,0,1,-1,0,0
1529564054978853,0,-1,0,1,0,-1,0,0
1529564054993821,-1,-1,-2,-1,-1,-1,-1,-1
1529564054993821,0,0,0,0,1,0,-1,0
1529564055008763,0,-1,0,0,0,-1,1,-1
1529564055008763,-2,0,-2,-1,-1,-1,-1,0
1529564055016681,-1,1,-1,-1,-1,-2,-2,-2
1529564055016681,-1,-1,0,-1,-1,-1,-1,-1
1529564055031543,-2,-1,0,-2,-2,-1,0,-2
1529564055031543,0,-2,-1,0,0,-1,-1,-1
1529564055038522,1,0,-1,0,0,-3,0,0
1529564055038522,-3,0,-1,1,0,0,-1,0
1529564055053482,1,0,-1,-2,-1,0,0,-1
1529564055053482,0,-1,-2,-1,-1,0,0,0
1529564055068605,-1,-2,-1,-2,0,0,1,0
1529564055068605,0,-2,-2,-1,-2,-2,0,-1
1529564055076599,-1,-1,0,-2,-1,-2,-1,0
1529564055076599,0,-1,0,0,-1,0,0,0
1529564055091536,-1,-1,0,2,-1,1,-1,-2
1529564055091536,-2,-1,-2,0,1,-1,0,-1
1529564055098520,0,-3,-1,1,-1,-1,0,-1
1529564055098520,-2,-1,0,0,0,0,-1,-3
1529564055113477,-1,-1,-1,-1,0,-1,0,0
1529564055113477,-2,-2,-1,0,-1,0,-1,-1
1529564055128443,0,0,-1,-1,0,0,0,0
1529564055128443,-1,0,-2,-2,2,-1,-1,-3
1529564055136288,-1,-1,-1,-2,-2,1,-1,-1
1529564055136288,1,-1,-1,-1,0,0,0,-1
1529564055151551,0,-1,-2,-1,1,1,-2,-1
1529564055151551,0,-1,0,0,0,0,-2,-1
1529564055158382,-1,0,0,0,-1,0,0,0
1529564055158382,0,0,-1,0,-2,-1,0,1
1529564055173543,0,-2,0,-1,-1,-2,0,-1
1529564055173543,0,-2,-1,-1,-1,-1,-1,-2
1529564055188726,-1,1,-1,-1,-1,-2,-1,-1
1529564055188726,-1,0,-1,-1,-1,1,-2,-3
1529564055196123,0,0,0,1,0,-1,0,-2
1529564055196123,0,0,-3,-1,-2,0,-1,0
1529564055210928,0,0,1,-2,0,-1,1,0
1529564055210928,0,0,-1,-1,-1,-1,-1,0
1529564055218905,-1,0,-1,-2,0,-1,-1,-2
1529564055218905,0,0,-1,-1,-1,-2,0,-1
1529564055233701,0,-2,0,1,1,-1,1,1
1529564055233701,0,-1,1,-2,-2,0,0,-1
1529564055249385,-1,-1,-1,0,1,-1,0,0
1529564055249385,-1,-2,-1,-2,-1,-1,-2,0
1529564055256525,-2,0,0,-2,-1,0,-1,0
1529564055256525,0,1,1,-2,0,-1,-1,1
1529564055271488,-1,-1,-2,-2,0,0,-1,-2
1529564055271488,0,0,-1,-1,-1,0,-1,-1
1529564055278472,0,-1,-1,-2,-1,0,0,-1
1529564055278472,1,-1,0,0,0,0,-2,0
1529564055293432,-1,-1,1,-2,-3,-1,-1,0
1529564055293432,0,-1,-1,-1,1,0,0,-1
1529564055308369,0,-1,-1,0,-1,0,-2,0
1529564055308369,0,0,0,-1,-3,-2,0,0
1529564055316208,0,0,-1,1,-1,0,-3,1
1529564055316208,-2,-1,-1,-1,-1,0,-1,0
1529564055331165,0,-1,-2,0,-1,-1,-1,-2
1529564055331165,0,0,1,0,-1,-1,-1,0
1529564055338147,-1,0,-1,0,-1,-1,0,0
1529564055338147,-1,-1,-1,0,1,-1,-1,-1
1529564055354175,0,2,1,0,1,-1,-1,-1
1529564055354175,1,-2,0,0,0,-1,-2,-1
1529564055376150,-2,-1,0,-2,0,-1,1,0
1529564055376150,0,-1,0,2,0,0,0,-1
1529564055383086,-2,-1,0,0,0,1,-1,0
1529564055383086,-1,1,-1,-2,-2,-2,-1,-1
1529564055398042,0,-2,-1,0,0,0,0,0
1529564055398042,-1,0,-1,-2,0,-1,-2,-2
1529564055406323,1,-1,-1,-3,0,0,-1,-1
1529564055406323,-1,0,-1,-1,-1,-1,0,-1
1529564055420982,-1,0,-1,1,-1,-1,1,-1
1529564055420982,1,0,-2,0,-1,-1,-1,0
1529564055435941,0,0,-1,1,-1,0,-3,0
1529564055435941,0,-1,0,0,-1,0,-1,-2
1529564055450948,-1,0,1,0,0,0,0,0
1529564055450948,0,-2,-1,0,-1,-2,-2,1
1529564055458881,-1,-2,-1,-3,-1,0,-1,-2
1529564055458881,-2,0,-1,-2,-2,-1,0,-1
1529564055473840,0,-2,-2,-2,0,-1,-1,-1
1529564055473840,-1,-1,1,-1,0,0,-1,-1
1529564055495781,-2,0,0,-1,-2,0,-1,-1
1529564055495781,0,-1,-1,-1,0,1,1,-1
1529564055503760,-2,1,0,0,-1,-1,0,0
1529564055503760,1,-1,-2,0,0,-1,-1,1
1529564055518720,-2,0,0,1,-1,-1,0,-1
1529564055518720,-1,0,-1,1,-1,0,0,0
1529564055525702,-2,0,-1,0,0,-1,0,-2
1529564055525702,-2,-2,0,-2,-1,0,0,0
1529564055540661,-1,0,1,-1,-1,-2,0,-1
1529564055540661,0,0,0,1,-2,-1,-2,-1
1529564055555654,2,-3,-2,1,-1,0,0,0
1529564055555654,0,-2,0,0,-1,0,0,0
1529564055570614,-1,-2,-1,-2,-2,-1,-1,0
1529564055570614,-2,1,0,-1,1,-1,-1,-1
1529564055578607,-1,1,0,-3,-1,0,-2,-1
1529564055578607,0,1,0,-1,0,-1,0,-1
1529564055593567,1,-2,0,-1,0,-1,-1,0
1529564055593567,0,-2,-2,-1,0,0,-2,-1
1529564055608506,-1,0,-1,-1,0,0,0,-2
1529564055608506,1,-2,1,0,-2,-1,-1,-2
1529564055615499,-1,-1,-2,1,-2,-1,-1,0
1529564055615499,0,1,-1,1,0,-1,0,0
1529564055631445,1,0,-1,1,-1,0,-1,1
1529564055631445,0,-3,-2,-2,-2,0,-1,0
1529564055646421,0,-1,1,-1,1,0,1,-2
1529564055646421,-1,-1,0,-1,-1,-1,-1,0
1529564055661338,1,-1,0,0,-2,0,-1,-1
1529564055661338,-1,-1,-2,-2,0,-1,-1,1
1529564055676317,-2,0,-1,-1,0,1,-2,-2
1529564055676317,-1,0,0,-1,0,-1,-2,0
1529564055683326,-1,-3,-1,0,-1,-2,0,0
1529564055683326,-1,0,0,-1,0,-1,-1,-1
1529564055691293,0,-2,0,-1,-1,-2,-2,-1
1529564055691293,1,1,-2,-1,0,0,1,0
1529564055698278,0,-2,0,3,-2,-1,-1,0
1529564055698278,-2,0,-1,0,0,1,-1,-1
1529564055713238,-1,0,0,-3,-1,-1,1,1
1529564055713238,0,-1,-3,0,-1,-1,0,0
1529564055728158,1,-1,-1,-1,0,0,-1,-1
1529564055728158,0,0,-3,0,-2,-1,0,0
1529564055736137,0,1,-3,-1,0,0,-1,0
1529564055736137,-1,0,0,-1,-1,-2,-1,-1
1529564055751130,-2,-1,1,0,1,0,0,0
1529564055751130,-1,0,1,0,1,1,-1,0
1529564055758081,-1,-1,0,-2,1,-1,0,0
1529564055758081,-2,-1,0,0,-1,0,0,0
1529564055773039,0,-1,-1,0,0,1,0,0
1529564055773039,-2,0,-2,0,1,0,0,0
1529564055788996,1,-2,-2,-1,0,-1,-2,-1
1529564055788996,-1,-1,-3,0,-1,-1,-1,-1
1529564055796143,0,1,0,-1,-1,0,-1,-2
1529564055796143,0,-1,-1,-1,0,0,-2,-2
1529564055811117,1,-1,-1,0,-1,1,0,0
1529564055811117,0,0,0,-2,-2,-1,1,1
1529564055818920,-1,-1,-3,0,-1,-1,-1,-2
1529564055818920,1,-2,-1,-1,-1,0,1,-2
1529564055833880,-1,-1,-1,-1,-1,-1,1,0
1529564055833880,-1,-1,1,-2,-3,-1,-2,0
1529564055848841,-1,-1,0,0,0,-3,0,-1
1529564055848841,1,0,0,-1,0,0,-1,-1
1529564055855821,0,-1,-1,0,0,-1,-1,0
1529564055855821,0,-1,0,0,0,1,1,-1
1529564055870820,1,-1,-1,0,-2,-1,0,-1
1529564055870820,-3,-2,-2,0,-1,-1,-1,-1
1529564055878269,-2,-1,0,-2,-1,-1,0,0
1529564055878269,-1,0,-1,0,0,0,-1,0
1529564055893388,0,0,-1,0,-1,-1,-2,0
1529564055893388,-1,0,1,-1,0,-2,-2,1
1529564055908350,0,-4,0,-2,0,0,0,0
1529564055908350,0,-2,0,0,0,1,-1,1
1529564055916547,0,-2,-1,-1,-2,0,-1,0
1529564055916547,-2,-2,0,0,0,-1,-1,-1
1529564055930689,0,1,-3,0,-1,-1,0,-1
1529564055930689,-2,-1,0,1,-1,-1,-1,-1
1529564055938845,-2,2,-1,1,-1,0,-1,-2
1529564055938845,2,-3,-1,-1,-1,0,-1,-1
1529564055960613,-2,-2,-1,0,-1,1,-1,-2
1529564055960613,-2,-1,-1,-2,-3,0,0,0
1529564055975571,-1,0,-1,0,-1,0,-1,-2
1529564055975571,-1,0,-2,-1,-1,-3,2,-1
1529564055983550,0,0,-1,1,0,-1,-2,0
1529564055983550,-1,-1,-2,-2,-1,-2,-1,0
1529564055998691,0,-1,-1,-1,0,0,0,-1
1529564055998691,-1,0,-1,1,-1,0,1,-2
1529564056013625,0,0,-2,-1,0,0,-1,-1
1529564056013625,0,-2,-1,-1,1,1,-1,-1
1529564056028553,-1,-2,0,-1,0,-1,-2,0
1529564056028553,-1,-2,-1,-2,-1,1,0,0
1529564056035530,-2,-1,0,-2,0,-1,1,-1
1529564056035530,-2,-1,-1,1,0,0,-1,0
1529564056051682,-1,0,-1,0,-1,-1,0,-1
1529564056051682,0,0,1,0,0,-1,-1,-2
1529564056058638,-1,-1,1,0,-2,-3,-1,-1
1529564056058638,0,-1,-1,0,-1,-1,1,-1
1529564056073770,0,-1,-1,-1,0,-1,-1,0
1529564056073770,1,-2,0,-1,-1,0,-1,-1
1529564056088558,0,-1,-1,0,-1,1,-1,1
1529564056088558,0,-1,-1,-1,-1,-2,-1,-1
1529564056096536,-2,-1,-1,-1,1,-1,-2,0
1529564056096536,0,-1,-1,-1,0,-1,0,-1
1529564056111494,0,-1,-3,0,0,0,-1,-1
1529564056111494,-1,2,-1,0,-2,-2,-2,0
1529564056118478,-1,0,0,-1,-1,0,0,-1
1529564056118478,-1,0,-1,-1,-1,-2,-1,0
1529564056133435,-1,-1,0,-1,-1,-1,0,1
1529564056133435,-1,-3,0,0,-1,0,0,-1
1529564056141417,0,-1,-1,1,-1,-1,0,-1
1529564056141417,0,1,-1,-1,-1,-2,-1,-1
1529564056156373,1,-1,-2,0,-2,-1,0,-1
1529564056156373,-2,0,0,0,0,-2,-1,-1
1529564056171337,1,0,-1,-1,-1,-1,-1,-2
1529564056171337,-1,-1,-1,0,-1,-2,-1,-1
1529564056178315,-1,0,-1,-3,0,1,-2,-2
1529564056178315,-1,-1,-2,0,-1,0,-1,0
1529564056193291,-1,1,0,1,-1,1,-1,-2
1529564056193291,-1,-1,1,1,-1,0,0,0
1529564056201440,1,0,-2,-1,0,-1,1,0
1529564056201440,-1,-1,-1,0,-1,-1,-1,0
1529564056216230,-1,-2,-1,-1,0,0,0,2
1529564056216230,-1,0,-3,-1,0,0,0,0
1529564056231216,-1,0,-1,-1,0,-1,0,0
1529564056231216,0,-1,-1,-1,-1,-1,1,-1
1529564056238335,-1,-1,-1,-1,-1,-1,-1,1
1529564056238335,0,0,0,-2,-2,-1,-1,-2
1529564056253378,-1,-2,0,0,-1,-1,-1,-1
1529564056253378,-1,0,-3,1,-2,-1,-1,0
1529564056261356,0,-1,0,1,-1,-1,-2,0
1529564056261356,0,-1,-1,0,-1,-1,1,1
1529564056276321,0,0,2,1,-1,0,-1,0
1529564056276321,-1,0,-1,-1,-2,-1,0,0
1529564056291659,0,-2,-2,-2,0,-1,-1,-2
1529564056291659,-2,-1,-2,-1,1,1,-2,-1
1529564056298911,-1,1,-2,-3,-1,0,1,-1
1529564056298911,0,-2,2,-1,0,-1,0,0
1529564056313838,1,2,-1,-1,0,-1,0,1
