timestamp,emg1,emg2,emg3,emg4,emg5,emg6,emg7,emg8
1528881935528698,-2,0,0,-1,0,-1,0,0
1528881935528698,-1,-2,-2,-1,0,-2,-1,0
1528881935541644,0,-2,0,1,-1,1,-1,0
1528881935541644,-2,-1,-2,-2,-1,0,-1,-1
1528881935548620,1,-1,-1,-1,-1,1,-1,-2
1528881935548620,0,1,-1,0,-1,1,-1,-1
1528881935563605,-2,-1,-1,0,0,-1,-1,-1
1528881935563605,-1,0,0,0,0,-2,-1,-1
1528881935580536,0,1,0,-1,-1,0,1,-1
1528881935580536,0,-1,0,-1,-1,-2,-1,0
1528881935586516,-1,-1,-2,-2,0,-1,0,-1
1528881935586516,-2,-1,0,-1,0,-1,2,1
1528881935601516,-1,1,-1,-1,0,-1,-1,0
1528881935601516,-1,-1,1,-1,0,0,-1,1
1528881935608459,0,0,-3,0,0,0,-1,0
1528881935608459,-1,-1,-1,-1,-1,-1,1,0
1528881935625412,1,-2,1,-2,0,-1,-1,0
1528881935625412,0,-1,0,-2,-2,-1,-2,-1
1528881935646395,-1,0,0,-2,0,0,-2,-1
1528881935646395,-1,-1,0,1,-1,0,-1,-1
1528881935653379,-1,-1,-1,-1,-1,0,-2,-1
1528881935653379,0,-1,-1,-2,-2,-1,0,-1
1528881935661629,0,0,-2,-1,-1,-2,0,-2
1528881935661629,-1,-1,-1,-2,0,-1,1,-2
1528881935668636,-2,0,0,0,-1,-1,0,1
1528881935668636,-2,0,0,-1,0,0,0,0
1528881935683585,-1,1,-1,1,0,1,0,0
1528881935683585,0,1,-1,-1,-1,-1,-2,0
1528881935691529,0,-1,-2,-1,-1,-1,0,-1
1528881935691529,0,-1,-1,-1,-1,-1,-1,-2
1528881935698511,-1,-1,0,-2,-2,-2,-1,0
1528881935698511,0,0,0,0,-1,-2,-1,-1
1528881935706489,0,-2,-1,0,1,0,-1,0
1528881935706489,0,1,0,-2,-1,0,-2,0
1528881935721449,-1,-1,0,1,-1,0,0,0
1528881935721449,-1,-2,-2,-2,0,-1,0,0
1528881935728431,0,0,-1,0,-1,-1,-2,-1
1528881935728431,-1,0,-1,-1,0,0,0,-1
1528881935743426,1,-2,-1,-1,-1,-1,-1,0
1528881935743426,-2,-1,0,0,-1,0,-1,0
1528881935751370,0,0,0,0,-1,-1,-1,-1
1528881935751370,0,-1,-1,-1,-1,-1,-2,0
1528881935758379,-1,-2,-1,-1,0,0,0,-1
1528881935758379,0,0,-1,0,-1,-2,1,0
1528881935766330,-1,0,0,-1,-1,0,1,0
1528881935766330,-1,-1,0,-1,0,-2,-2,0
1528881935781291,-1,0,0,-2,-2,-2,0,1
1528881935781291,0,0,-1,-2,1,-1,-2,1
1528881935788298,-1,0,0,0,-1,-2,-1,-1
1528881935788298,-2,0,-2,0,2,-1,0,0
1528881935803231,-1,0,-2,-1,0,-1,0,-1
1528881935803231,-1,-2,-2,-1,-1,0,-1,0
1528881935811210,0,0,0,-3,0,-1,-2,0
1528881935811210,-1,-1,-2,-2,-1,-2,0,0
1528881935818192,-1,0,0,1,0,1,-2,-2
1528881935818192,0,1,-1,-2,0,-1,1,-2
1528881935826170,-2,-1,-2,-1,0,-1,0,0
1528881935826170,-1,-1,0,0,-1,-1,0,-1
1528881935841139,-1,0,-1,0,0,0,-1,-3
1528881935841139,0,0,-1,-1,-1,0,-2,1
1528881935849109,-1,0,0,-2,0,0,-1,-1
1528881935849109,-1,-2,-1,1,-2,0,0,0
1528881935864069,0,-2,-1,-2,0,-3,-1,0
1528881935864069,0,1,0,-1,1,-1,1,-2
1528881935871103,-1,0,-1,0,-1,1,-1,1
1528881935871103,0,-1,0,-1,-1,0,0,-1
1528881935879067,0,0,0,1,0,-1,-1,-1
1528881935879067,-3,-2,0,0,0,-2,-2,-1
1528881935886010,0,-2,-1,0,-2,-3,0,0
1528881935886010,-1,-1,0,2,-1,0,-1,-1
1528881935900973,0,0,-1,-1,0,-1,-1,0
1528881935900973,1,-1,-2,1,0,0,0,0
1528881935908949,-1,-1,-2,1,0,0,0,-1
1528881935908949,0,-1,-2,-1,-1,0,-1,0
1528881935923931,-1,-1,-1,-1,0,1,0,0
1528881935923931,-1,0,0,0,-3,0,1,-1
1528881935930891,-1,-1,1,-2,-1,-1,-1,0
1528881935930891,-1,-1,0,-2,-2,0,0,0
1528881935938895,-2,-1,0,-1,-1,-2,0,1
1528881935938895,-1,0,0,0,1,0,-2,-2
1528881935945849,0,-2,-1,-2,0,-2,1,-1
1528881935945849,0,-1,0,-1,0,0,0,0
1528881935960811,0,-2,0,-2,-3,-1,-2,-2
1528881935960811,-1,-1,-1,0,-1,2,-2,0
1528881935968828,-1,0,-1,0,-1,-1,0,-1
1528881935968828,-1,-1,1,-1,-1,-2,0,0
1528881935983776,-1,0,-2,0,-2,0,-1,-1
1528881935983776,0,0,-1,-2,-1,0,0,0
1528881935990757,0,1,0,-1,-1,0,-1,-2
1528881935990757,0,0,-1,-2,-1,0,1,-2
1528881935998710,0,-1,-1,2,-2,-3,-1,-1
1528881935998710,0,0,1,-1,-1,-2,-1,0
1528881936005690,-1,-1,-1,-1,1,0,-1,-2
1528881936005690,0,1,-1,-1,0,-1,-1,0
1528881936020651,-2,0,0,-2,0,0,0,0
1528881936020651,-2,-1,-1,-1,0,-1,0,-1
1528881936028629,0,-2,-2,-2,-1,-1,-1,0
1528881936028629,-1,-1,-2,0,-1,-1,-1,-1
1528881936043591,-2,0,-1,0,0,-1,0,0
1528881936043591,0,0,0,1,-1,-1,-1,-1
1528881936051567,-1,-1,-1,-1,8,-1,0,0
1528881936051567,-1,-2,-1,-2,-15,-2,-2,0
1528881936058548,1,0,0,-1,-1,0,-1,-1
1528881936058548,-1,-2,0,0,3,2,-1,-1
1528881936066531,-1,0,-1,-1,0,-1,-2,0
1528881936066531,-1,0,0,0,3,0,0,-2
1528881936081498,0,-1,-1,-1,-2,-1,-1,0
1528881936081498,-1,0,0,-2,-4,-1,0,0
1528881936088469,0,-1,0,0,-3,-1,-1,0
1528881936088469,-1,0,0,0,3,0,-1,0
1528881936103428,0,0,1,0,0,-1,0,0
1528881936103428,1,-1,-2,-2,1,-2,0,-2
1528881936111407,2,-1,1,0,-3,1,-1,0
1528881936111407,-2,1,0,0,-1,-2,-2,-1
1528881936118388,-2,0,-1,0,2,-2,0,-1
1528881936118388,-1,-2,-2,-1,-1,-1,2,-1
1528881936126367,0,1,1,-1,-1,-1,-1,0
1528881936126367,1,1,0,0,2,0,-1,-1
1528881936141327,-1,-1,-2,0,0,-1,-1,1
1528881936141327,0,-1,0,0,-2,-2,1,0
1528881936148309,-2,-1,-1,-2,-2,0,0,-1
1528881936148309,0,-2,0,-1,3,-1,0,-1
1528881936163268,-1,-1,-1,-2,-2,1,-1,0
1528881936163268,-1,-2,-1,-1,-2,-1,-2,0
1528881936171247,-1,0,0,1,-1,1,-1,0
1528881936171247,-2,1,-1,-1,-1,0,0,-1
1528881936178228,-2,-1,1,-2,1,1,-1,0
1528881936178228,0,0,1,-2,0,0,-1,-1
1528881936186209,0,-1,-1,0,0,-1,-1,0
1528881936186209,1,0,-1,0,1,0,0,-1
1528881936201170,1,-1,0,-1,-1,0,1,-1
1528881936201170,0,0,-1,-1,0,-1,-2,0
1528881936216128,-1,-1,0,0,-1,-1,0,-2
1528881936216128,-1,-2,-1,-2,-1,-1,1,0
1528881936224158,1,1,0,-2,1,0,0,0
1528881936224158,0,0,-1,1,-1,-2,-2,-1
1528881936239324,-1,1,-2,-1,-1,-1,0,0
1528881936239324,-2,0,0,-1,-1,1,-1,0
1528881936254028,-1,1,-1,-1,0,0,0,1
1528881936254028,-1,-1,0,-1,0,0,0,-2
1528881936262005,-1,0,-1,-2,-2,-1,1,-1
1528881936262005,-1,-2,0,1,1,0,-2,-1
1528881936275757,0,-1,-1,0,0,1,1,0
1528881936275757,-1,0,-1,-1,-1,-1,-1,-1
1528881936283735,-1,-1,0,0,-1,-2,0,-1
1528881936283735,-1,-2,-1,0,0,0,-1,1
1528881936298696,-3,-2,-1,1,0,0,-1,-2
1528881936298696,0,1,-2,-1,-3,0,0,-1
1528881936313917,-1,-1,-2,-1,0,0,-1,-1
1528881936313917,-1,-1,0,0,0,1,0,0
1528881936321890,0,0,0,1,0,-3,-1,-1
1528881936321890,-1,-2,0,-2,0,0,-1,0
1528881936336924,0,-1,-2,-1,-1,-1,-2,0
1528881936336924,-1,-1,0,0,2,-1,0,0
1528881936343919,1,-1,0,-1,1,0,-1,1
1528881936343919,0,0,-1,1,-1,0,-1,-1
1528881936359142,-1,0,-1,0,1,-1,0,-1
1528881936359142,-1,-2,-3,-2,-2,0,0,-1
1528881936374104,0,0,-1,0,0,-1,-1,0
1528881936374104,-1,0,-1,-1,0,-1,0,-1
1528881936381165,0,-1,-2,-1,-3,-1,-2,-1
1528881936381165,-1,-1,0,0,-1,-1,1,-1
1528881936396349,-1,-1,0,-1,0,-1,-1,0
1528881936396349,0,-2,0,0,0,-1,-2,1
1528881936404102,-1,2,-1,-2,-1,-1,-1,0
1528881936404102,-1,0,-1,-1,0,-1,-1,-2
1528881936419027,0,-2,-1,0,1,0,0,-1
1528881936419027,-1,1,0,-1,-1,-1,-1,0
1528881936434226,0,0,-1,1,0,0,0,0
1528881936434226,-1,-1,-2,-2,-2,0,-1,0
1528881936441851,-1,-2,3,-2,0,-1,0,0
1528881936441851,0,0,0,0,0,-1,0,0
1528881936456822,-1,-1,-1,0,0,1,-2,-3
1528881936456822,1,-1,-2,-1,-2,-1,0,0
1528881936463920,-1,-1,-1,0,-1,-1,-1,-2
1528881936463920,0,-1,-2,1,1,-3,1,-1
1528881936479540,0,0,-1,0,-1,-1,-1,0
1528881936479540,-1,-1,1,0,0,-1,0,-1
1528881936493331,0,0,-3,-1,0,0,1,-2
1528881936493331,-2,-2,-1,-2,0,-1,0,0
1528881936501311,-1,2,0,0,-2,1,-1,-1
1528881936501311,0,-2,-1,-1,-2,1,-1,0
1528881936516284,-1,0,0,0,-1,0,-1,1
1528881936516284,1,0,-1,-2,-1,-1,1,0
1528881936523282,0,-1,0,0,0,0,-2,-1
1528881936523282,0,-1,0,-1,-1,0,-1,-1
1528881936539287,0,-1,-1,-2,0,-1,1,0
1528881936539287,0,0,-1,-1,0,0,0,0
1528881936554188,-1,-2,-1,0,0,-2,0,-1
1528881936554188,-1,-2,0,1,0,1,-2,-1
1528881936561398,-1,-1,-1,0,0,-1,-1,-1
1528881936561398,-1,1,-2,0,-2,0,-2,-1
1528881936576350,0,-1,-1,-1,1,0,-1,-2
1528881936576350,0,0,0,-1,0,-1,1,0
1528881936584359,0,1,1,-1,-2,-3,0,0
1528881936584359,-1,-1,-2,-1,-1,0,-1,0
1528881936599304,1,-2,1,2,-1,0,0,0
1528881936599304,-2,1,1,2,0,0,1,1
1528881936614008,-2,-3,-3,0,-1,-2,-1,0
1528881936614008,-2,1,0,-2,-2,-2,-4,-3
1528881936620991,0,-1,-1,-2,1,0,0,0
1528881936620991,4,3,1,0,0,-1,-3,-2
1528881936636948,2,1,3,1,0,-2,0,1
1528881936636948,-4,-5,-3,-2,-2,1,0,0
1528881936644175,-6,-8,-5,-5,-3,-3,-5,-6
1528881936644175,0,5,3,1,0,-2,0,1
1528881936659135,-1,-1,-6,-1,-2,-2,-1,-2
1528881936659135,-1,2,15,0,-1,-1,-1,-1
1528881936665874,1,3,-3,4,-1,-2,0,1
1528881936665874,-3,-13,-4,-2,-2,1,1,-1
1528881936681142,3,11,1,1,0,0,-2,-2
1528881936681142,4,13,11,3,4,0,1,7
1528881936696373,-10,-10,10,-5,-4,-1,-11,-12
1528881936696373,3,1,-26,-5,1,4,-6,-5
1528881936704446,-1,-9,-14,-7,-1,-3,-2,-1
1528881936704446,-2,-10,-2,3,1,-2,-2,-2
1528881936719416,-2,31,29,4,-2,-1,-1,-2
1528881936719416,-4,-1,-6,1,-2,-2,1,-2
1528881936726146,1,-6,6,-3,1,6,2,4
1528881936726146,3,-11,-45,-7,3,3,9,4
1528881936741103,13,9,-17,-3,-5,-6,-2,11
1528881936741103,3,14,41,12,-1,-7,-5,4
1528881936756063,-7,-21,-50,-17,-5,5,15,1
1528881936756063,-4,5,16,3,-2,3,-19,-2
1528881936764096,1,15,-26,-4,-7,-8,2,1
1528881936764096,10,-5,15,1,2,-8,-20,-8
1528881936779243,39,2,0,11,9,-2,15,34
1528881936779243,66,-14,-15,-11,-13,-13,2,9
1528881936787044,-99,-16,-3,-17,4,9,-1,-36
1528881936787044,-9,-2,-7,-4,-19,-6,-4,-20
1528881936801967,-33,-17,-3,5,6,1,-7,-16
1528881936801967,7,2,-11,10,0,0,7,7
1528881936815793,33,8,11,-4,0,0,-3,13
1528881936815793,2,-5,1,2,4,4,0,4
1528881936823772,-44,-11,8,7,1,-1,-1,-2
1528881936823772,19,-8,-14,-11,-5,-5,-19,-37
1528881936838733,-99,-14,2,-3,1,-4,-2,-6
1528881936838733,-6,-1,-6,-3,6,8,6,-9
1528881936846786,42,6,-7,-8,-5,-14,1,12
1528881936846786,54,12,4,4,10,11,23,28
1528881936862004,19,-28,-17,-16,-24,-17,-20,-51
1528881936862004,-81,-13,-20,-20,5,2,-3,-14
1528881936876148,97,20,5,9,9,11,13,27
1528881936876148,-27,-4,-6,-15,2,6,15,28
1528881936884318,-21,-21,-15,-24,-11,-1,-23,-17
1528881936884318,-15,10,-1,9,7,-5,-5,-3
1528881936899485,8,19,18,6,3,-5,-6,-3
1528881936899485,17,-3,-6,-8,-10,-1,14,10
1528881936906631,22,1,-7,-5,3,1,-6,8
1528881936906631,-70,-39,-33,-10,-9,-2,-4,-2
1528881936921315,5,11,14,1,10,10,-5,-13
1528881936921315,26,7,28,27,23,15,14,-4
1528881936936727,-112,-31,-20,-8,-3,-1,-4,-24
1528881936936727,22,8,-2,0,-3,-19,-25,-27
1528881936944485,59,9,6,2,5,9,18,33
1528881936944485,34,9,8,4,4,3,-6,11
1528881936959437,-12,-2,2,1,0,2,3,4
1528881936959437,3,-20,-24,-14,-6,10,-6,-2
1528881936966624,-32,-4,-7,-11,-10,-20,-10,-17
1528881936966624,12,17,14,10,-1,-2,5,2
1528881936981685,10,2,2,7,3,5,-7,9
1528881936981685,-8,-14,-12,-5,-2,-9,-4,-18
1528881936996785,20,4,-2,3,7,-19,-13,-17
1528881936996785,-45,-13,-10,3,10,19,7,4
1528881937003626,33,0,-1,-12,-13,-1,-1,-1
1528881937003626,-34,-13,-9,-10,-7,-5,-4,-15
1528881937019154,-15,6,7,-2,-11,-10,2,-6
1528881937019154,10,4,-9,-28,-1,-9,-3,8
1528881937025874,-19,-7,1,55,19,14,-1,-2
1528881937025874,-1,-6,4,7,-12,-2,-2,-10
1528881937043051,24,-1,-3,-12,-6,-3,0,11
1528881937043051,4,6,0,-16,1,1,3,0
1528881937056805,-1,6,33,61,-13,-1,3,7
1528881937056805,8,4,-4,-21,-6,-9,-6,-1
1528881937063819,-14,-5,-2,-21,2,12,2,-2
1528881937063819,-1,0,-6,-9,6,-9,0,-1
1528881937079446,3,-4,-8,-8,10,11,3,5
1528881937079446,0,3,11,21,-3,0,-2,-6
1528881937086320,-5,-5,-14,-39,-17,-12,-8,-4
1528881937086320,-2,3,2,0,7,8,6,0
1528881937101981,12,-8,-10,0,-8,-6,1,5
1528881937101981,-8,0,2,-19,-5,-8,-6,-8
1528881937116174,3,4,1,-4,5,-3,1,12
1528881937116174,6,1,2,7,3,-1,2,1
1528881937124152,-33,-9,-9,-19,2,-6,-3,-14
1528881937124152,5,-6,-6,-7,-6,2,-3,-2
1528881937139115,-5,0,-1,-23,-18,-5,-2,-4
1528881937139115,18,8,10,40,2,0,0,8
1528881937146138,9,4,-3,-14,3,-3,-2,-1
1528881937146138,-5,1,3,1,4,-2,0,1
1528881937161440,1,-7,-12,-19,1,23,4,-1
1528881937161440,-6,-4,-4,-2,-16,-20,-7,-7
1528881937176416,12,-8,-1,0,8,5,-2,9
1528881937176416,1,18,5,6,-2,3,-4,-4
1528881937184380,18,-3,-8,-10,2,1,2,16
1528881937184380,-3,3,5,1,-2,-2,-17,-33
1528881937199252,-44,-21,-6,-2,-6,3,18,32
1528881937199252,1,1,-2,1,-6,-5,-8,-5
1528881937206241,40,1,-9,-12,4,8,7,7
1528881937206241,3,5,8,8,14,11,-10,-4
1528881937220957,-10,10,8,2,-15,-22,-14,-19
1528881937220957,20,-10,-1,6,5,0,-5,5
1528881937228919,-36,-5,-1,-4,-3,-1,1,-15
1528881937228919,38,-4,-3,-2,-7,-7,9,33
1528881937243880,13,0,-1,-3,-11,-13,-3,-2
1528881937243880,-2,1,2,0,-6,-4,1,-2
1528881937258840,-1,21,-1,-4,-1,-2,-4,-2
1528881937258840,4,-1,3,4,0,4,12,11
1528881937265822,-16,-12,-4,-2,4,4,-3,-4
1528881937265822,-14,10,2,-1,-2,-3,-16,-7
1528881937280780,13,0,2,4,4,4,1,-5
1528881937280780,-5,-10,-8,-4,-6,-6,6,10
1528881937288759,-11,4,6,2,2,-2,-10,-4
1528881937288759,2,-6,0,3,-6,-5,-1,3
1528881937303719,2,11,0,1,-7,-4,7,26
1528881937303719,-35,-5,-2,-1,2,8,15,-46
1528881937318679,61,14,-2,-1,2,-7,-3,21
1528881937318679,-50,-18,-3,-9,-6,1,-6,-6
1528881937325660,-11,-22,-7,-13,-5,-9,3,1
1528881937325660,-7,-8,-3,19,-1,1,-2,7
1528881937341617,20,24,8,2,3,8,12,5
1528881937341617,-15,6,-16,-41,11,5,7,-16
1528881937348602,14,11,14,39,-2,8,-5,-1
1528881937348602,-22,-17,-4,-17,-11,-11,-7,2
1528881937363589,-5,3,-6,-23,12,8,-17,-16
1528881937363589,-2,-4,-4,-10,1,-7,-8,3
1528881937378566,6,0,3,-1,-1,-1,1,-3
1528881937378566,10,5,-3,1,-3,-4,3,-2
1528881937386498,-32,-20,-11,-1,-3,-1,5,-2
1528881937386498,22,19,13,16,-3,-1,6,23
1528881937401516,-4,-4,-8,-13,3,0,6,-19
1528881937401516,-13,-5,8,6,9,5,-11,-11
1528881937408485,19,1,-9,-36,1,1,1,0
1528881937408485,4,2,4,28,-13,-4,-2,3
1528881937423447,-12,-9,-11,-41,-5,-2,3,-1
1528881937423447,-8,-2,5,23,-6,-9,-6,-4
1528881937446339,1,5,26,44,-13,-4,-5,2
1528881937446339,6,-1,-14,-22,-7,0,1,-1
1528881937453320,13,9,9,2,10,-6,-5,9
1528881937453320,-28,-16,-43,-127,0,4,2,-13
1528881937468331,0,-2,23,93,7,3,-4,-1
1528881937468331,2,3,2,-3,-17,-11,-5,-2
1528881937476312,-2,3,0,3,-5,-3,2,-2
1528881937476312,16,3,1,-5,9,13,4,6
1528881937498200,-2,5,-12,-23,-3,-1,-3,2
1528881937498200,14,-8,6,14,2,1,7,8
1528881937506226,-20,15,1,7,-3,-3,-4,-7
1528881937506226,-3,-3,-3,5,-2,3,1,-2
1528881937521187,-3,-7,-6,-12,5,0,1,5
1528881937521187,-3,9,4,6,7,3,-1,-11
1528881937529116,10,4,3,13,-7,-1,-9,7
1528881937529116,-7,6,11,7,11,6,12,13
1528881937544109,-1,-5,-7,-9,-18,-7,16,8
1528881937544109,-1,-2,-1,-12,4,12,-33,-34
1528881937559073,-7,-7,1,-4,-3,-3,3,3
1528881937559073,2,1,-1,0,-1,-1,8,7
1528881937566052,-1,-6,-6,-8,-2,-2,-1,-1
1528881937566052,8,-3,-5,-6,-1,-12,1,1
1528881937581018,0,1,-3,6,10,7,-6,-6
1528881937581018,-18,-10,5,1,-5,-4,3,2
1528881937588995,-4,-5,-4,-1,-2,-2,-5,-2
1528881937588995,4,-4,7,4,-3,-1,10,9
1528881937603955,2,28,-3,-19,-1,-1,-12,-19
1528881937603955,-10,4,3,7,3,1,0,5
1528881937619119,5,-3,-2,-7,-3,-5,-4,5
1528881937619119,3,-4,-7,-1,4,8,7,1
1528881937626402,0,3,-2,-14,-2,-10,-1,1
1528881937626402,12,-3,-3,-2,-6,-3,-7,-17
1528881937641106,-58,-35,-9,-2,4,6,8,23
1528881937641106,23,43,5,-1,-3,-14,-6,-19
1528881937649333,-8,-19,2,6,5,10,-6,-15
1528881937649333,21,30,4,-1,-1,3,-1,2
1528881937664051,20,0,-1,-3,-2,-7,-8,2
1528881937664051,-12,-16,-7,-3,-1,-1,9,6
1528881937679269,0,-8,-7,-17,-2,6,0,-7
1528881937679269,3,-3,0,-7,-9,1,2,12
1528881937686244,19,9,7,26,5,-5,1,9
1528881937686244,-17,-8,-10,-13,0,-2,2,1
1528881937701966,-1,-3,-4,-3,-1,-1,-5,-13
1528881937701966,6,2,4,1,8,-3,3,9
1528881937708234,-9,-4,-3,-4,-10,-1,0,-2
1528881937708234,10,-2,-6,-20,-6,2,-1,8
1528881937724333,7,10,9,19,-3,-3,-2,0
1528881937724333,-5,-7,-9,-12,-5,-3,-1,-4
1528881937739410,15,-8,-9,-16,-3,-3,0,-9
1528881937739410,9,3,4,10,3,1,6,9
1528881937746374,-25,5,0,-5,-6,-10,-21,-3
1528881937746374,20,18,0,-4,3,2,1,-1
1528881937761137,-8,-4,1,0,4,6,2,-1
1528881937761137,-8,-9,-6,1,-1,-4,1,0
1528881937769336,-4,-7,-4,-5,-1,1,2,-1
1528881937769336,3,-1,-1,-12,-4,-2,0,1
1528881937784282,14,10,4,13,3,-2,-6,0
1528881937784282,-13,-2,2,0,-7,2,-1,-1
1528881937798296,8,-29,-11,-10,-9,-7,1,-3
1528881937798296,30,40,18,10,0,0,21,33
1528881937806692,-17,6,4,0,-4,-5,-43,-49
1528881937806692,-3,-2,2,3,-2,0,2,2
1528881937822106,-8,-5,-6,-4,4,0,-3,-3
1528881937822106,-7,-16,-4,0,1,-3,-3,-10
1528881937829366,11,-4,-5,-2,-1,1,15,17
1528881937829366,0,-4,-4,-5,-4,-5,1,-4
1528881937844322,-11,3,2,1,-4,-1,-7,-6
1528881937844322,7,-1,-2,5,-1,-4,1,4
1528881937859017,6,1,-3,4,3,4,12,5
1528881937859017,14,11,14,14,8,1,-18,-1
1528881937866245,-17,-15,-8,-4,-6,-5,9,-5
1528881937866245,-5,7,-1,-8,-3,-2,3,3
1528881937880960,-5,8,1,-12,-12,-12,-16,5
1528881937880960,-2,-5,-3,5,2,6,-1,-5
1528881937888938,12,-1,2,8,5,-1,2,9
1528881937888938,-1,-11,-7,-11,-4,-3,-1,0
1528881937904209,-4,2,2,6,3,9,7,-11
1528881937904209,4,0,-4,-7,-2,-1,-6,12
1528881937919125,7,8,6,7,11,6,1,-4
1528881937919125,-10,-11,-1,1,-4,-5,-3,-12
1528881937927005,-5,-9,-3,-3,-1,2,7,2
1528881937927005,7,9,-4,-1,-2,-5,-7,10
1528881937941869,12,15,11,4,4,4,-12,-25
1528881937941869,-23,-15,-2,0,2,1,-3,4
1528881937949140,11,8,-1,-2,1,-1,5,0
1528881937949140,-1,-13,-6,-3,-7,-5,-6,-3
1528881937964097,-2,1,2,-1,-1,-3,8,13
1528881937964097,0,-12,-2,7,-3,-1,-1,-8
1528881937978873,-4,-6,-2,-8,0,2,7,11
1528881937978873,-3,-1,-3,2,2,0,-1,-5
1528881937986857,7,-7,-1,-2,2,1,-1,0
1528881937986857,0,-7,0,1,1,-1,4,7
1528881938001350,-1,6,-3,-2,-3,-4,-4,5
1528881938001350,-3,-7,-6,-11,-4,-8,-3,-10
1528881938009115,-1,3,4,-3,-3,-3,5,3
1528881938009115,3,2,-1,-4,1,1,0,-5
1528881938025025,-2,-7,3,19,7,0,-2,2
1528881938025025,-2,0,-3,-10,-2,1,-1,2
1528881938038988,-3,-5,-8,-8,-1,-1,-2,-1
1528881938038988,1,6,1,0,-2,-2,1,-3
1528881938046218,0,2,0,5,-3,-2,-2,-1
1528881938046218,2,-4,1,1,-1,-2,-3,-1
1528881938060966,-1,-2,-1,-4,-3,0,-1,0
1528881938060966,-3,-3,-2,-1,0,-1,0,-2
1528881938069153,0,-1,2,-5,0,0,0,3
1528881938069153,1,-4,-1,6,1,-2,1,0
1528881938084377,-2,3,-1,0,-1,-5,1,-1
1528881938084377,1,1,-2,-5,-1,-4,0,-3
1528881938099324,5,0,-2,-6,-1,-4,1,0
1528881938099324,3,2,-1,-1,1,-8,0,-1
1528881938106564,0,0,3,4,1,-7,1,4
1528881938106564,1,2,-2,-1,0,-5,-1,-1
1528881938121615,-2,-4,-1,-2,-1,-2,1,0
1528881938121615,0,0,-1,0,-1,1,-2,-1
1528881938128807,0,-3,-4,-3,-2,-3,-1,-1
1528881938128807,3,3,2,-2,-1,-7,-1,-2
1528881938143764,1,0,-1,0,-1,-7,-1,-1
1528881938143764,1,0,3,2,0,-3,1,0
1528881938167519,-1,1,-8,0,-2,3,-1,-1
1528881938167519,4,5,8,6,3,7,-1,2
1528881938173426,-1,-1,2,1,-2,7,-1,0
1528881938173426,4,1,2,1,0,5,-1,-1
1528881938189384,5,-13,-5,-4,-1,5,-1,0
1528881938189384,-7,14,-4,-5,-4,2,4,-2
1528881938196772,-2,-6,-2,-2,-1,2,-3,0
1528881938196772,0,-2,-4,0,-1,4,0,-2
1528881938211568,-1,1,3,1,3,0,0,0
1528881938211568,2,0,0,1,1,-1,-1,-1
1528881938219387,-5,-1,8,-3,0,2,1,0
1528881938219387,-5,-16,-19,-3,-2,-2,-2,-2
1528881938226527,1,4,1,-1,1,2,0,0
1528881938226527,0,2,6,2,2,-1,-1,0
1528881938241491,0,0,0,-4,0,-1,-1,-1
1528881938241491,-12,-20,31,-7,-3,-4,-5,-4
1528881938249240,1,11,-60,3,-2,-1,-4,-4
1528881938249240,8,7,14,12,15,4,2,3
1528881938263188,6,2,16,7,-17,3,3,5
1528881938263188,1,9,8,0,3,-1,0,1
1528881938271170,-9,-29,-5,-10,-7,-3,-2,-3
1528881938271170,-6,9,-10,-5,-5,-1,-3,-3
1528881938279145,0,3,-8,-1,4,-2,2,1
1528881938279145,7,8,7,3,0,3,-4,-1
1528881938286126,-2,2,14,1,1,0,0,-1
1528881938286126,-2,-8,-15,-3,-3,-1,-2,-1
1528881938301985,-2,-2,-2,-4,2,1,0,-3
1528881938301985,-2,-4,-13,-1,-4,0,0,-2
1528881938309233,1,3,7,-3,2,0,1,1
1528881938309233,-1,-5,-5,3,-6,0,0,-2
1528881938323858,-1,2,1,-1,3,0,0,0
1528881938323858,-2,2,17,-8,1,-1,0,-1
1528881938331111,5,17,26,36,1,-3,1,0
1528881938331111,-11,-71,-88,-24,-8,-2,0,0
1528881938339340,-7,12,-35,-7,-3,-3,-5,-4
1528881938339340,12,86,53,9,4,2,0,0
1528881938346330,15,-8,30,1,16,9,9,11
1528881938346330,7,28,44,29,3,3,2,5
1528881938361291,-7,-40,-10,-8,2,-1,-5,-2
1528881938361291,-11,-34,-35,-7,-6,-3,-2,-3
1528881938369311,-1,12,-12,-5,25,10,-1,-3
1528881938369311,-6,-9,9,-3,16,-13,-3,-4
1528881938383855,-3,-2,-17,-25,-64,-19,-9,-4
1528881938383855,-1,-10,-4,2,14,-2,0,0
1528881938391567,-3,-3,-5,-4,-13,-4,-2,0
1528881938391567,1,2,5,1,36,13,2,1
1528881938399320,0,5,17,11,12,4,2,-1
1528881938399320,-5,-20,14,-5,-22,-6,-2,2
1528881938406178,-2,5,-31,5,31,-4,-4,-4
1528881938406178,4,18,22,-7,-34,-1,2,0
1528881938421029,6,18,17,14,-4,3,2,4
1528881938421029,1,-24,-4,-6,2,-7,-3,-1
1528881938429058,-8,-19,-9,-12,-13,0,-1,-2
1528881938429058,1,33,1,0,-19,-1,-2,-2
1528881938444242,5,-7,-10,-1,37,4,2,2
1528881938444242,-1,-10,-11,7,24,5,1,1
1528881938450992,-5,-10,15,-5,0,-7,-4,-2
1528881938450992,-1,0,-15,-2,2,-2,-3,-1
1528881938459174,1,6,3,2,-12,5,1,1
1528881938459174,1,-6,-19,-8,7,0,2,-1
1528881938465946,-2,5,7,-4,-44,-10,-2,-1
1528881938465946,-2,-9,12,-5,-25,-9,-4,-2
1528881938481423,-2,0,4,8,23,4,2,-1
1528881938481423,0,2,-13,4,75,-2,-2,0
1528881938489428,0,0,0,-7,-26,1,-1,-2
1528881938489428,0,-2,5,3,14,3,3,1
1528881938503700,-1,1,4,0,-16,-5,-3,-1
1528881938503700,1,6,-12,0,4,2,0,0
1528881938511942,1,-3,9,-2,-20,-2,-1,0
1528881938511942,0,-5,0,1,2,0,0,-3
1528881938519072,0,6,1,-3,17,-7,-3,-2
1528881938519072,-1,-5,-3,0,-26,-2,1,-1
1528881938526866,0,0,-2,-2,17,0,0,0
1528881938526866,-2,-2,-2,0,-10,-3,-3,-1
1528881938540810,-1,1,0,-1,0,1,-1,-1
1528881938540810,1,-2,-2,1,-17,3,1,1
1528881938548793,-1,-1,1,-1,-5,-2,0,0
1528881938548793,1,1,-2,-2,11,-1,1,0
1528881938563748,0,-2,7,-1,5,0,0,-2
1528881938563748,-1,-1,-6,-1,-21,1,-2,-3
1528881938571803,1,2,-2,-2,10,-1,1,2
1528881938571803,-2,-3,2,0,2,1,7,-1
1528881938586804,-3,-1,-1,0,5,-1,1,-3
1528881938586804,-1,0,-4,-1,-14,1,8,-5
1528881938593725,2,1,-2,-2,0,-3,-30,5
1528881938593725,-7,1,-1,-3,1,-3,-15,-30
1528881938609250,2,1,0,0,-5,-1,-1,-4
1528881938609250,-2,2,-4,0,-3,-1,-2,-5
1528881938616523,1,-1,3,1,5,3,13,10
1528881938616523,0,-1,0,0,-5,-1,1,10
1528881938631557,-1,0,0,-2,1,1,-5,-5
1528881938631557,1,1,0,0,-6,0,2,4
1528881938638799,-1,-2,0,0,-2,-1,5,0
1528881938638799,1,-4,-1,0,-4,1,-1,4
1528881938646785,-2,-4,0,0,0,-1,1,-6
1528881938646785,1,-1,-2,-1,2,0,-1,-1
1528881938661477,0,-2,-1,1,1,-1,1,7
1528881938661477,-2,-2,-3,-1,-7,0,-4,1
1528881938668458,-2,0,0,-1,3,-1,-1,-7
1528881938668458,2,0,0,1,1,2,4,4
1528881938683470,-1,1,1,0,-2,1,-1,0
1528881938683470,0,-3,-2,0,-4,-1,-2,0
1528881938691397,-1,-1,-1,1,2,-1,1,-3
1528881938691397,0,1,0,-2,1,-1,-1,4
1528881938698379,1,0,0,-2,0,-2,-2,-2
1528881938698379,1,0,0,0,0,0,-2,-1
1528881938706357,-1,-1,-1,0,0,1,3,1
1528881938706357,0,0,-1,0,-2,-1,-1,2
1528881938721317,-2,0,-2,0,0,-1,-1,-2
1528881938721317,-1,1,0,1,-1,0,-2,-1
1528881938728299,-1,-2,-1,-1,0,-2,1,-2
1528881938728299,1,0,-1,-2,0,1,0,-1
1528881938744399,0,0,0,0,0,0,-1,-1
1528881938744399,-1,-2,0,-1,-2,-1,0,-1
1528881938751484,-1,-1,0,-2,-1,-2,0,0
1528881938751484,-1,-2,0,-1,0,-1,0,-1
1528881938758247,1,0,-2,-1,-1,1,2,0
1528881938758247,-1,0,-1,-1,-2,-2,-1,-1
1528881938766444,0,1,-1,-1,0,-1,0,-2
1528881938766444,-2,-1,-1,-1,0,0,2,1
1528881938781157,0,-1,-1,-1,-1,-2,0,0
1528881938781157,0,1,-3,-1,-2,0,-1,-1
1528881938789392,-1,-1,-1,1,-1,0,0,-2
1528881938789392,-1,0,1,-1,-1,0,0,0
1528881938811396,-1,0,-1,-2,-2,1,-1,0
1528881938811396,-1,0,-1,-2,0,0,0,-3
1528881938819353,-1,-1,-2,-1,1,0,1,-1
1528881938819353,-1,0,-2,-1,-1,0,-1,0
1528881938826443,0,-3,-1,-1,-1,-2,-2,-1
1528881938826443,1,0,-1,-2,-1,0,-2,0
1528881938834409,-1,-1,-1,-1,1,-1,0,-1
1528881938834409,-1,-1,-2,0,-1,-2,-1,1
1528881938849286,-1,-1,-1,-1,-1,1,0,0
1528881938849286,-1,0,-1,-1,-1,-1,-1,0
1528881938863986,0,-1,0,-1,0,0,-1,1
1528881938863986,-1,-2,0,-1,-1,-1,-1,0
1528881938870966,-1,-1,0,-2,0,1,-1,-2
1528881938870966,-2,-1,1,0,0,-1,0,-1
1528881938878980,0,-1,-1,-1,1,1,-2,0
1528881938878980,-1,0,1,0,-1,-2,0,-1
1528881938885955,0,-1,0,-1,1,0,0,0
1528881938885955,1,1,-1,-1,-1,0,-1,-2
1528881938901915,-2,-2,0,-1,1,0,-1,-1
1528881938901915,0,-1,0,-1,0,0,-1,-2
1528881938909126,0,1,-2,-2,0,-2,0,-2
1528881938909126,0,-1,0,0,-1,0,-2,-1
1528881938924066,0,-1,-2,0,-1,1,0,-1
1528881938924066,0,-2,0,-1,-2,-2,0,0
1528881938931095,-1,-2,0,1,-2,0,-2,2
1528881938931095,-1,0,0,-2,0,-2,0,0
1528881938938557,-1,1,-2,0,-3,-2,-2,1
1528881938938557,-1,-2,-2,-1,-1,1,-1,0
1528881938946306,0,-2,-1,0,0,0,-1,-1
1528881938946306,-2,-1,-1,-1,-1,1,0,0
1528881938961314,1,-2,1,-1,-1,0,-1,0
1528881938961314,0,-1,0,0,0,-2,0,-1
1528881938969387,-1,-1,-1,-1,0,-1,-1,-1
1528881938969387,-1,-1,-1,1,-1,-1,-1,-2
1528881938983497,-1,0,0,0,-2,-1,0,-1
1528881938983497,-1,-1,-1,-1,-1,-1,-1,0
1528881938991187,1,-1,-1,0,-2,-2,1,-2
1528881938991187,0,-1,-1,0,-1,0,0,-1
1528881938998942,-1,0,-1,1,1,-1,1,1
