timestamp,emg1,emg2,emg3,emg4,emg5,emg6,emg7,emg8
1528282069978874,0,-1,-1,-2,-2,0,1,-2
1528282069978874,-2,-1,-1,-1,-1,0,-1,0
1528282069986852,-1,-3,-1,-1,0,0,0,-2
1528282069986852,-1,-2,-2,-1,-1,-2,-1,-3
1528282069994830,-1,-2,-1,0,0,-2,-1,-1
1528282069994830,1,0,-1,-1,0,-1,-2,-2
1528282070001827,-2,1,-1,-1,-2,-1,-2,-1
1528282070001827,-2,0,0,0,-1,1,0,0
1528282070012781,-1,0,0,-2,-2,-1,0,0
1528282070012781,-1,-4,-1,0,0,0,0,-1
1528282070023753,-1,-2,-2,-2,0,-3,0,0
1528282070023753,0,-1,-1,-2,-1,-1,-1,0
1528282070031732,-3,0,0,-1,-1,-1,-1,0
1528282070031732,-1,-1,0,-2,-2,-1,0,-1
1528282070046691,1,-1,-1,-1,-1,0,-3,-1
1528282070046691,-1,-1,-2,0,-1,-2,-2,-1
1528282070057662,-1,-1,-2,0,-1,-1,-2,-1
1528282070057662,-2,1,1,-1,-1,-4,-1,1
1528282070069630,-1,-1,1,0,-1,1,-2,-2
1528282070069630,-2,-1,-1,-1,-1,0,-1,-2
1528282070076612,-1,-3,-1,1,1,1,-1,-2
1528282070076612,-2,-2,-4,-1,-2,-2,-1,-2
1528282070099552,-2,-1,-2,0,-2,0,0,0
1528282070099552,0,-2,-1,-2,-1,-2,-1,-1
1528282070106571,-1,-1,0,-2,-2,0,-2,-1
1528282070106571,0,-1,1,-1,-1,0,-1,-1
1528282070115563,0,-1,0,-1,-1,0,-2,-1
1528282070115563,0,0,0,0,-1,-2,-1,0
1528282070121547,-1,2,-3,-2,0,-3,0,-1
1528282070121547,-1,-2,-3,-2,-1,-1,-3,-1
1528282070136478,-1,1,-1,-2,-4,-4,-1,-1
1528282070136478,-2,-2,0,-1,0,-2,-1,-2
1528282070144430,2,-1,2,0,5,5,1,0
1528282070144430,0,1,-1,1,2,-1,1,1
1528282070151450,-2,-3,-3,-2,0,-1,-2,-3
1528282070151450,-1,-2,-2,-1,-5,-5,-3,-1
1528282070159410,-3,-2,-1,0,-1,-4,-3,-4
1528282070159410,0,1,0,1,2,5,1,0
1528282070175348,1,0,0,-1,-4,-11,-1,-1
1528282070175348,-3,-2,-2,-5,-5,-2,-4,-2
1528282070181361,2,5,-4,-9,-23,-10,-4,-2
1528282070181361,-1,-7,5,11,32,16,4,1
1528282070196292,-1,-1,-2,3,5,6,3,2
1528282070196292,-1,-2,-2,1,4,0,1,-1
1528282070204271,-3,-4,-1,-1,-2,-2,-1,-1
1528282070204271,-6,-4,-2,-8,-16,-6,-3,-2
1528282070219231,-2,-1,-3,-4,-4,-5,-3,-1
1528282070219231,2,1,0,-1,-4,-3,-2,0
1528282070234190,-1,-8,2,2,2,-2,1,-1
1528282070234190,-2,2,-2,-2,-3,0,-3,-4
1528282070249202,6,-4,2,7,3,6,1,2
1528282070249202,2,7,-1,-6,0,7,4,1
1528282070264110,5,-4,0,1,-1,-1,-6,2
1528282070264110,-5,-1,-2,0,-5,-7,6,-2
1528282070273087,1,3,1,-9,-12,-13,-9,0
1528282070273087,0,-4,1,22,36,11,4,0
1528282070294032,4,4,-4,-1,-14,-13,-1,0
1528282070294032,7,4,1,-7,-18,-18,-9,7
1528282070302010,-2,3,-1,-4,-10,-14,-4,-4
1528282070302010,-11,-17,-5,-5,4,1,-8,-6
1528282070308990,-9,-5,14,0,13,28,8,-9
1528282070308990,9,3,10,0,-1,-9,2,-1
1528282070316969,2,3,4,-6,-30,-20,-8,7
1528282070316969,0,2,0,2,5,8,9,0
1528282070338947,0,-2,-6,3,11,8,1,3
1528282070338947,-8,-1,-5,6,20,29,12,-3
1528282070346890,1,-2,-11,3,2,-16,-20,0
1528282070346890,-3,-1,-10,-11,-21,-31,-12,-10
1528282070353870,-3,-6,-13,-17,-43,-40,-6,2
1528282070353870,5,3,-6,3,24,60,18,7
1528282070361894,-4,4,-7,4,11,26,13,-8
1528282070361894,12,-3,4,6,0,-8,-14,-1
1528282070383790,-2,-4,-3,1,1,11,8,4
1528282070383790,1,6,3,0,-4,8,4,-1
1528282070398789,-2,-2,-1,-2,6,1,-11,-1
1528282070398789,-6,-5,-1,1,-23,-48,-18,-9
1528282070406767,-6,-9,-1,-10,21,23,-3,-8
1528282070406767,-4,7,4,1,-3,-6,-17,-11
1528282070421725,11,1,2,6,2,7,21,16
1528282070421725,-1,-2,0,6,15,4,23,7
1528282070428670,12,9,10,0,-4,9,12,8
1528282070428670,0,0,-1,0,9,21,37,21
1528282070436651,0,0,-4,-3,-25,-49,10,11
1528282070436651,-1,-1,0,2,18,22,15,2
1528282070451660,-2,1,-3,16,17,39,13,-2
1528282070451660,-2,-4,2,12,12,-5,-1,3
1528282070459589,3,6,5,-13,-27,-19,-15,-5
1528282070459589,-8,-6,-5,7,15,-10,-22,-9
1528282070481531,-1,1,5,-10,-15,-14,7,4
1528282070481531,2,4,-2,-8,6,18,-8,-4
1528282070489534,-4,-7,-4,3,1,-6,-23,-22
1528282070489534,-1,-4,-6,2,-9,15,20,14
1528282070504469,-5,-5,4,2,11,1,-14,3
1528282070504469,3,2,0,-18,-18,-28,-13,-2
1528282070526419,-4,-2,-2,11,-5,-19,-14,-5
1528282070526419,-1,0,-1,-2,-5,6,-18,-13
1528282070534417,1,1,7,4,9,26,17,4
1528282070534417,0,8,4,1,0,-6,-6,-4
1528282070549380,0,-1,-3,-10,2,4,19,6
1528282070549380,-6,-5,-9,-19,-14,-1,-33,-13
1528282070564352,-3,-5,-6,4,8,9,19,3
1528282070564352,-1,0,6,32,11,9,-5,-6
1528282070579318,1,-3,-4,1,5,-5,-8,-5
1528282070579318,-3,0,-4,-1,-9,-5,-7,-6
1528282070594228,-3,-1,-1,17,13,8,-8,-3
1528282070594228,4,7,4,-2,0,-1,6,5
1528282070601209,-6,-6,-2,2,-13,-5,-43,-20
1528282070601209,2,1,2,-1,-2,-2,3,5
1528282070624187,-1,-2,-4,-10,0,2,-31,-2
1528282070624187,12,5,3,7,-2,2,78,44
1528282070632177,-4,0,1,-4,-2,1,-30,-8
1528282070632177,-4,-7,-5,2,0,1,17,4
1528282070647089,-5,-3,1,4,-4,-3,-25,-18
1528282070647089,-6,-4,1,-5,-2,-4,4,-4
1528282070654104,2,2,1,-4,0,-3,-26,-13
1528282070654104,1,8,5,3,4,-3,15,4
1528282070669028,1,-5,-3,1,1,3,15,5
1528282070669028,-5,-7,-4,1,2,1,-25,-12
1528282070684015,0,5,4,-4,-8,1,17,7
1528282070684015,1,-1,-3,-8,-2,1,-12,-8
1528282070691968,-1,3,4,16,10,1,-23,-16
1528282070691968,0,-9,-8,-7,6,12,13,16
1528282070713962,0,0,-3,0,3,-7,6,1
1528282070713962,-4,-2,-4,0,6,-10,-33,-13
1528282070721887,1,1,-1,-7,-5,8,3,1
1528282070721887,-1,-1,-2,-5,-2,-9,-14,-11
1528282070736846,-3,-3,-5,5,-1,-11,9,0
1528282070736846,1,1,-1,-4,-2,7,-4,-2
1528282070751859,2,2,1,6,7,4,22,12
1528282070751859,-3,-4,-6,-10,-14,-21,0,-4
1528282070766777,-2,-1,-6,-4,-2,-4,-2,-3
1528282070766777,-1,1,-1,-6,0,0,-9,-4
1528282070773748,-4,-2,-1,5,-10,-16,16,-2
1528282070773748,0,-1,-2,-4,3,4,9,9
1528282070788735,-1,-1,-2,-4,2,14,7,-1
1528282070788735,-5,-2,-2,-2,-5,-7,-1,-2
1528282070803670,1,0,-4,-4,-5,0,-6,-5
1528282070803670,2,-3,1,7,14,17,15,4
1528282070811647,4,2,0,-10,-4,2,2,4
1528282070811647,0,0,-1,-1,-11,-14,-8,-5
1528282070826607,1,1,-1,-5,2,-13,-5,0
1528282070826607,-4,-6,-5,-7,-11,-8,-9,-9
1528282070834625,1,0,2,22,21,13,3,1
1528282070834625,1,2,4,-2,4,-1,3,2
1528282070849548,-2,-4,0,0,-2,6,-4,-4
1528282070849548,-2,2,6,-10,-5,-14,-3,0
1528282070871487,-1,1,4,3,11,-9,3,-1
1528282070871487,-1,0,-5,5,-5,1,6,2
1528282070879465,-2,3,3,-1,6,0,-1,-1
1528282070879465,-4,-2,-3,-4,-2,-6,-4,-5
1528282070894466,-1,-2,-5,-4,-8,-8,0,1
1528282070894466,-1,0,-4,-3,0,1,7,-1
1528282070901459,-3,-4,-7,0,-6,-10,-3,-3
1528282070901459,-4,-1,-3,-4,-3,0,1,-3
1528282070909420,-3,-3,-3,-1,-4,0,-2,-3
1528282070909420,2,-3,0,2,2,-4,3,2
1528282070931331,-3,-3,-2,-4,-11,-4,3,1
1528282070931331,0,0,0,1,2,-4,-4,-1
1528282070939307,0,0,0,-3,-3,7,3,-2
1528282070939307,-1,0,-5,-8,-7,-12,-1,0
1528282070954267,-2,0,-4,-4,-3,4,-4,-4
1528282070954267,-2,-2,-3,21,11,-7,0,0
1528282070961247,0,2,0,-19,3,18,1,1
1528282070961247,-2,-3,2,10,-6,-10,-5,-5
1528282070977216,-3,2,7,6,4,-6,-21,-13
1528282070977216,-2,-7,-9,12,-3,3,17,8
1528282070992183,2,-2,-3,-11,-3,2,17,5
1528282070992183,-3,1,4,17,7,1,-15,-7
1528282071007195,0,-1,2,7,6,6,8,7
1528282071007195,3,1,2,-5,-1,9,6,3
1528282071014364,-2,2,1,9,0,-4,-3,-1
1528282071014364,-3,-5,-1,-28,-12,-11,-25,-13
1528282071029076,0,2,6,18,10,8,-3,2
1528282071029076,-1,-4,1,-16,-4,4,7,3
1528282071044349,-1,-2,-1,-6,-2,-7,-23,-4
1528282071044349,-1,-1,-5,-15,-10,0,13,-4
1528282071051549,8,3,4,28,17,9,44,26
1528282071051549,2,1,-2,-3,-15,-11,-14,-2
1528282071067061,0,-1,-6,-28,-7,3,4,2
1528282071067061,-4,-3,-3,2,-2,-2,-27,-13
1528282071075035,-4,-1,-3,1,-1,-3,-7,-4
1528282071075035,1,-2,-1,9,3,1,5,3
1528282071089742,-6,-3,-2,5,0,-2,-7,-6
1528282071089742,3,4,6,21,6,3,-4,5
1528282071104784,-3,-2,-4,1,-6,-8,-2,-3
1528282071104784,0,-1,1,-6,6,4,-7,-5
1528282071112535,0,1,0,13,5,5,20,7
1528282071112535,3,1,-4,-6,-2,0,4,4
1528282071126325,1,0,-1,4,-3,1,15,8
1528282071126325,-3,-3,-4,-7,-13,-25,-16,-5
1528282071134552,3,2,4,0,7,24,7,-3
1528282071134552,-5,-5,-2,-1,-4,-7,-29,-12
1528282071149263,5,0,3,5,9,15,47,15
1528282071149263,-1,2,0,-5,-5,-5,-13,-1
1528282071171775,-2,0,0,6,7,7,-9,-4
1528282071171775,0,2,-4,-9,-1,1,0,-4
1528282071179083,-2,-3,-3,-4,-7,-5,-3,0
1528282071179083,1,-1,-3,0,2,4,9,0
1528282071194908,-3,-3,2,2,-15,-15,-24,-9
1528282071194908,1,0,0,-13,3,12,13,5
1528282071208781,-4,-3,1,13,19,-1,-7,-2
1528282071208781,-3,0,-4,-5,-13,-17,-18,-9
1528282071216822,-3,-5,-8,-5,4,10,-13,-4
1528282071216822,2,0,1,5,1,2,17,5
1528282071231959,2,1,-4,-3,-2,-6,5,-2
1528282071231959,-1,0,0,-5,-9,-1,1,1
1528282071239924,-4,-4,-3,-1,2,2,-10,-3
1528282071239924,-2,-3,0,-7,-10,-13,-3,-4
1528282071261643,2,2,-4,-4,-1,-5,-6,-2
1528282071261643,-2,-1,0,6,13,2,-7,-2
1528282071276950,-2,-5,-3,-1,0,-8,-8,-3
1528282071276950,-2,0,-1,-4,-6,2,-4,-3
1528282071291560,1,-1,-1,2,2,3,4,3
1528282071291560,-4,-1,1,1,4,-2,-3,1
1528282071299781,-3,-3,0,-2,-9,-1,-9,-7
1528282071299781,-3,-2,-4,1,5,15,19,5
1528282071314743,1,3,3,1,-3,-10,3,-2
1528282071314743,-3,-9,-10,-12,-10,-12,-9,-5
1528282071321719,-3,-4,-1,2,8,9,-26,-8
1528282071321719,4,3,3,5,-8,-13,21,8
1528282071336441,-4,-2,-3,-3,-3,-23,-21,-9
1528282071336441,-2,0,-1,-3,-1,31,11,2
1528282071344476,1,2,0,7,17,8,1,1
1528282071344476,-1,-2,-3,-1,2,-9,-6,-1
1528282071359379,-1,1,-4,-14,-13,-10,7,2
1528282071359379,-1,-1,2,21,7,11,-1,-2
1528282071366360,-3,-1,-2,-3,0,-5,-6,-4
1528282071366360,-4,-4,-2,1,1,-18,-17,-6
1528282071374341,6,1,2,-2,6,44,31,5
1528282071374341,0,0,-2,-8,-9,-14,-3,1
1528282071389688,-4,-5,-6,-5,-8,-15,-2,-2
1528282071389688,0,0,0,2,4,12,5,1
1528282071396738,-4,-1,0,0,-10,-30,-17,-8
1528282071396738,-5,3,-2,-15,0,-2,-3,0
1528282071419066,2,2,2,7,3,3,-1,-1
1528282071419066,0,3,-1,-3,-7,-22,-5,-2
1528282071427045,-1,-1,-3,0,-3,9,6,1
1528282071427045,2,0,3,6,5,4,-7,-5
1528282071434070,-2,-1,0,-1,3,10,2,-1
1528282071434070,0,0,1,-2,7,0,7,3
1528282071442309,-3,-4,-2,1,-3,-4,2,-1
1528282071442309,-2,-4,-1,-1,2,-14,-7,-4
1528282071457223,0,1,-2,-5,-7,2,5,-1
1528282071457223,1,0,-1,-3,-7,-4,2,-1
1528282071471925,0,-2,-1,2,4,6,9,5
1528282071471925,0,2,0,0,3,18,7,-1
1528282071478906,-3,-1,-2,-13,-12,-26,-18,-7
1528282071478906,-4,-9,-5,0,-4,-8,2,0
1528282071486889,-3,0,0,-5,-14,-24,-15,-4
1528282071486889,0,-1,0,4,19,42,21,3
1528282071494867,-1,-2,0,1,0,-9,-6,-2
1528282071494867,1,3,2,-1,0,3,3,-2
1528282071509376,-1,-1,-2,2,-1,-7,1,-2
1528282071509376,-2,-1,-3,-4,-10,-17,-8,-2
1528282071524330,-4,-4,-3,5,4,0,-2,-2
1528282071524330,2,1,-1,-4,3,0,-3,-1
1528282071539675,-3,-4,-1,-10,-9,-4,2,-1
1528282071539675,1,1,2,2,3,-3,-1,0
1528282071561923,0,0,-2,-1,2,-8,-4,-3
1528282071561923,-3,-4,-2,-2,-15,-1,-8,-3
1528282071569672,1,-2,2,5,13,20,7,3
1528282071569672,0,0,0,2,-2,1,-4,1
1528282071577031,0,0,0,-1,-2,-6,-2,0
1528282071577031,-1,-2,1,-3,-8,-14,-10,-4
1528282071591674,-2,-2,-1,-3,-2,6,-10,-5
1528282071591674,1,0,1,1,3,19,7,-1
1528282071599874,-1,-2,-1,2,3,-8,-4,0
1528282071599874,-1,-3,-3,-2,1,5,-3,3
1528282071614424,1,0,1,2,4,1,5,1
1528282071614424,-2,-3,-4,-1,-10,-17,-11,-4
1528282071629372,-1,1,1,4,1,-4,-5,-1
1528282071629372,-2,-1,-4,-3,-1,-9,-6,-3
1528282071644072,-1,-1,-5,0,2,-8,-6,0
1528282071644072,-1,0,1,-3,-1,7,5,2
1528282071667339,0,0,-2,1,1,28,12,4
1528282071667339,0,-1,-2,0,1,-13,-4,1
1528282071674344,4,0,-1,-2,-5,-4,-2,0
1528282071674344,1,5,-1,0,-6,-7,-1,-4
1528282071681513,1,1,-3,-1,-4,-8,-4,-6
1528282071681513,-2,-5,-2,-1,-4,-1,0,1
1528282071697139,-2,-6,0,-1,-4,-5,-5,-1
1528282071697139,0,-1,0,1,-2,4,1,-1
1528282071704904,2,0,0,1,-2,4,4,1
1528282071704904,1,1,4,0,2,-4,-3,-1
1528282071712171,-2,-1,-1,-4,-9,-5,-2,-1
1528282071712171,-2,-1,-2,-2,-2,-11,-7,-2
1528282071718909,-2,0,-1,2,-1,-6,0,-2
1528282071718909,2,1,0,-2,9,34,11,2
1528282071727340,0,-1,2,2,-1,-5,-1,0
1528282071727340,0,-1,-2,1,-4,-6,-4,-4
1528282071734417,-1,-2,-2,0,-2,-8,0,0
1528282071734417,-2,-6,-1,1,-3,-4,-1,0
1528282071749112,-4,3,-2,7,-3,-5,-5,-4
1528282071749112,8,0,-3,-7,-3,-2,1,1
1528282071757121,-2,-2,-3,-3,7,9,-3,-2
1528282071757121,1,-2,-6,-6,-5,-9,-3,-3
1528282071779584,-3,-5,-2,-4,2,1,-1,-1
1528282071779584,-3,0,-1,-1,-7,-7,-2,-1
1528282071786336,0,-1,0,1,1,4,1,-1
1528282071786336,-2,1,0,-1,-2,-2,-1,-2
1528282071794303,-4,-3,-1,-2,-1,-3,-3,-1
1528282071794303,-3,0,-1,-1,-1,0,-2,-1
1528282071801287,-3,-2,2,-3,-2,-17,-9,-2
1528282071801287,-5,1,1,0,-5,-2,-9,-3
1528282071817585,2,1,1,-2,11,34,17,3
1528282071817585,1,2,4,5,8,4,6,4
1528282071832205,0,-1,-2,-3,-6,-13,-5,-1
1528282071832205,-3,-5,-2,-4,2,4,3,-2
1528282071839186,-3,0,-3,-3,-5,-2,6,-1
1528282071839186,-1,-3,-1,-1,-2,-4,2,-3
1528282071847532,-1,-2,-1,-2,0,1,1,-2
1528282071847532,-4,-4,-1,6,0,-2,0,-2
1528282071854145,-2,-3,0,0,-1,-1,-5,-3
1528282071854145,0,1,-1,-1,1,4,2,0
1528282071869324,-1,-2,-3,-4,-1,-2,-3,1
1528282071869324,1,1,1,1,-2,-8,-6,1
1528282071876304,-2,-1,1,3,0,13,0,0
1528282071876304,1,-1,2,1,1,4,3,1
1528282071891511,0,1,-1,0,-4,-13,-7,0
1528282071891511,0,0,-1,2,0,7,-3,-3
1528282071906229,-2,-4,-1,0,1,-1,-2,1
1528282071906229,-3,2,3,1,-2,3,3,-1
1528282071914225,1,-2,0,1,-5,-9,-2,0
1528282071914225,-1,-2,0,-6,-2,-3,-1,-1
1528282071921243,-1,-3,3,8,5,21,7,0
1528282071921243,0,-2,1,-2,2,-9,-2,0
1528282071944780,0,-5,0,1,-2,1,-1,0
1528282071944780,-1,8,2,1,-2,2,3,-1
1528282071951928,-1,-3,-6,-3,-7,-10,-2,-3
1528282071951928,0,-3,-1,-3,-2,-6,-2,0
1528282071958779,-3,-1,-2,-2,-1,-1,-2,-1
1528282071958779,0,-6,-6,-5,-3,-2,-3,-1
1528282071966971,0,-1,-3,-5,0,-2,0,-1
1528282071966971,-1,-1,-5,-5,-2,1,-2,-1
1528282071973705,-2,0,-2,-2,2,-2,-1,-3
1528282071973705,-2,-2,0,-3,3,4,-1,-2
1528282071981686,-1,1,-3,-4,2,-1,0,-2
1528282071981686,1,-2,-3,-2,-2,-1,-3,0
1528282071989905,-2,1,0,-1,1,1,1,-3
1528282071989905,-3,-3,-2,-2,0,1,0,0
1528282071996887,-1,-1,0,-3,-1,-3,0,0
1528282071996887,-2,0,-1,-1,0,-6,-3,-3
1528282072011603,0,1,1,-1,-1,1,0,-2
1528282072011603,-1,-2,0,-1,1,1,1,0
1528282072019583,-2,1,-1,0,-1,-1,-3,-1
1528282072019583,1,2,2,0,0,2,-1,-3
1528282072026565,-1,-1,-2,-1,0,-2,0,-2
1528282072026565,0,-4,0,-1,-2,-1,-1,-2
1528282072034543,0,2,1,2,0,-3,-1,-2
1528282072034543,-2,-2,-3,-2,-1,-2,1,0
1528282072049501,-2,-2,-2,-2,1,-2,-2,-1
1528282072049501,-2,-2,-3,1,0,-2,1,0
1528282072056512,0,-2,-1,0,0,-1,-2,-1
1528282072056512,-2,-1,-1,-1,0,-2,-1,-2
1528282072071443,-1,0,1,-1,-2,-1,-2,0
1528282072071443,0,0,0,-3,-1,-1,-1,1
1528282072079421,0,1,0,-2,-1,-2,-3,0
1528282072079421,-1,-2,-1,-1,-3,0,-1,2
1528282072086403,-1,-1,0,1,-2,0,0,-1
1528282072086403,-2,0,-3,-1,-2,-1,0,1
1528282072094408,-1,-1,-1,-2,-1,-1,0,1
1528282072094408,1,-1,0,0,-2,-2,-2,1
1528282072109369,0,-4,0,-3,-2,0,0,1
1528282072109369,0,-2,1,-2,-4,-3,-2,-1
1528282072116350,-1,-2,-1,0,-4,-2,-1,2
1528282072116350,0,0,2,0,-2,0,-2,0
1528282072131337,2,-3,-3,-1,-2,0,1,-1
1528282072131337,-1,1,1,0,-2,-2,-2,-1
1528282072139315,0,-1,1,-1,-3,-3,0,0
1528282072139315,-1,-1,0,0,-1,-2,0,1
1528282072146298,0,1,0,-1,-2,-3,-2,-1
1528282072146298,0,-1,1,1,-1,-1,-2,0
1528282072154277,-1,-1,-1,-1,-2,-3,1,-1
1528282072154277,0,0,-1,-1,-2,0,-1,-3
1528282072169182,-1,0,0,0,-3,-2,-1,-3
1528282072169182,-3,-1,-1,-2,-2,0,-2,-1
1528282072176171,-1,-1,1,-2,-2,-1,0,-1
1528282072176171,-2,-1,-2,-1,1,-2,-1,-1
1528282072192121,0,-1,-2,-1,-1,1,-2,-1
1528282072192121,0,-2,-1,-1,-1,-1,-1,-4
1528282072199103,-3,0,-1,-2,-1,-1,-1,-3
1528282072199103,-2,-1,-2,-2,-2,-1,-2,-2
1528282072207082,0,0,0,1,1,-2,-2,-1
1528282072207082,-3,-2,-3,0,1,-2,-2,-2
1528282072214063,-1,-2,-2,1,-2,-1,-2,-1
1528282072214063,0,-1,-2,-2,-2,-1,-2,-2
1528282072229022,-2,-2,-1,1,0,0,-1,0
1528282072229022,1,0,-1,-1,-1,2,-2,0
1528282072237002,1,-2,-4,-2,0,-2,-2,0
1528282072237002,-2,0,-3,-1,-1,-2,0,1
1528282072251961,-1,0,-3,0,0,-1,-1,0
1528282072251961,2,0,0,-1,-1,-1,-3,-1
1528282072258943,0,-1,-1,0,0,-1,-1,-1
1528282072258943,0,-2,2,0,0,-2,-2,-2
1528282072266922,-2,-1,-2,-2,0,-2,-1,-2
1528282072266922,-2,0,-1,1,0,-1,-1,-1
1528282072273903,0,-2,-2,-1,-1,0,-3,0
1528282072273903,-2,1,-2,-2,-1,-1,-1,-2
1528282072288863,0,1,-2,-1,-1,-3,-1,-1
1528282072288863,-4,1,-3,-1,-1,-1,0,-2
1528282072296840,-1,0,-3,-1,0,-1,0,-1
1528282072296840,-1,-3,-2,-2,0,0,-1,0
1528282072311800,0,-3,1,-1,0,0,0,0
1528282072311800,-1,-4,-1,-1,-1,-1,-2,-1
1528282072326761,-2,-1,0,-2,-3,-1,-1,0
1528282072326761,-2,-1,0,-2,-1,-1,-1,-1
1528282072341721,-2,-1,0,0,-1,-1,-1,-2
1528282072341721,0,-2,0,0,0,-1,0,0
1528282072348995,0,1,0,-1,-1,1,-1,-1
1528282072348995,-2,1,-2,-2,-1,-1,2,0
1528282072363954,-1,-1,-2,-2,-2,-1,-1,-2
1528282072363954,-1,0,0,-3,1,-1,-1,-2
1528282072371969,-5,-4,-4,-2,-2,-1,0,-2
1528282072371969,-1,-2,-2,-1,-1,-2,-1,-1
1528282072386893,-1,-2,-1,-1,0,-1,-1,1
1528282072386893,0,-2,0,-1,-2,-2,1,0
1528282072401852,-1,1,-1,-1,-2,0,-1,-2
1528282072401852,-1,0,-1,-1,0,0,-3,-1
1528282072408834,-3,0,1,0,-2,0,-1,-1
1528282072408834,-1,-3,0,-2,0,-2,0,-2
1528282072424295,-2,0,-1,-1,-2,0,1,-1
1528282072424295,-1,-1,-3,-3,-2,0,0,0
1528282072439498,-1,-1,-1,-1,-1,-3,0,0
1528282072439498,-2,-2,0,0,-2,-2,0,0
1528282072446882,-1,-1,2,0,0,-1,-1,0
1528282072446882,1,-3,-1,-1,-1,0,-3,-2
