timestamp,emg1,emg2,emg3,emg4,emg5,emg6,emg7,emg8
1528876412078225,0,-3,1,-1,0,0,-1,-1
1528876412078225,-2,-1,0,1,-1,-2,0,1
1528876412079222,-1,0,-1,0,-2,-1,0,-1
1528876412079222,-2,0,-1,-1,0,0,-1,-1
1528876412081218,0,0,1,-1,-2,-2,-1,-2
1528876412081218,0,-1,-1,-1,0,0,0,-1
1528876412085207,0,-1,-1,0,1,0,1,-1
1528876412085207,1,-1,0,0,-1,-1,0,1
1528876412090193,0,0,-1,0,-1,0,-1,-1
1528876412090193,1,1,0,0,-1,0,-2,-2
1528876412097174,-1,0,-1,0,1,-1,-1,1
1528876412097174,-1,0,-1,-1,-2,0,-2,-2
1528876412105153,-1,0,-1,0,0,0,-1,1
1528876412105153,-2,-2,-1,-1,0,-1,0,0
1528876412122108,-1,1,-2,-2,0,2,0,0
1528876412122108,-2,1,0,0,0,-1,1,-2
1528876412125100,0,-1,-1,-1,0,-1,0,0
1528876412125100,-1,0,-1,-1,-2,1,-2,-1
1528876412137095,-2,-1,1,0,-3,-2,0,0
1528876412137095,0,0,-2,0,1,0,-1,-2
1528876412149035,-2,1,-2,-2,-1,-1,-1,0
1528876412149035,-1,-1,-1,-3,1,-1,-1,0
1528876412157015,0,-1,-1,-2,0,-2,-3,-1
1528876412157015,0,1,0,0,-2,-1,0,-1
1528876412203888,-1,0,-1,-2,-1,-2,-2,-1
1528876412203888,-1,-1,1,-1,-1,-3,-1,0
1528876412204885,-2,-1,-1,-1,-1,0,-1,-1
1528876412204885,0,-1,-2,0,0,-1,-1,-1
1528876412205883,1,1,0,1,-1,0,0,0
1528876412205883,-1,-1,0,0,1,0,-1,0
1528876412207877,0,0,-1,-1,0,-1,0,-1
1528876412207877,0,-1,0,0,0,0,-1,0
1528876412215857,-1,0,-1,-1,0,-1,0,-2
1528876412215857,0,-2,-1,-1,-1,0,0,-1
1528876412222857,-1,-1,-1,1,2,0,0,1
1528876412222857,-2,-1,-2,-2,0,1,-1,0
1528876412229820,0,-2,-1,0,-1,-1,-1,-2
1528876412229820,-1,0,-2,-1,-2,0,-1,-1
1528876412244780,-1,0,0,0,-2,1,-1,-1
1528876412244780,0,-1,0,0,-1,-2,0,-2
1528876412252759,-2,0,-1,0,-1,0,-1,2
1528876412252759,-1,-3,-1,-1,0,0,0,0
1528876412259739,-1,-1,0,1,-1,1,0,1
1528876412259739,-2,-1,-2,0,-1,-1,0,0
1528876412275697,0,-2,-2,0,-1,-1,1,1
1528876412275697,0,0,-1,1,-1,-1,0,-2
1528876412282679,-1,0,-2,-2,-1,0,0,-1
1528876412282679,0,0,0,-1,-1,-1,0,-1
1528876412291656,-2,-2,0,0,1,0,0,-1
1528876412291656,1,-1,-2,1,-2,0,-1,0
1528876412304621,0,-2,-1,-1,0,0,-2,-1
1528876412304621,-1,0,-2,0,-1,-1,0,-1
1528876412313647,-1,-1,0,-2,0,0,0,-1
1528876412313647,-2,-1,0,0,0,0,-1,-1
1528876412320626,-1,-2,1,-1,-1,-1,-1,-1
1528876412320626,2,-1,0,-1,1,0,0,-1
1528876412336560,-1,0,0,0,-1,-1,-1,1
1528876412336560,-1,0,0,-3,-1,-1,-1,-1
1528876412342552,0,0,-1,0,-1,0,0,0
1528876412342552,-2,-2,1,-1,-2,0,-1,-1
1528876412350553,0,-3,1,0,-1,-1,-2,-2
1528876412350553,-2,0,0,0,-1,-2,1,-2
1528876412365496,-1,0,0,0,0,0,0,-1
1528876412365496,-1,-2,-2,-1,0,0,-1,0
1528876412373436,-1,0,-1,0,0,0,0,-1
1528876412373436,2,0,-3,0,1,-2,-1,0
1528876412380418,0,0,0,0,0,-1,-2,-1
1528876412380418,-1,-1,-1,-1,0,-1,-1,-1
1528876412395415,0,0,-1,-1,-1,-1,0,0
1528876412395415,0,-2,-1,-1,0,-1,-1,0
1528876412402398,0,-1,-1,1,-1,-1,-2,0
1528876412402398,0,0,-1,0,0,0,-1,-1
1528876412410379,0,0,-1,-1,-1,0,0,-1
1528876412410379,0,-1,-1,-2,0,0,-1,0
1528876412425323,-1,-1,-1,0,-1,0,-1,0
1528876412425323,-2,-1,-2,0,1,-2,-1,-1
1528876412433312,0,-1,-1,1,0,-1,-1,-1
1528876412433312,-1,1,0,1,-1,0,1,0
1528876412440258,-1,-1,-1,-2,-1,-1,1,-1
1528876412440258,1,0,0,-2,-2,-1,-2,-1
1528876412455216,0,-1,-1,-2,1,-2,0,1
1528876412455216,0,0,-1,0,0,1,0,0
1528876412462198,-1,-1,-1,0,0,0,-1,-1
1528876412462198,0,0,1,0,-1,0,-1,-2
1528876412470177,0,0,1,0,-1,-1,-1,-2
1528876412470177,0,-1,0,0,-2,-1,1,-2
1528876412485139,0,-2,-1,0,-1,-2,0,1
1528876412485139,-1,0,-2,0,-1,-1,2,0
1528876412493117,-1,-1,-1,-1,1,0,0,-1
1528876412493117,-2,-2,-1,0,0,0,-2,-1
1528876412508085,1,-1,-2,1,0,0,0,0
1528876412508085,0,0,-1,0,0,0,-1,-1
1528876412516054,-1,-1,1,0,0,0,-1,0
1528876412516054,-1,-3,-1,-2,-1,-1,0,1
1528876412523040,-1,0,1,-3,-1,-1,0,-1
1528876412523040,-2,-1,0,-1,-3,-2,0,0
1528876412530043,1,0,-3,-1,-1,0,0,-1
1528876412530043,-1,1,-1,-1,0,-1,-2,-1
1528876412545012,0,-1,0,-1,-1,0,-2,-1
1528876412545012,-1,-1,-2,0,-1,0,0,-2
1528876412552997,-1,-1,-1,-1,-1,-1,0,1
1528876412552997,2,0,0,-2,-1,-1,-1,-1
1528876412567916,0,0,-1,-1,0,0,-1,0
1528876412567916,0,1,1,-2,1,0,0,0
1528876412575945,0,0,-1,-1,0,-2,-1,-1
1528876412575945,-1,-1,-1,1,-1,0,-1,0
1528876412582902,-1,-1,-1,-1,0,-1,1,0
1528876412582902,-2,-2,-2,1,-1,2,0,0
1528876412597872,0,-1,-1,-2,-1,0,1,-1
1528876412597872,0,0,-1,0,1,1,-1,0
1528876412604863,1,-1,-1,0,-1,-1,-1,-2
1528876412604863,1,-2,0,-1,-1,-1,-2,0
1528876412612849,0,0,0,0,-1,0,-1,-2
1528876412612849,0,-1,0,-1,0,-4,-2,-2
1528876412627785,-1,0,0,-1,-2,-4,-1,-1
1528876412627785,-1,-2,0,0,0,-1,-1,0
1528876412635762,-2,-3,-2,-1,0,-2,1,0
1528876412635762,-2,-2,0,0,1,-1,2,-3
1528876412642758,-1,1,-1,1,0,0,-1,-1
1528876412642758,1,-1,0,0,-1,-1,-3,0
1528876412649734,-1,-1,0,0,-1,-1,-2,-1
1528876412649734,-2,-1,-1,-1,-2,1,-1,1
1528876412664658,0,0,-1,0,0,-2,1,1
1528876412664658,-1,0,1,-1,1,0,1,-1
1528876412673633,0,0,0,0,-1,1,-2,2
1528876412673633,0,-1,-1,0,0,-2,-2,-2
1528876412687599,0,-1,0,0,0,-1,0,-2
1528876412687599,-3,-1,-2,-2,-1,0,-1,-1
1528876412695579,0,-1,-2,-1,0,-2,0,-1
1528876412695579,-1,0,0,0,-2,-1,1,1
1528876412702557,-2,0,-2,-1,-1,0,-1,-1
1528876412702557,-1,0,-2,0,0,-1,2,0
1528876412709537,-1,-1,1,1,-1,-1,-1,-1
1528876412709537,-1,0,-1,-1,0,1,0,-2
1528876412725508,0,-1,-1,-1,1,-1,0,0
1528876412725508,0,-1,0,0,-1,-2,1,0
1528876412733475,0,-1,-2,-1,-2,-1,-1,2
1528876412733475,0,1,0,-2,-1,-1,0,0
1528876412747437,0,-2,0,-1,-2,0,0,1
1528876412747437,1,0,-2,-1,0,-1,-3,-1
1528876412756413,0,0,-2,1,1,1,-1,0
1528876412756413,-1,-1,-1,0,-1,-1,-1,0
1528876412762397,-1,0,-1,0,0,-1,-1,-2
1528876412762397,0,0,0,-1,-1,-1,0,-1
1528876412779352,-1,-1,-1,-1,0,-2,0,-1
1528876412779352,0,-1,0,-1,-1,-1,-1,-1
1528876412785351,-1,0,-1,-1,0,-1,-1,0
1528876412785351,0,0,0,0,-1,-1,-3,0
1528876412800296,0,1,0,-1,1,-1,-1,-2
1528876412800296,-1,0,0,0,-1,-2,-2,-1
1528876412807277,-1,0,0,-1,0,-2,-1,-1
1528876412807277,-1,1,-1,0,-1,-1,-1,0
1528876412816268,0,-2,1,0,-1,0,0,0
1528876412816268,1,0,0,-1,0,0,-2,0
1528876412822237,-1,0,0,1,-1,0,-2,-1
1528876412822237,0,-1,-2,-2,-1,-2,0,-1
1528876412839191,0,-1,0,-2,1,-1,0,-1
1528876412839191,-1,0,-1,-2,-1,-1,-1,-1
1528876412845176,0,1,-1,-1,-1,-1,0,-1
1528876412845176,0,-1,2,1,0,1,0,-1
1528876412860136,-1,0,-1,-1,0,-1,-1,-1
1528876412860136,0,0,-1,1,-1,-1,0,0
1528876412867117,-1,-1,-2,-1,-2,-1,0,-1
1528876412867117,0,0,0,-1,0,0,0,-1
1528876412876093,-1,-2,-1,-1,-1,-1,-2,-2
1528876412876093,-1,-3,0,-1,-1,-1,0,0
1528876412882077,-1,-1,0,0,0,0,-1,0
1528876412882077,-1,-1,-2,0,-1,0,1,3
1528876412899032,-1,-1,-1,0,-1,0,-2,-1
1528876412899032,0,-1,-1,1,-1,-1,-1,-1
1528876412905075,0,-1,-1,0,-1,0,-1,-1
1528876412905075,0,0,2,-1,2,0,1,-1
1528876412919975,-2,0,-1,-1,-1,-2,1,0
1528876412919975,-1,-2,-3,-2,-1,0,1,0
1528876412928006,0,1,3,2,-1,-1,-1,0
1528876412928006,0,-2,-3,1,-1,-1,-1,-2
1528876412936930,-6,-16,-46,-8,-2,1,1,-3
1528876412936930,4,16,63,8,-6,-4,-3,-1
1528876412942915,-1,0,1,11,3,0,-2,1
1528876412942915,-2,-2,-5,-17,-3,1,-1,0
1528876412958875,0,3,4,20,5,1,-1,0
1528876412958875,-5,-14,-29,-17,0,-3,0,-1
1528876412964868,2,6,-8,-16,-5,-2,-1,2
1528876412964868,3,9,31,15,0,3,5,3
1528876412979816,-1,-5,-14,-15,-6,-6,-5,-3
1528876412979816,-4,-2,-7,33,16,7,1,-1
1528876412987830,1,-1,4,-30,-14,-1,1,-2
1528876412987830,1,-2,-16,-14,0,5,1,2
1528876412996806,2,5,15,13,-2,1,0,1
1528876412996806,0,1,1,-2,1,-1,0,0
1528876413002755,-2,-3,-3,14,7,2,0,-2
1528876413002755,-6,-7,-10,-2,-6,-4,-2,-4
1528876413019034,1,7,18,3,1,2,-1,0
1528876413019034,2,0,-7,-1,1,-1,0,1
1528876413025017,-3,-6,-9,-3,-6,-4,-3,-3
1528876413025017,0,1,1,0,-3,-1,-2,0
1528876413040363,3,3,9,7,4,0,3,3
1528876413040363,-3,-1,-11,-13,-5,-3,-20,-10
1528876413048301,0,-1,2,5,7,5,7,3
1528876413048301,2,2,3,7,5,-1,8,2
1528876413057087,-2,-2,0,-10,-6,-2,-6,-4
1528876413057087,-6,1,-7,-9,-7,1,7,-16
1528876413063385,0,-3,8,10,6,11,64,21
1528876413063385,0,3,-4,-2,-11,-23,-87,-14
1528876413079425,5,5,10,9,23,8,10,6
1528876413079425,0,-5,-8,-16,-16,-17,11,13
1528876413085405,0,3,5,4,6,5,11,-15
1528876413085405,-2,-3,-7,2,13,5,24,21
1528876413100883,-2,-3,-1,-8,-8,-4,7,-4
1528876413100883,1,1,2,-10,-9,0,-12,4
1528876413107681,1,3,0,15,-1,-11,-11,-3
1528876413107681,-2,-4,-2,-5,11,4,4,-5
1528876413116645,-5,-3,-5,5,-16,-19,-30,-10
1528876413116645,2,0,1,9,5,6,21,5
1528876413122874,-3,-5,-5,0,-5,-2,-19,0
1528876413122874,0,-1,-3,-7,-2,-2,0,-10
1528876413139589,-1,-1,1,-4,7,13,14,5
1528876413139589,-3,-5,-5,-8,-4,-9,-7,-1
1528876413145794,3,3,-1,11,15,7,-16,-5
1528876413145794,-1,-3,-2,1,-14,-5,2,3
1528876413153546,-1,-2,-2,-10,-6,2,15,0
1528876413153546,-2,0,2,4,-4,5,11,-7
1528876413167982,-6,-5,-10,-9,-3,-17,-40,11
1528876413167982,1,2,1,8,7,5,37,14
1528876413176594,-1,-3,-2,-10,-6,-4,-8,-10
1528876413176594,2,1,2,18,7,-1,-10,-1
1528876413190270,-3,0,5,-13,-1,14,55,7
1528876413190270,2,2,4,3,-3,3,-8,-4
1528876413199859,-3,0,-1,-3,-13,-12,1,-5
1528876413199859,-1,-3,-7,-4,7,5,-12,-8
1528876413213518,-1,-2,-5,-5,-6,-8,-5,-5
1528876413213518,-1,-1,3,7,10,8,-5,-1
1528876413215511,2,2,8,7,12,9,0,2
1528876413215511,0,-1,-3,-6,-8,-6,2,4
1528876413227480,2,1,3,3,8,2,-12,0
1528876413227480,-4,-3,-3,-5,-6,-3,3,-8
1528876413236501,3,1,0,-2,1,2,-7,2
1528876413236501,0,-2,-4,-4,10,9,10,6
1528876413250790,-3,-3,0,23,0,-6,-19,-10
1528876413250790,2,2,1,-11,-3,7,5,1
1528876413259445,-1,-1,0,5,7,-5,6,2
1528876413259445,-2,-1,-1,-6,-10,-4,1,6
1528876413273406,1,0,-3,-13,-9,0,-7,-5
1528876413273406,0,-2,-4,4,-5,-10,7,6
1528876413275399,-2,1,1,2,-7,3,3,-13
1528876413275399,2,-3,-4,-6,4,3,-2,19
1528876413287814,-1,1,5,9,11,7,-10,-6
1528876413287814,-1,-2,2,1,-3,-2,8,2
1528876413296524,-2,-2,-4,-4,0,0,-2,2
1528876413296524,3,6,6,12,12,4,-3,-2
1528876413310545,3,0,-3,-12,-5,0,8,3
1528876413310545,-4,-3,-6,1,-5,-9,-11,-10
1528876413319281,0,-1,-4,4,4,4,-2,2
1528876413319281,2,3,4,5,3,6,3,-2
1528876413334243,-1,-2,-2,-7,-11,-2,-4,1
1528876413334243,-1,-1,-1,-13,-3,-1,-1,-7
1528876413335240,-2,-1,1,4,4,5,-1,5
1528876413335240,3,5,7,25,12,2,3,2
1528876413347208,-3,-2,-2,-23,-21,-8,-3,-9
1528876413347208,0,-1,0,2,-4,0,-1,-5
1528876413356490,-1,-3,-5,-20,-5,0,-11,11
1528876413356490,-1,-2,-5,-13,-12,-7,12,2
1528876413370777,1,2,5,20,0,-1,-1,-1
1528876413370777,2,2,1,1,1,2,8,-1
1528876413378975,-1,-2,-1,-1,-5,-6,-23,3
1528876413378975,0,-1,0,1,7,8,2,-3
1528876413393943,-2,-4,-2,-10,-3,-6,18,6
1528876413393943,1,-1,-1,2,2,-4,-31,-3
1528876413395709,1,0,1,3,-12,-10,-8,2
1528876413395709,-4,-2,-4,-5,-5,-3,-1,-2
1528876413407677,1,-1,-4,-5,1,-1,3,0
1528876413407677,-2,-3,0,8,9,3,7,-2
1528876413416654,2,1,-1,-3,-11,-4,4,-5
1528876413416654,3,0,3,0,18,5,-7,-1
1528876413430106,0,-1,-1,3,-6,-4,-8,-1
1528876413430106,-3,0,2,4,3,-1,-10,-2
1528876413439084,3,3,1,0,-2,6,19,6
1528876413439084,-5,-2,-2,11,0,-7,-6,-7
1528876413454313,1,0,-3,-15,-18,-2,0,-1
1528876413454313,-2,-3,0,2,16,10,-5,1
1528876413460278,3,5,6,2,4,2,17,13
1528876413460278,-3,-2,-2,12,-6,0,14,-9
1528876413467013,-3,-2,-3,-26,-3,-1,-12,-3
1528876413467013,-3,1,1,-8,-7,2,7,-3
1528876413476984,-5,-5,-5,15,-9,-17,-5,-3
1528876413476984,0,1,2,-3,5,7,1,5
1528876413490269,-1,-1,1,11,5,-2,-8,0
1528876413490269,-2,-1,-3,1,-2,-3,7,1
1528876413499259,-4,-1,4,-8,9,14,17,-7
1528876413499259,2,-2,0,0,-3,-2,-71,-8
1528876413514465,1,3,6,11,2,9,21,4
1528876413514465,2,0,-3,-12,-9,-10,1,5
1528876413516328,-5,-3,-3,0,-2,-1,-10,-7
1528876413516328,-3,-2,-2,-9,-3,-3,3,-10
1528876413527759,1,0,2,6,10,6,3,4
1528876413527759,-2,-2,-1,18,8,0,-3,1
1528876413536717,0,-2,-5,-19,-7,-1,-2,-4
1528876413536717,-1,1,-1,-25,-17,-6,10,-2
1528876413550700,1,-3,-5,8,-12,-15,-11,-1
1528876413550700,0,0,-1,18,16,3,20,8
1528876413558895,-5,-5,-7,-16,-21,-7,-9,-9
1528876413558895,-1,-3,-5,-15,-12,-4,5,5
1528876413574749,-4,0,2,12,12,0,-6,-4
1528876413574749,1,-1,0,-25,-22,-3,6,4
1528876413575598,4,1,4,39,29,3,0,-7
1528876413575598,-1,2,6,0,-5,3,-12,0
1528876413587822,-2,-2,-4,-27,0,0,12,3
1528876413587822,-1,-2,0,18,12,3,-2,-5
1528876413596542,1,2,0,-9,-7,1,-2,7
1528876413596542,0,0,0,8,6,1,-1,-3
1528876413610737,4,5,8,26,31,11,9,-1
1528876413610737,-7,-5,-7,-19,-26,-15,-16,-10
1528876413619480,0,-2,-1,-7,6,5,7,2
1528876413619480,2,2,-3,-6,-5,0,17,4
1528876413633443,-5,-3,0,0,0,0,-22,-14
1528876413633443,-1,0,-1,3,13,7,1,-2
1528876413635466,2,2,1,-1,-7,-6,-2,7
1528876413635466,0,-4,-4,2,-5,-4,12,-3
1528876413647641,-2,-4,-5,-13,-9,-5,-2,-2
1528876413647641,1,3,3,4,-8,3,0,0
1528876413656501,1,1,1,-8,15,2,-5,1
1528876413656501,1,1,-3,2,6,-1,5,2
1528876413669647,-4,-3,-3,-9,-16,-9,-18,-3
1528876413669647,1,-1,-2,1,2,1,22,6
1528876413679827,0,1,-3,-12,-11,-3,3,0
1528876413679827,-4,-6,-4,6,7,-3,-3,-2
1528876413693833,0,-1,-3,9,-6,0,-3,1
1528876413693833,1,0,-3,-16,-4,-6,-7,2
1528876413695580,-2,-3,-1,3,4,0,-2,-13
1528876413695580,0,0,6,5,-2,7,-1,8
1528876413707836,-3,-2,-3,8,-12,-14,-6,-1
1528876413707836,-2,-2,-2,-5,-2,-1,-1,1
1528876413717341,-3,-3,-2,-13,-10,-3,-4,-2
1528876413717341,0,0,2,11,4,-3,1,-2
1528876413739117,-1,-1,-1,0,6,0,5,1
1528876413739117,1,2,2,-3,-2,2,-2,1
1528876413740114,-5,-4,-3,-2,2,-5,-10,-4
1528876413740114,-4,-6,-8,1,4,-7,9,-11
1528876413754310,3,1,0,-10,-11,-3,-16,7
1528876413754310,-3,-3,-3,-7,-17,-5,29,-4
1528876413755322,1,0,0,24,18,9,3,3
1528876413755322,-3,-4,-1,-16,-11,-9,-7,1
1528876413767376,-1,0,-5,-1,3,3,6,-2
1528876413767376,0,-3,-2,0,9,2,-11,-2
1528876413776637,3,2,3,-9,-7,-1,1,3
1528876413776637,2,2,2,10,-5,-2,1,2
1528876413789601,0,-1,1,1,5,0,2,-1
1528876413789601,-2,-1,2,-10,-1,-1,-9,1
1528876413799578,0,-3,-7,14,-1,-8,-3,-7
1528876413799578,0,4,4,-9,1,-1,-7,2
1528876413813882,1,-1,-1,-2,3,5,4,-7
1528876413813882,-1,-1,0,7,-4,-7,-10,-3
1528876413820712,1,-1,-3,-14,-10,-3,-8,2
1528876413820712,-6,-3,-1,8,4,-2,-17,-6
1528876413827737,-1,-1,0,-2,1,2,4,-4
1528876413827737,0,-1,-2,-3,-11,-9,-21,-6
1528876413836971,0,2,0,-2,10,11,24,7
1528876413836971,-2,-2,-4,-6,-14,-5,-3,-3
1528876413850146,0,0,0,-6,0,1,3,5
1528876413850146,-1,0,-1,10,13,5,-5,-3
1528876413859000,0,0,-1,-5,-8,0,3,6
1528876413859000,-2,-3,-2,5,3,2,-1,-2
1528876413873445,-2,-2,-2,-13,0,-3,-3,-2
1528876413873445,3,1,0,-8,-3,7,12,9
1528876413880540,-2,0,2,19,4,-1,-3,-5
1528876413880540,1,2,-3,4,8,3,8,2
1528876413887874,3,3,4,-1,-8,-8,-8,2
1528876413887874,2,-1,-3,-6,-13,-1,12,-4
1528876413896502,-1,0,5,11,12,3,-1,4
1528876413896502,2,0,-2,3,-3,-4,3,-3
1528876413910837,-1,0,3,0,2,2,-18,-6
1528876413910837,-2,3,3,7,12,6,23,-6
1528876413918975,-5,-3,-3,-3,-10,-12,-7,8
1528876413918975,-1,-2,-2,-10,2,5,19,2
1528876413933735,1,-2,-3,17,11,1,14,14
1528876413933735,-1,-1,0,-4,1,0,-10,-4
1528876413947462,1,-2,-3,-11,0,2,-18,-9
1528876413947462,0,0,2,-1,-1,-3,-2,0
1528876413956409,3,2,2,3,3,3,6,0
1528876413956409,0,1,3,6,5,3,-2,3
1528876413958404,-3,-3,-2,-4,-4,-7,-14,-13
1528876413958404,1,1,-1,15,11,1,-5,-3
1528876413970637,-3,-2,-4,-11,-4,2,3,-2
1528876413970637,-2,-1,-2,2,-6,-3,-6,-1
1528876413979645,2,2,1,1,9,6,-3,-2
1528876413979645,0,1,-3,-8,-2,1,14,1
1528876413993555,-3,-1,-2,-8,-4,0,-10,-4
1528876413993555,-3,-6,-7,10,4,-8,3,-2
1528876414000529,1,-2,-2,1,1,2,6,1
1528876414000529,-2,-1,2,-2,-1,4,-5,-1
1528876414017246,0,0,0,-7,-10,0,0,3
1528876414017246,0,-1,0,-15,-3,0,-4,1
1528876414018246,-3,-1,0,9,-7,-2,2,-3
1528876414018246,3,1,2,0,5,4,-4,-5
1528876414030245,-1,-3,-3,0,1,-4,0,2
1528876414030245,0,-1,0,1,-12,-4,-13,-1
1528876414039188,-2,-2,-4,-11,0,1,4,-2
1528876414039188,2,2,5,5,3,3,-5,3
1528876414053150,-4,-4,-4,-11,-17,-2,7,-7
1528876414053150,0,1,0,3,7,-2,-12,-1
1528876414060131,0,0,5,4,4,5,14,-1
1528876414060131,3,0,-3,-15,-12,-6,-17,-2
1528876414076089,-3,-3,-4,10,9,1,0,-5
1528876414076089,-2,-1,-3,-13,-10,-3,5,3
1528876414078083,1,0,2,-3,0,5,4,-2
1528876414078083,-1,1,3,21,0,-2,2,5
1528876414090051,0,1,3,6,6,2,10,-2
1528876414090051,1,-1,-3,4,6,2,-10,2
1528876414099030,1,1,-1,-5,0,0,2,5
1528876414099030,-4,-6,-12,-16,0,-2,1,-1
1528876414120969,3,3,2,9,-16,-9,-3,2
1528876414120969,0,-1,0,1,1,-2,-3,-1
1528876414122963,-2,-2,-7,1,0,-1,-3,0
1528876414122963,-2,0,-4,-18,1,-2,-4,-1
1528876414135928,-1,1,-1,-7,1,0,4,-5
1528876414135928,-2,-4,-5,-6,-4,-6,-7,9
1528876414137923,-1,-1,1,4,0,3,1,-1
1528876414137923,1,0,1,-2,-8,-2,1,2
1528876414149892,-2,-2,-1,-4,5,2,-13,-4
1528876414149892,5,4,7,12,9,13,21,5
1528876414158872,-1,-1,-1,2,-5,-6,-4,0
1528876414158872,-2,0,4,-1,-1,-2,15,9
1528876414172864,-1,-2,-3,-18,-15,-5,-6,-5
1528876414172864,-2,0,2,3,0,1,-5,-4
1528876414179850,2,1,-2,-11,-8,-1,0,3
1528876414179850,1,0,1,2,0,0,3,1
1528876414203802,0,0,3,11,17,7,4,3
1528876414203802,-4,-1,-1,-4,-1,-2,0,-6
1528876414205743,0,0,-3,-6,-10,-7,-3,-8
1528876414205743,-5,-4,-2,-2,-4,-4,-9,-5
1528876414209789,-3,-1,-2,8,1,-7,0,1
1528876414209789,-1,-2,-1,4,-1,0,-3,-4
1528876414218744,0,2,0,-7,4,-4,-6,-8
1528876414218744,0,-2,-2,9,3,2,-4,1
1528876414233721,-1,-1,-3,-24,-11,-1,0,1
1528876414233721,1,1,1,6,4,2,4,-2
1528876414239708,0,-3,0,7,0,-1,-2,-2
1528876414239708,-4,-3,-5,-19,-18,-12,-6,-6
1528876414256662,1,0,1,9,3,1,-13,1
1528876414256662,-1,0,2,2,2,-2,-5,-2
1528876414257665,2,0,-1,4,0,2,3,7
1528876414257665,3,1,1,0,3,4,7,3
1528876414269618,0,-2,-1,4,1,-1,7,2
1528876414269618,1,1,1,0,3,0,-8,-4
1528876414278549,-2,-1,0,4,-1,-3,-7,0
1528876414278549,0,1,0,8,6,1,1,-2
1528876414293509,-1,1,0,-4,4,1,-1,-1
1528876414293509,1,1,0,1,-1,-1,9,6
1528876414300489,-1,-1,2,-1,0,-1,3,1
1528876414300489,-1,-1,-3,-13,-5,-1,-4,-3
1528876414316503,3,1,0,13,15,7,5,2
1528876414316503,1,-2,0,1,1,0,4,4
1528876414318514,-3,-1,-1,-8,-8,-6,-16,-4
1528876414318514,1,1,1,-3,-6,1,-2,-2
1528876414330410,1,1,4,7,-2,-3,-9,1
1528876414330410,-2,-3,-8,-2,0,-1,24,0
1528876414339386,-2,0,2,3,1,-4,-4,-8
1528876414339386,-3,-2,0,18,-12,-7,-4,12
1528876414353351,-2,0,-3,-31,-4,-1,3,-1
1528876414353351,-2,-2,1,-4,-7,-1,-11,-4
1528876414360349,2,3,2,4,10,3,7,5
1528876414360349,1,-1,1,4,5,1,1,-5
1528876414376287,-4,-2,-2,9,-1,-3,0,-2
1528876414376287,2,-1,-2,-5,-7,-4,-4,-1
1528876414378295,0,-2,-2,-3,-1,3,4,2
1528876414378295,1,1,4,7,9,6,-2,-2
1528876414390253,0,0,-1,-2,-8,-4,1,0
1528876414390253,-2,-2,-1,-9,-2,0,-5,-4
1528876414399226,-3,-1,0,-1,-3,-2,-1,0
1528876414399226,-2,-2,-2,-7,-3,-2,-3,-2
1528876414413201,1,0,0,3,4,3,3,1
1528876414413201,1,-1,1,6,6,0,0,-1
1528876414420443,-1,-4,-5,-15,-15,-7,-3,-1
1528876414420443,0,0,-3,-4,-2,-1,-2,-2
1528876414444402,0,0,-1,6,3,3,4,0
1528876414444402,0,2,2,2,-3,-3,-3,-1
1528876414445135,0,0,1,2,4,1,2,2
1528876414445135,-1,-3,-2,-10,-2,-2,-1,-3
1528876414450371,-1,-1,0,6,-3,-3,-2,-1
1528876414450371,0,1,3,3,4,1,-2,2
1528876414465955,2,2,-2,2,16,9,4,1
1528876414465955,-4,-7,-2,-7,-13,-9,-27,-7
1528876414473576,1,2,3,5,3,5,21,6
1528876414473576,1,5,1,-4,-2,-1,-3,-2
1528876414481540,-3,0,1,2,2,0,0,1
1528876414481540,1,2,-1,1,3,0,3,0
1528876414496504,-3,-7,-4,-2,-3,-4,-7,-2
1528876414496504,-3,-4,-2,-2,0,2,-2,-1
1528876414498498,-3,-1,-2,-1,-4,-3,1,-2
1528876414498498,5,1,1,1,2,1,4,2
1528876414510466,0,-3,-1,3,-1,-2,-4,-1
1528876414510466,-1,0,-2,-3,-2,0,4,0
1528876414519438,-1,0,1,-1,-4,-3,-4,-1
1528876414519438,-3,0,-1,-1,1,1,6,2
1528876414533416,-2,-3,0,1,1,1,-4,-6
1528876414533416,1,0,-1,-1,-3,-2,-4,-1
1528876414540441,-1,-1,-3,-3,-4,-1,-2,-1
1528876414540441,0,1,1,3,3,2,3,0
1528876414556399,1,0,-2,-4,-3,-2,-1,1
1528876414556399,-2,-4,-2,-2,-3,-2,-2,-1
1528876414558392,-1,-3,-1,1,0,-1,-1,-1
1528876414558392,-1,0,2,1,0,0,5,-5
1528876414570608,-2,4,3,0,2,-4,-4,12
1528876414570608,-1,1,0,3,-4,-2,-2,0
1528876414579363,1,1,-1,-2,-1,0,1,1
1528876414579363,-2,-2,-2,-2,-1,0,-1,-3
1528876414593303,-2,-3,-2,0,2,0,-2,-5
1528876414593303,0,0,-2,-1,-1,0,-1,-2
1528876414600390,-1,-2,-3,-1,-4,-1,0,0
1528876414600390,0,0,-1,0,0,0,1,-2
1528876414616346,-1,-1,-1,-1,-2,-1,-2,-2
1528876414616346,-1,1,-3,-3,0,-1,2,2
1528876414618337,0,1,-2,-1,-2,-2,-2,-5
1528876414618337,-2,-1,0,0,0,0,-1,-2
1528876414630702,2,-1,-2,0,-1,0,-1,-1
1528876414630702,0,-2,0,-4,-2,1,-1,-1
1528876414639281,-1,2,1,5,0,-2,0,0
1528876414639281,0,1,-1,3,1,1,1,1
1528876414653244,-1,-1,-4,-11,-7,0,0,-2
1528876414653244,-3,-3,-1,12,7,-3,-3,-2
1528876414667226,-2,-1,0,-6,-6,-1,-1,-1
1528876414667226,-1,0,-1,-1,-1,0,1,0
1528876414676625,0,-1,-2,-4,-1,-1,0,-1
1528876414676625,0,-1,-1,-7,-5,2,-1,-1
1528876414678689,-1,0,0,2,5,-2,0,-2
1528876414678689,0,-1,-2,0,-2,-2,-2,0
1528876414690359,-2,1,0,8,2,0,2,0
1528876414690359,-1,-2,-2,9,3,0,-2,0
1528876414699564,-1,1,-1,3,3,-1,1,1
1528876414699564,0,0,0,-4,-2,0,-1,0
1528876414713301,-1,0,0,0,1,0,-2,-1
1528876414713301,-1,-1,1,-2,0,0,0,0
1528876414720538,-1,-3,-1,-4,-5,-3,-1,0
1528876414720538,0,0,1,1,1,-2,1,-2
1528876414744477,0,-1,-1,-1,-3,0,-1,0
1528876414744477,0,0,-2,-13,-4,0,-1,0
1528876414745470,0,-2,0,10,1,0,0,0
1528876414745470,1,-1,1,-3,-3,1,1,1
1528876414749767,0,1,1,5,0,-1,1,-2
1528876414749767,0,0,-1,-6,-3,-1,0,0
1528876414758742,-1,-2,-1,-3,1,0,-1,0
1528876414758742,0,1,-2,1,-1,0,-1,-1
1528876414773726,-1,-1,-1,0,-2,-1,-2,0
1528876414773726,-1,0,-1,-3,-1,0,0,0
1528876414779742,1,-1,-1,-2,-3,-1,-1,0
1528876414779742,-2,-1,0,2,2,-1,0,1
1528876414795979,-1,0,-1,-3,1,0,-2,-1
1528876414795979,0,-1,-2,1,-1,-1,-1,0
1528876414803288,-1,1,0,-2,1,1,0,0
1528876414803288,-1,-2,-3,-1,0,-1,0,1
1528876414810179,0,0,0,-2,-1,-2,1,-1
1528876414810179,-1,-1,-1,1,0,-2,-1,0
1528876414818914,-1,-1,0,-2,0,-1,-2,-1
1528876414818914,0,0,-1,2,-1,-2,-1,-1
1528876414833908,0,1,-2,3,1,-2,-2,-1
1528876414833908,0,-1,-2,-12,-4,-1,-1,0
1528876414839860,0,-1,0,0,-1,2,1,-1
1528876414839860,-1,0,-2,-4,-1,-1,-1,-2
1528876414855824,0,-1,0,5,1,0,0,-1
1528876414855824,0,1,1,2,1,-1,0,0
1528876414862799,0,-2,0,-3,-1,0,-3,0
1528876414862799,-1,-2,0,-1,1,-1,-2,-2
1528876414870155,-1,-1,-1,-3,-2,-2,-1,-1
1528876414870155,0,-2,-1,1,-1,1,-1,-2
1528876414879135,0,0,-2,-1,-3,1,1,0
1528876414879135,0,-2,-1,0,-2,-3,-13,-2
1528876414893100,-6,-2,-2,-2,1,1,2,-2
1528876414893100,4,0,-1,0,2,0,1,1
1528876414900580,-2,0,-1,0,1,-2,-3,-1
1528876414900580,0,0,-1,-2,-1,2,4,-1
1528876414915543,1,0,0,-2,-1,-1,0,-1
1528876414915543,-2,0,0,2,0,-1,-2,-1
1528876414922524,0,0,0,-2,-2,1,4,0
1528876414922524,-1,-2,-1,0,-1,-1,2,1
1528876414939320,-1,-1,0,0,0,0,-3,-1
1528876414939320,-1,0,0,2,-1,-2,0,0
1528876414940899,0,1,-1,-3,0,-1,-1,-1
1528876414940899,0,0,-2,-1,-1,0,0,0
1528876414953998,0,0,-1,1,-1,0,-2,-1
1528876414953998,-1,-2,-1,-1,-3,2,0,0
1528876414959857,1,1,-1,-1,-1,-1,-2,-1
1528876414959857,-1,0,0,-1,0,1,0,-1
1528876414976065,0,0,-2,-2,-2,-1,1,1
1528876414976065,0,0,-1,1,-1,-2,-2,-1
1528876414982796,-3,-1,-1,0,-1,-1,1,-3
1528876414982796,0,0,-2,-1,1,-1,2,-1
1528876414998780,1,-1,-2,-1,0,0,0,0
1528876414998780,-3,-3,0,0,-1,-1,1,-1
1528876415000748,-1,-2,1,-1,0,-1,-1,-2
1528876415000748,0,1,-1,-1,-3,-1,-1,-2
1528876415012719,1,0,0,-1,-1,-2,0,0
1528876415012719,0,0,-2,1,-2,0,-1,-1
1528876415021705,-1,-2,-1,-1,-1,0,1,0
1528876415021705,-2,1,-2,-2,-1,-1,1,0
1528876415036388,0,0,-1,-2,-1,-1,-2,-2
1528876415036388,-1,-1,-2,0,-1,0,-1,-1
1528876415042877,-1,1,0,1,0,-2,-2,1
1528876415042877,0,-1,1,-2,-2,0,-1,-2
1528876415059575,0,0,0,-1,0,-1,0,1
1528876415059575,-1,-1,-1,-3,-1,-3,-2,-2
1528876415060507,0,0,0,-1,-2,0,-2,-1
1528876415060507,1,-1,1,0,1,-1,-1,-1
1528876415072629,-1,-1,-1,-1,-1,0,0,0
1528876415072629,-1,0,0,1,-1,-1,-1,-2
1528876415081475,1,-1,-1,0,1,-1,0,0
1528876415081475,-1,0,-3,-1,-2,0,0,0
1528876415096472,0,0,0,0,-1,-1,-1,0
1528876415096472,-2,0,-1,-2,1,0,-2,-1
1528876415102547,1,-1,-1,-1,0,-1,-2,-1
1528876415102547,-1,-1,2,-1,0,0,-2,1
1528876415118248,-3,-1,0,0,-1,-1,0,-1
1528876415118248,0,0,-1,-1,1,-1,-1,-1
1528876415126720,-1,0,-1,0,0,-2,0,0
1528876415126720,-1,-1,-1,-1,0,0,-2,0
1528876415133283,-1,-1,-1,0,0,-1,-1,-1
1528876415133283,-1,0,0,-2,-1,0,1,-1
1528876415141700,-1,-2,-1,-3,-2,-1,0,-1
1528876415141700,-1,-1,-1,-1,0,-1,0,-2
1528876415155983,0,1,-3,-1,0,-1,0,0
1528876415155983,0,-1,0,0,-1,0,1,0
1528876415162880,0,-1,-2,-2,-1,1,-1,-1
1528876415162880,-1,-1,-1,-1,1,-1,0,0
1528876415178821,-1,-1,1,-1,0,-1,-2,-1
1528876415178821,-2,-1,-1,-1,1,-1,0,-1
1528876415180596,-1,0,0,0,0,0,-2,0
1528876415180596,1,-1,0,1,-1,0,1,-1
1528876415192788,-1,-2,-1,-2,0,1,0,0
1528876415192788,-2,-3,1,-1,-1,-3,2,0
1528876415201543,-1,-2,-1,0,-2,-1,-1,-1
1528876415201543,-1,-3,-3,-1,0,0,-1,-1
1528876415216240,-1,-1,0,0,1,-1,0,-1
1528876415216240,-1,-1,-2,0,-2,0,-1,-1
1528876415230604,1,-1,-1,1,0,-1,0,0
1528876415230604,-1,0,-1,-2,0,-2,-1,-1
1528876415238818,1,0,0,-1,-2,-1,-1,-1
1528876415238818,0,1,0,0,-1,0,-3,-1
1528876415240544,-1,0,0,-1,0,0,-1,-1
1528876415240544,-1,-2,0,-1,-1,0,-1,-2
1528876415252769,-1,0,-2,-1,-1,-1,0,0
1528876415252769,0,-1,0,-1,-1,-1,0,-1
1528876415261487,0,-1,-1,0,-1,1,0,0
1528876415261487,-1,1,-1,0,0,-1,0,-1
1528876415276457,-1,-2,0,-2,0,1,0,1
1528876415276457,-1,-1,-1,-1,0,0,-2,0
1528876415282690,-1,-1,0,-1,0,-2,0,-1
1528876415282690,0,1,0,0,-2,-2,0,-1
