timestamp,emg1,emg2,emg3,emg4,emg5,emg6,emg7,emg8
1529287953631473,3,-2,-1,-3,-1,1,-3,-1
1529287953631473,3,-2,-1,-2,0,1,-2,-4
1529287953635460,-1,-4,-2,-2,0,-1,-2,-1
1529287953635460,1,-2,-3,-1,2,0,-4,0
1529287953643439,-3,-2,-2,-1,3,-2,2,-1
1529287953643439,-3,-1,2,-3,1,3,5,-2
1529287953650420,1,-1,1,-2,-4,-1,3,0
1529287953650420,-3,-2,0,-1,-5,0,-3,-1
1529287953673358,0,2,-3,0,-2,-2,-6,-4
1529287953673358,0,3,-1,0,0,-11,-3,0
1529287953682336,-2,3,2,3,4,-3,-1,1
1529287953682336,0,0,3,-1,1,3,1,2
1529287953703281,-1,-3,-1,-2,-2,7,3,-1
1529287953703281,0,-6,1,1,-1,2,4,2
1529287953710262,2,-3,0,-2,-7,-3,-1,0
1529287953710262,-2,-2,-3,2,-6,-5,-1,0
1529287953725221,-2,-1,-2,-1,4,-1,-3,-3
1529287953725221,-2,-1,0,-5,4,1,-1,-7
1529287953744171,-2,-3,1,-2,2,1,-3,-2
1529287953744171,3,1,-1,-1,-3,0,-4,-2
1529287953748159,-3,0,-4,-1,-2,0,-3,1
1529287953748159,-1,2,-6,1,-3,-4,2,2
1529287953755142,-1,-1,1,0,-2,-1,2,-6
1529287953755142,-1,-2,-4,-10,-5,-5,2,-2
1529287953771099,0,-1,7,6,3,-7,-1,0
1529287953771099,0,-2,-3,-3,4,4,-5,-1
1529287953778079,1,-1,-9,-6,0,6,-7,1
1529287953778079,-2,1,-3,0,0,1,-8,-2
1529287953796032,-2,3,7,4,-3,-5,1,-2
1529287953796032,-1,-3,-3,-8,-6,-3,3,-7
1529287953801020,0,-3,0,-7,-5,-3,5,-6
1529287953801020,3,-3,5,6,2,6,3,-4
1529287953815980,-6,1,-6,-10,-3,-3,-7,2
1529287953815980,-2,-4,-1,5,1,-2,-5,-1
1529287953830940,0,-3,1,0,1,2,0,0
1529287953830940,1,-2,1,0,-4,-6,-2,1
1529287953840913,2,-4,-1,2,1,-1,0,-1
1529287953840913,3,3,1,-3,6,5,3,-1
1529287953852914,0,-3,-10,-5,-6,1,-6,-6
1529287953852914,-4,-2,0,-6,-7,-7,-9,-4
1529287953860859,-3,1,-3,-3,-4,1,0,-1
1529287953860859,-3,1,6,6,-1,-2,2,0
1529287953876816,0,0,0,9,6,2,2,-2
1529287953876816,3,-1,1,-2,-6,-1,3,-2
1529287953890778,6,-3,1,0,3,7,1,0
1529287953890778,-1,-4,4,6,4,-4,-8,-5
1529287953912721,-5,5,-2,-6,1,2,4,0
1529287953912721,-7,-6,-8,-10,-5,-7,0,-3
1529287953920699,-5,1,0,2,4,12,4,-3
1529287953920699,1,-5,-12,-13,-6,-2,2,2
1529287953927680,5,6,15,25,14,6,2,3
1529287953927680,3,3,3,0,0,-3,0,-1
1529287953935658,-2,-6,-6,-13,-9,-5,-3,-6
1529287953935658,-1,-2,-3,-3,-6,-2,-3,-5
1529287953950619,-3,-2,-5,2,-8,-22,-16,-6
1529287953950619,-4,5,-1,1,6,15,8,5
1529287953957598,-4,-6,-6,-10,-1,2,-2,4
1529287953957598,-1,0,2,5,8,-4,-6,2
1529287953972561,-2,-2,-1,2,-1,-1,-2,0
1529287953972561,0,-4,-13,-10,-2,2,-2,-6
1529287953980538,1,5,0,-2,-7,-3,-2,-5
1529287953980538,-3,-3,-2,0,-6,0,4,-3
1529287954003476,-1,3,5,4,6,0,1,-1
1529287954003476,2,1,1,-2,-4,-8,0,2
1529287954010459,3,-3,-3,-6,-5,-2,-2,3
1529287954010459,0,-5,-5,0,-2,-4,-4,0
1529287954018437,-1,1,15,-2,-8,-17,-8,4
1529287954018437,0,0,7,18,9,2,-1,4
1529287954025418,-4,-3,-17,-2,4,16,2,-1
1529287954025418,-5,6,6,-1,-2,3,3,0
1529287954040377,-1,-2,-7,-5,0,3,5,-5
1529287954040377,4,-2,-6,-9,-9,-5,-4,-4
1529287954055339,4,37,47,8,4,-8,-3,-3
1529287954055339,-2,4,2,-2,12,18,8,-1
1529287954070299,-1,-2,4,3,2,1,-2,-2
1529287954070299,1,-5,4,4,-3,2,-4,0
1529287954078276,0,-17,-21,-12,-14,-8,-10,2
1529287954078276,-2,-1,-1,4,-4,-10,-6,-1
1529287954085257,-2,3,-2,-1,2,-3,3,-3
1529287954085257,5,0,-6,1,9,8,6,-2
1529287954100219,1,-7,-10,-1,4,7,0,-2
1529287954100219,-5,1,10,3,-3,-2,-4,1
1529287954108198,-4,-6,2,3,-5,-1,-3,0
1529287954108198,-5,-1,-2,-16,-20,-17,-5,-6
1529287954123157,-12,-44,-54,-17,9,6,-1,-8
1529287954123157,23,53,45,51,22,7,4,4
1529287954130138,4,3,6,-5,-11,2,1,1
1529287954130138,-13,-38,-34,-29,-17,-11,-5,-4
1529287954138116,-1,-9,-5,0,-7,-8,-8,-4
1529287954138116,3,12,21,13,10,-4,-9,3
1529287954153078,-4,-15,-19,-9,-1,6,4,1
1529287954153078,-1,-5,-2,-4,-1,-1,-1,-2
1529287954161055,5,12,12,-2,-5,-1,-3,0
1529287954161055,-3,-7,-7,-2,-7,-2,3,3
1529287954175018,1,13,5,1,7,2,5,4
1529287954175018,-3,2,-4,-8,-3,-7,4,3
1529287954182997,1,2,9,9,14,0,-3,0
1529287954182997,0,-6,-8,-3,4,5,-5,-4
1529287954190977,4,5,9,5,1,5,4,3
1529287954190977,-9,-38,-51,-20,-7,-4,-8,-11
1529287954197958,15,50,39,11,2,0,8,1
1529287954197958,2,16,38,22,4,1,-3,-1
1529287954220895,-4,3,4,4,-1,0,-4,0
1529287954220895,-8,-6,-2,-12,-6,-2,-9,-4
1529287954227877,-10,-29,-34,-14,-12,-10,-6,-2
1529287954227877,6,4,-11,2,8,20,11,2
1529287954250817,-1,9,4,12,-1,1,0,-4
1529287954250817,0,-4,-10,-12,-5,-1,5,3
1529287954257797,-4,-13,-3,5,-2,-5,-3,-3
1529287954257797,0,10,4,-3,-3,-7,1,-3
1529287954265774,-3,-11,-11,-6,-1,-1,-1,-1
1529287954265774,1,2,2,7,1,0,-4,-1
1529287954272756,2,5,17,0,-1,3,0,3
1529287954272756,-8,-8,-8,-14,-8,-5,-5,-5
1529287954280735,2,2,-8,-1,6,7,5,2
1529287954280735,-1,11,16,22,9,3,-1,-4
1529287954287715,-3,-1,-12,-3,2,-3,2,-2
1529287954287715,3,-7,-18,-8,-9,-4,-1,3
1529287954302677,6,1,5,4,-5,-1,-1,0
1529287954302677,0,3,9,6,5,3,0,-1
1529287954310655,4,26,30,-6,-5,-6,-6,-3
1529287954310655,-3,-1,-5,-3,-2,-5,-5,0
1529287954317638,-5,-7,4,7,4,-2,-3,-3
1529287954317638,-4,1,7,0,4,-3,0,1
1529287954332597,-3,-8,-6,-7,-8,-2,3,-1
1529287954332597,-4,-12,-12,-15,-4,-9,-6,-6
1529287954340575,1,10,20,13,7,2,1,-5
1529287954340575,-6,-12,-10,-1,-3,0,1,-2
1529287954355535,-4,4,-7,-3,-6,0,-3,-1
1529287954355535,2,5,12,16,3,10,10,4
1529287954363514,-4,-18,-23,-13,-7,2,3,2
1529287954363514,-1,11,22,14,12,9,-4,-1
1529287954370494,-7,-25,-26,-16,-8,-5,-5,-4
1529287954370494,6,25,30,11,-5,-7,5,1
1529287954378475,-1,4,3,1,9,5,0,-6
1529287954378475,-4,-6,-4,-1,2,-2,-6,-5
1529287954393434,3,-1,-4,-9,-5,-8,-8,2
1529287954393434,-4,-7,-28,-23,-8,-10,-5,-1
1529287954408393,2,-25,-5,15,7,2,7,5
1529287954408393,5,23,17,-6,-2,-2,-4,-2
1529287954423353,2,1,2,12,6,3,2,-3
1529287954423353,-4,-6,2,-3,-4,1,-4,-5
1529287954438359,-3,8,20,23,12,3,3,-3
1529287954438359,0,-3,-4,7,1,-1,4,0
1529287954453323,8,37,52,17,8,0,2,3
1529287954453323,3,23,24,11,1,-2,3,6
1529287954468270,5,4,2,-4,-5,3,4,3
1529287954468270,-5,-4,-4,2,-6,-1,-2,-5
1529287954475216,-9,-15,-33,-21,-17,-6,2,-4
1529287954475216,-6,-14,-1,1,9,10,2,-5
1529287954498156,2,-14,-14,-5,-6,-9,-8,-5
1529287954498156,1,-5,-1,0,7,4,-2,-2
1529287954513112,-4,-3,1,1,-2,3,3,0
1529287954513112,7,11,10,6,-1,-2,-2,-2
1529287954520094,-5,-13,-10,-3,2,1,1,1
1529287954520094,1,8,8,-11,-13,-4,-2,-1
1529287954535054,-1,5,-7,4,0,2,1,-1
1529287954535054,-4,-4,-3,7,2,0,0,0
1529287954543032,0,4,16,0,-4,-1,2,2
1529287954543032,2,0,-10,-2,1,0,-1,1
1529287954551011,-2,-19,-32,-8,0,-4,-3,-1
1529287954551011,-3,-9,-8,-8,-6,-6,-7,-1
1529287954565972,-3,-1,2,2,4,9,3,0
1529287954565972,-5,-7,0,2,2,-2,1,-3
1529287954572952,2,-1,-16,-7,-6,1,-1,1
1529287954572952,-1,-5,2,5,-1,-3,-3,0
1529287954587913,1,-7,2,7,3,-1,-4,-2
1529287954587913,-3,-2,-3,-8,-2,-2,-2,0
1529287954595891,1,2,8,7,3,-4,-2,-2
1529287954595891,2,0,-15,-8,-1,2,0,0
1529287954610851,4,4,9,8,9,3,0,-1
1529287954610851,-2,-10,-12,-17,-6,-3,-3,-4
1529287954625811,-2,0,3,-5,-5,-10,-4,-2
1529287954625811,-1,-3,3,0,-8,-2,-3,1
1529287954632793,-3,-1,-2,11,9,10,2,2
1529287954632793,0,-5,-3,-4,4,11,7,3
1529287954656180,-2,10,19,11,5,6,0,0
1529287954656180,-7,1,-8,-12,-11,-5,-3,-3
1529287954663337,-3,2,12,-1,-5,-9,-4,-2
1529287954663337,-3,-3,-4,-11,-8,-9,-8,-7
1529287954678125,-4,-1,-8,-5,0,3,-5,-3
1529287954678125,-6,2,2,4,-2,-6,-9,-4
1529287954693253,2,0,-6,-7,-10,-9,-1,0
1529287954693253,1,3,-4,-10,-15,-11,-2,-2
1529287954708600,-4,-5,-2,21,25,13,4,-3
1529287954708600,-1,-6,-4,-13,-16,-4,2,1
1529287954715389,-5,-2,0,-6,-2,0,2,-2
1529287954715389,-2,5,15,21,10,9,10,2
1529287954730445,-11,-18,-8,7,7,3,-5,-6
1529287954730445,1,-7,-7,-2,-5,-5,0,3
1529287954745784,7,-2,-3,1,-9,-2,-1,0
1529287954745784,2,-3,0,1,5,4,0,0
1529287954753463,1,6,2,-8,-4,1,1,1
1529287954753463,-5,0,4,7,7,6,2,-3
1529287954775901,-3,5,2,-6,-10,-8,-1,-1
1529287954775901,0,3,-1,-10,-2,-6,1,-1
1529287954783631,1,4,12,8,4,2,2,-1
1529287954783631,3,-2,5,14,27,16,3,6
1529287954805691,0,-4,-4,-7,-13,-6,1,-1
1529287954805691,-4,3,12,6,0,-7,-9,-6
1529287954820471,-7,-6,0,5,4,7,10,5
1529287954820471,-4,-7,-7,-2,-1,-2,-8,0
1529287954827672,2,6,-1,-7,-2,-2,1,4
1529287954827672,-3,-6,-7,-5,-5,-5,0,-2
1529287954842678,-1,2,-6,-14,-9,-5,-6,-2
1529287954842678,1,-6,-1,8,3,-6,-14,-9
1529287954858718,2,2,-2,3,2,2,2,1
1529287954858718,-1,6,-9,-16,-7,-2,2,0
1529287954873302,2,0,7,3,-4,-6,-1,-4
1529287954873302,4,-6,-10,-13,-17,-3,0,0
1529287954888303,-5,-5,7,11,14,3,-8,-7
1529287954888303,2,5,-8,-17,-8,-5,-4,0
1529287954895285,-3,-4,3,15,17,5,-1,-1
1529287954895285,5,0,-12,-16,-10,-1,8,0
1529287954910279,-1,-7,-7,-10,-11,-3,3,1
1529287954910279,-2,-2,3,6,2,5,-1,-4
1529287954918575,-1,-8,-1,0,-3,5,-2,-2
1529287954918575,-1,-1,-2,-7,-10,-11,-3,-2
1529287954940857,1,-1,-4,-3,1,-10,-12,-8
1529287954940857,-3,2,1,-1,4,2,13,5
1529287954948225,3,4,-5,-4,0,2,6,2
1529287954948225,-2,4,2,3,-5,0,-1,5
1529287954963185,3,1,-1,1,6,-6,-2,3
1529287954963185,-7,-6,2,1,6,11,8,-1
1529287954978317,-1,-4,2,2,2,0,-3,-6
1529287954978317,5,3,-4,-4,-11,-8,-6,1
1529287954993162,-3,0,-1,0,-8,-6,-2,0
1529287954993162,-2,3,-4,-5,-7,-2,-6,-1
1529287955001184,-7,-5,-8,-3,-11,4,-3,-7
1529287955001184,2,-1,13,11,10,22,7,8
1529287955023249,-5,-4,3,-5,-10,-9,-8,-3
1529287955023249,-8,-1,1,-1,6,-6,-5,-8
1529287955038703,4,3,-5,-5,-3,-1,0,4
1529287955038703,-2,2,2,2,6,2,1,0
1529287955060763,-5,-1,-5,-4,5,2,1,-1
1529287955060763,2,-5,-3,-1,-3,-11,-6,-2
1529287955083825,-3,0,-4,-5,10,-3,0,0
1529287955083825,3,3,0,5,2,-2,-1,0
1529287955090745,-3,-2,-6,-4,1,0,2,-2
1529287955090745,-1,-7,-9,-2,5,2,-3,-1
1529287955097728,2,1,1,3,5,-4,3,1
1529287955097728,-9,-2,-4,-5,0,-2,-1,-5
1529287955120665,4,1,-4,-3,-1,1,1,-1
1529287955120665,-3,-9,-8,-2,-8,-9,-4,-2
1529287955128323,3,-2,-2,-9,-7,-7,-2,-1
1529287955128323,-5,-3,4,3,6,2,2,1
1529287955150499,-1,0,-3,-4,2,4,-1,2
1529287955150499,3,10,6,1,2,2,-3,1
1529287955158317,-4,1,-5,-4,-2,-9,-8,-4
1529287955158317,-3,-3,7,10,14,11,5,2
1529287955180331,-3,-3,0,5,2,0,-2,-1
1529287955180331,-2,-3,-8,-10,-11,-10,-3,-4
1529287955188384,0,-2,-1,-1,-4,-6,0,0
1529287955188384,-1,-2,-1,1,-4,-6,-5,-3
1529287955210509,-6,-4,1,-1,-3,-1,-3,-1
1529287955210509,5,1,-4,-6,-4,-10,-2,-3
1529287955218488,0,-1,-10,-7,-6,-1,1,1
1529287955218488,4,4,11,9,-2,3,4,0
1529287955241260,1,-2,0,-5,-1,-1,0,-2
1529287955241260,-5,-3,-10,-10,-10,-5,-5,2
1529287955256270,1,3,2,0,-1,-1,2,0
1529287955256270,-2,0,-5,-2,-6,-10,-2,-1
1529287955270406,3,2,0,1,-2,7,-1,1
1529287955270406,2,-1,0,0,1,5,-1,-2
1529287955285718,2,1,-5,0,-2,0,-3,1
1529287955285718,-3,-2,5,1,-2,6,1,-1
1529287955300678,-6,-5,3,2,1,0,2,-1
1529287955300678,-2,-4,-4,-2,-1,2,2,0
1529287955315641,0,-1,4,6,5,-3,-3,-1
1529287955315641,-4,2,2,0,0,-7,0,-1
1529287955330433,-1,0,1,4,-1,4,0,0
1529287955330433,-3,-1,2,0,1,3,1,-1
1529287955346390,-6,-2,-2,3,3,4,2,-1
1529287955346390,-4,1,-5,-9,-1,3,-1,-2
1529287955360522,-2,-6,-5,-2,-5,-6,-6,-1
1529287955360522,2,0,-4,-7,-2,-6,2,-1
1529287955375553,0,1,0,1,-2,-5,-2,-3
1529287955375553,-2,1,4,-3,-3,0,-6,-1
1529287955383530,7,5,-2,4,2,3,-3,1
1529287955383530,4,-7,-7,3,1,0,2,3
1529287955398756,1,2,12,8,5,-1,2,1
1529287955398756,4,4,4,1,0,-1,-3,-11
1529287955405702,-10,-8,-19,-18,-9,1,5,12
1529287955405702,-3,-7,-17,-8,-1,7,-1,-2
1529287955420662,-2,-4,7,2,-3,-7,-7,-9
1529287955420662,7,-5,0,0,-2,-6,-2,2
1529287955436098,-3,9,2,3,3,-1,-2,-5
1529287955436098,-5,-2,-8,-3,-5,-7,0,3
1529287955451031,-8,-10,-1,8,2,-6,1,-4
1529287955451031,1,-1,-2,-12,-8,-1,3,2
1529287955458787,-2,-11,-1,12,5,9,1,-3
1529287955458787,0,8,-2,-24,-18,-5,-7,-19
1529287955472908,-3,-1,-2,1,-8,-3,1,14
1529287955472908,5,-3,-1,0,6,3,0,5
1529287955480851,3,-4,-1,-7,-6,-1,1,2
1529287955480851,0,2,7,8,4,3,2,-1
1529287955495574,1,5,7,-3,1,-1,-3,0
1529287955495574,-7,-3,6,3,7,5,-3,-3
1529287955510190,2,-7,-5,-7,-1,2,3,-2
1529287955510190,1,-2,2,6,6,-2,3,-6
1529287955518171,-2,-2,-4,-2,2,-6,-1,-7
1529287955518171,-1,3,2,1,-1,-2,-1,1
1529287955533251,6,0,-5,-1,0,1,0,3
1529287955533251,-1,-1,-2,-5,-4,-2,-5,-3
1529287955541260,-2,3,-2,-2,-3,0,-4,-2
1529287955541260,-2,3,-3,3,-3,-4,-5,2
1529287955555375,-1,-5,4,-2,1,0,-2,0
1529287955555375,0,1,5,4,-1,3,-2,-1
1529287955571227,-5,-2,-5,-1,5,10,0,-5
1529287955571227,2,2,-5,-3,-10,-3,-3,-3
1529287955578514,2,4,2,0,8,6,2,3
1529287955578514,-1,1,1,2,1,-3,-2,0
1529287955593650,0,-3,-7,-1,-1,-7,-3,-2
1529287955593650,0,-3,-6,-5,-5,-3,-1,0
1529287955600831,4,-1,0,-1,0,-2,1,-5
1529287955600831,4,-3,-4,-1,2,-1,1,-2
1529287955616178,-5,-2,-2,-2,-4,-6,0,0
1529287955616178,-7,-3,-1,-2,0,-3,1,-2
1529287955630270,0,-1,-1,-3,-4,-2,-5,1
1529287955630270,-1,-3,-3,2,-1,3,1,0
1529287955638678,-1,0,-1,4,-3,3,-2,3
1529287955638678,0,3,6,1,-1,0,-2,0
1529287955653299,4,3,3,-1,-4,1,2,-2
1529287955653299,-1,3,-5,-4,-4,2,4,-4
1529287955660282,-1,2,1,-4,-7,-2,2,-3
1529287955660282,0,-1,0,1,4,1,3,-3
1529287955675239,-4,-8,-5,-2,-1,-3,0,2
1529287955675239,-4,-1,-3,-4,0,-1,0,6
1529287955690199,-6,-3,-2,-1,2,-1,-2,1
1529287955690199,-1,-5,-5,1,0,-2,-1,1
1529287955698178,2,-4,3,0,-3,-4,-5,-2
1529287955698178,-3,-5,-1,1,-5,-2,-4,-3
1529287955713138,-1,-15,-20,-3,-1,-1,-5,-3
1529287955713138,3,15,33,3,1,2,0,-1
1529287955720119,5,1,-1,-2,0,1,2,-2
1529287955720119,1,4,1,0,-1,1,4,-1
1529287955735115,-1,3,-1,-1,-2,-2,-1,-4
1529287955735115,0,-1,-1,-1,-2,3,-2,-2
1529287955751038,-4,1,-5,-2,-2,2,-5,1
1529287955751038,-4,0,-11,-6,-3,-1,-4,0
1529287955758019,-4,0,5,3,-5,0,0,2
1529287955758019,-2,-7,-1,1,-1,-6,2,1
1529287955773025,3,0,6,-4,-1,-4,7,3
1529287955773025,0,-2,-4,-2,-3,-2,-1,1
1529287955780956,-6,-2,-8,-2,1,3,-4,-2
1529287955780956,-5,-1,-2,-1,0,3,-2,-6
1529287955795963,3,-1,6,5,1,1,-3,-6
1529287955795963,3,-4,-2,0,4,0,-1,-6
1529287955802899,-3,-2,-5,1,2,2,0,-3
1529287955802899,0,0,-3,-1,0,-2,-1,1
1529287955817897,-3,0,1,-3,2,-3,2,1
1529287955817897,-3,0,-2,-2,2,-3,-1,0
1529287955832865,2,-4,-2,-1,-2,-2,4,-1
1529287955832865,2,-3,2,-1,-1,1,-2,-2
1529287955840836,1,0,1,0,-2,0,-3,0
1529287955840836,-1,-3,-1,1,0,0,-4,-1
1529287955855796,0,2,1,-1,-4,1,-2,-2
1529287955855796,-2,0,-1,-2,-1,0,0,1
1529287955862786,-4,0,0,-4,-5,-5,3,0
1529287955862786,0,-1,1,-2,-6,-3,-2,0
1529287955885721,0,-5,-3,0,2,1,3,-3
1529287955885721,0,-1,-2,-1,2,-1,-1,-3
1529287955900638,0,-4,5,0,3,-3,-5,-3
1529287955900638,2,-5,-1,-1,-2,-1,-4,1
1529287955915630,-3,-4,-4,-1,-1,-1,-6,0
1529287955915630,-3,-1,-2,0,-2,-1,-4,-2
1529287955930590,-2,2,-3,1,1,-1,0,-4
1529287955930590,-2,3,-2,-2,-1,-2,-3,-4
1529287955938537,-2,-1,-2,-3,-2,1,0,-1
1529287955938537,0,-4,1,-3,-2,0,0,1
1529287955945550,4,5,0,3,0,-4,-2,-5
1529287955945550,-1,5,0,-2,3,2,-4,-6
1529287955960478,-2,2,-1,0,1,0,-2,-5
1529287955960478,-1,0,0,1,-3,2,-3,-2
1529287955968455,-1,1,-3,-4,-2,-1,-2,0
1529287955968455,0,-2,1,-4,-4,-5,3,4
1529287955975438,-3,-1,4,-5,-3,-3,4,6
1529287955975438,-9,4,8,-1,-2,-1,3,7
1529287955983417,-5,4,2,0,-6,2,5,8
1529287955983417,-4,2,-2,0,0,3,4,5
1529287955998378,5,-3,-2,-5,2,-2,2,-1
1529287955998378,5,-4,-4,-2,-3,-6,1,3
1529287956013372,3,-3,-1,-1,-7,-2,-5,8
1529287956013372,-2,-5,1,-2,-4,-2,-5,6
1529287956020318,-3,-5,2,2,1,0,-9,2
1529287956020318,1,-6,-4,-2,5,-1,-3,-5
1529287956035280,1,-6,1,-4,6,1,-5,-8
1529287956035280,2,0,-4,-2,-2,0,-2,-5
1529287956043533,1,-1,-1,-1,-3,2,2,-5
1529287956043533,-2,0,1,1,-2,2,0,-4
1529287956058685,-2,0,-3,-1,0,0,-4,-2
1529287956058685,-3,-1,-4,0,-1,-4,-4,-1
1529287956073069,3,1,-4,-2,2,-1,-3,1
1529287956073069,4,1,-4,1,-1,-4,0,0
1529287956080851,1,-3,0,1,-2,-4,0,-4
1529287956080851,1,-1,0,-2,-6,-2,0,-1
1529287956095813,-5,4,-1,-2,-1,-3,-1,-1
1529287956095813,-6,2,0,0,1,-2,-1,1
1529287956102792,-3,2,-1,-3,2,0,-5,-1
1529287956102792,-6,-4,0,-1,0,4,-5,-2
1529287956118749,-1,-2,1,-1,-3,-2,-1,0
1529287956118749,-1,-1,-4,-1,0,-3,0,-3
1529287956132820,2,5,-3,-1,-2,-1,1,-2
1529287956132820,1,2,0,-4,-2,-5,2,-1
1529287956140817,1,3,-3,-2,1,-3,0,1
1529287956140817,1,2,1,-4,3,1,0,-1
1529287956156024,-1,-1,-1,1,0,5,-2,-3
1529287956156024,-3,-3,-2,1,2,1,-3,-2
1529287956163327,-1,-7,-2,-1,-3,2,-2,0
1529287956163327,2,-1,-3,-1,-3,2,-3,-2
1529287956178144,0,-4,2,-1,-7,0,-2,-3
1529287956178144,-4,-1,0,5,-3,-3,0,0
1529287956201090,-4,0,4,1,0,-3,-2,-2
1529287956201090,-2,0,-1,1,2,-3,-2,-2
1529287956208067,0,-2,-2,0,4,-5,0,-1
1529287956208067,1,-1,-5,-1,-1,-2,-1,0
1529287956223249,-1,0,-3,-2,1,1,-2,-2
1529287956223249,-3,-1,-1,-4,0,2,-2,-3
1529287956230271,-1,-1,2,-1,1,2,3,-3
1529287956230271,0,2,1,-3,-4,-1,1,1
1529287956246256,2,-5,-1,-1,2,3,-6,0
1529287956246256,3,-4,1,-1,0,0,-4,-2
1529287956261321,-3,3,-1,-3,-1,-2,5,-3
1529287956261321,-3,3,-2,-2,-2,-2,0,-1
1529287956276375,-4,2,0,-2,-4,-3,-4,-1
1529287956276375,-2,-2,1,0,1,-4,-1,1
1529287956283163,-4,-3,1,0,-1,3,-4,-1
1529287956283163,3,-6,1,4,-2,-1,-3,-2
1529287956298654,0,1,-3,0,-1,-3,2,-2
1529287956298654,-5,2,-2,-3,-1,2,3,-1
1529287956313597,-5,-3,0,-3,-1,1,1,-1
1529287956313597,-1,-2,-2,-3,-2,-1,0,0
1529287956320728,0,1,-2,-5,1,-1,-2,3
1529287956320728,3,-1,-2,1,-3,-1,-1,-1
1529287956335869,2,-2,0,2,-2,-2,2,-2
1529287956335869,-3,1,-1,0,-1,-1,0,1
1529287956342669,-4,-2,-2,1,0,-4,1,0
1529287956342669,-5,-2,-1,-2,2,-1,-6,3
1529287956358700,1,-2,-1,-3,-4,-1,1,-2
1529287956358700,-2,0,-2,-2,0,-2,5,-3
1529287956372990,0,-3,-3,-1,2,2,0,-4
1529287956372990,-1,-1,-3,-1,1,1,-3,-3
1529287956380300,-1,1,-1,-1,0,1,-3,-2
1529287956380300,1,3,-4,-2,-1,1,0,0
1529287956395537,-3,1,-2,0,-4,0,1,0
1529287956395537,1,2,-4,0,-5,-3,-1,-2
1529287956402522,0,-2,1,-6,-3,-4,-3,1
1529287956402522,2,-4,4,-2,1,-1,-4,-2
1529287956418803,-5,0,-3,1,-4,-5,-1,-3
1529287956418803,-5,0,-1,0,-2,-3,-5,-3
1529287956433694,-2,-2,2,-1,5,-3,-1,0
1529287956433694,0,-3,0,0,6,0,3,-1
1529287956441050,5,3,-4,0,2,3,0,-3
1529287956441050,5,1,-5,-3,0,-1,-2,-2
1529287956455825,2,1,-4,-3,-5,-1,-1,-2
1529287956455825,-1,-2,-2,-2,-2,0,-7,-4
1529287956470783,1,-1,-2,-2,-5,0,-2,-1
1529287956470783,-1,-1,0,-1,-1,3,1,2
1529287956485743,-5,-3,-1,2,1,-5,1,-1
1529287956485743,-3,0,1,2,0,-3,2,-6
1529287956500705,-1,2,1,1,-2,0,-4,-3
1529287956500705,-2,-1,1,1,-1,5,-4,-1
1529287956508686,-6,-2,0,0,-1,2,-1,1
1529287956508686,-3,-4,0,-3,-1,0,-3,-4
1529287956523746,5,-1,-2,-2,-2,-3,-4,-5
1529287956523746,0,-2,-2,-2,-2,-6,3,1
1529287956537607,-3,1,-1,0,-1,-2,2,2
1529287956537607,-1,-4,-2,1,-3,0,-1,1
1529287956553561,3,-7,-1,-2,-1,-5,-6,0
1529287956553561,2,-2,0,-1,0,-3,-1,-3
1529287956560545,0,2,-3,0,0,2,0,-4
1529287956560545,-2,0,-1,-1,-1,-1,-5,-5
1529287956575826,-4,1,-2,0,2,4,-1,-1
1529287956575826,-2,3,0,-1,0,3,0,-1
1529287956583816,4,0,-1,-2,-2,-2,-2,1
1529287956583816,-1,-2,-4,0,-3,0,1,-1
1529287956597723,-1,-1,-1,-1,-5,-3,-1,2
1529287956597723,-1,1,-5,-1,-4,-4,-1,2
1529287956606026,-1,2,-3,-2,2,0,0,2
1529287956606026,-1,0,-1,0,-2,2,2,3
1529287956620661,-4,3,1,1,-1,-2,-2,0
1529287956620661,2,4,0,-3,-1,-6,0,-2
1529287956635787,1,-1,-5,0,-2,-3,-1,-3
1529287956635787,1,-3,-2,1,0,-1,0,-2
1529287956643701,-2,-9,0,-2,-1,0,-2,-3
1529287956643701,-3,-4,0,-3,-3,-2,0,1
1529287956657980,-4,-5,0,4,2,-3,1,1
1529287956657980,-1,-1,1,1,0,-3,-1,0
1529287956673327,1,1,-1,0,0,0,-1,-3
1529287956673327,3,-1,-3,0,-2,-1,-3,-4
