timestamp,emg1,emg2,emg3,emg4,emg5,emg6,emg7,emg8
1528269816887983,-2,0,-1,-1,-1,0,-2,-1
1528269816887983,0,-1,-2,-1,-2,-2,-2,0
1528269816890005,0,-1,-2,0,-1,-1,-3,-1
1528269816890005,-1,-1,-1,-2,-1,-1,-2,-1
1528269816892969,1,-2,-1,-1,0,0,-1,-1
1528269816892969,-1,-1,-2,0,-1,0,-1,-1
1528269816892969,0,-2,-1,-2,-1,-1,0,-2
1528269816892969,-1,-1,-1,-1,-2,0,-1,-1
1528269816900949,-1,-1,0,3,-1,-1,0,0
1528269816900949,-1,-2,0,-1,-1,-1,1,-1
1528269816908925,-1,0,0,0,-1,-1,-1,-1
1528269816908925,-2,1,-1,-2,-1,-1,0,-1
1528269816915915,-2,0,0,-2,-1,-2,-1,-1
1528269816915915,-2,2,-1,-2,1,-1,-1,-1
1528269816932908,-2,-1,-1,-1,-1,-2,-1,-2
1528269816932908,-1,-2,-1,0,-1,-2,0,0
1528269816937868,0,-1,-3,-1,0,1,0,-1
1528269816937868,-1,-1,-1,-1,-1,-1,-1,-2
1528269816962782,-1,-1,-1,-2,-1,0,-1,-1
1528269816962782,-3,0,-1,0,-1,-1,-3,-2
1528269816962782,-1,-1,-2,-2,-1,-2,0,-2
1528269816962782,0,-1,-1,-2,0,0,-1,-2
1528269816974748,-1,0,-1,0,0,-1,-1,-1
1528269816974748,0,-2,-2,0,-1,0,-1,-1
1528269817015639,-2,-1,-1,0,0,-1,1,-2
1528269817015639,-2,-1,-2,-3,-1,-1,0,0
1528269817016650,-1,-1,-1,0,-2,0,1,0
1528269817016650,0,0,0,-2,0,0,0,-1
1528269817017635,0,0,-1,-2,-1,-1,-1,1
1528269817017635,1,-1,-1,1,-1,-1,-2,-1
1528269817019629,-2,0,-2,-2,-1,-1,-2,-3
1528269817019629,-2,-2,-1,-1,-2,-1,-2,-1
1528269817035586,0,-1,-1,-2,-2,-1,-2,-2
1528269817035586,-1,0,-2,-2,0,-1,-1,-1
1528269817036583,0,-2,-3,-2,-2,-1,-1,-1
1528269817036583,0,-1,0,2,-2,-1,0,-1
1528269817043564,-2,-2,-1,-1,-1,-1,-1,0
1528269817043564,-1,-1,-2,1,-2,0,-1,-1
1528269817057528,-1,0,-2,0,0,-3,0,0
1528269817057528,-2,-3,0,-3,1,-1,-2,-2
1528269817073510,0,-2,-1,0,-1,0,-2,-2
1528269817073510,-1,-2,0,-1,-1,-2,0,-1
1528269817088471,-2,0,-1,-1,0,-1,-1,-2
1528269817088471,-2,0,-3,-1,-1,-1,0,0
1528269817090442,0,-2,-1,-1,0,-2,0,0
1528269817090442,-1,-1,-1,-2,-1,0,1,-1
1528269817102454,-2,-2,1,-2,-1,0,-2,-1
1528269817102454,0,-1,0,-1,-1,0,0,-1
1528269817111384,-2,-1,-3,-1,0,-1,-2,-2
1528269817111384,-2,-2,0,-2,-2,0,-1,-1
1528269817126385,1,-1,-1,-1,-1,-1,-1,-1
1528269817126385,-1,-2,-2,-1,-2,-1,-1,-1
1528269817128376,0,0,-1,-1,0,-1,-1,1
1528269817128376,1,-2,-1,0,-1,0,-1,-2
1528269817149321,0,0,-1,-1,-1,1,-3,-1
1528269817149321,0,0,-2,-1,-1,-2,-1,0
1528269817151312,-1,0,0,-1,-3,-1,0,-2
1528269817151312,-1,-1,-1,-1,-2,-1,-1,-2
1528269817163246,0,-1,-1,-2,0,-2,1,1
1528269817163246,-2,-1,-4,0,-1,0,-1,0
1528269817170253,-1,-1,-1,-1,-1,-1,-1,0
1528269817170253,-1,1,0,-1,0,0,-2,-1
1528269817194176,-2,-2,-2,-2,-1,-1,-1,-1
1528269817194176,-2,-1,0,-1,-2,-1,-1,-2
1528269817195161,0,0,-1,-2,0,0,-2,0
1528269817195161,-1,-1,-1,-1,-1,-3,1,0
1528269817209159,0,-1,-1,-1,-1,-1,-1,0
1528269817209159,-1,-2,-2,-1,-2,-2,-1,-1
1528269817210162,-1,-1,-2,-1,-2,-2,-1,-1
1528269817210162,0,-1,-2,-2,-1,-2,-2,-1
1528269817223125,-1,-2,-1,0,0,0,-2,-1
1528269817223125,-1,-2,0,-2,-1,-1,-2,-2
1528269817231117,-2,-1,0,0,-1,-1,0,-2
1528269817231117,-1,-1,-1,-1,-2,-2,-1,0
1528269817246023,-2,-1,-1,0,-2,-1,-1,0
1528269817246023,0,0,0,-2,-1,-1,-1,0
1528269817248018,-1,-2,-1,-1,-2,-1,-2,-2
1528269817248018,-2,-1,-2,-1,-1,-1,0,-1
1528269817268964,0,0,0,0,-1,-2,1,-1
1528269817268964,-2,0,-1,-1,-1,-2,0,0
1528269817269961,-1,-1,0,-1,-1,1,0,0
1528269817269961,0,-2,-2,-2,-1,-1,0,-1
1528269817282926,-1,-2,-1,0,-1,-1,-2,-2
1528269817282926,0,-1,-1,-1,-2,-1,-1,-1
1528269817289908,-1,-2,-3,0,-2,-1,0,-1
1528269817289908,-2,-1,-1,0,-1,0,-2,0
1528269817313882,0,-1,0,0,-2,0,-1,-1
1528269817313882,0,-1,-1,-1,0,-2,-1,-3
1528269817315875,-1,0,0,-1,-1,-1,-1,-2
1528269817315875,1,-1,-1,-1,0,-1,-2,-1
1528269817328803,0,-2,-1,-1,-2,-2,-2,0
1528269817328803,0,-1,-1,-1,2,-1,-1,-2
1528269817330798,-1,-3,-2,-1,0,-2,0,-1
1528269817330798,-3,-1,0,-2,-2,-1,-1,-2
1528269817342806,-2,-1,0,-1,1,-1,-1,-2
1528269817342806,-2,0,-1,0,0,-1,0,0
1528269817351742,-1,0,0,-1,-1,-1,-1,-1
1528269817351742,0,-2,-2,-1,-1,-2,0,-2
1528269817373682,-2,-1,-2,-2,-1,0,0,-2
1528269817373682,0,-1,-2,-2,-1,-1,-1,-1
1528269817375676,-1,-2,-1,0,0,-3,0,-1
1528269817375676,-1,-2,0,0,-1,-1,-2,0
1528269817388643,-1,0,-2,-3,0,-3,-1,-2
1528269817388643,-1,0,-1,-1,-1,-1,-2,-1
1528269817390638,0,-1,-1,-2,-1,-1,0,-2
1528269817390638,-2,0,0,0,-1,-3,-1,-2
1528269817402634,0,-3,-1,1,0,-1,0,-1
1528269817402634,-3,-2,-2,-3,-3,-2,-1,0
1528269817411581,0,0,-1,-1,-1,-1,0,-1
1528269817411581,0,0,0,0,-1,0,-1,-1
1528269817426787,1,-1,-3,0,-2,0,0,-1
1528269817426787,-1,-1,0,0,-1,-2,0,0
1528269817428731,-2,-1,-3,-2,-3,1,0,-2
1528269817428731,-1,-1,-2,-1,-1,-1,-2,0
1528269817449554,0,1,-2,-2,-1,-1,-3,0
1528269817449554,-2,-2,0,0,0,0,0,1
1528269817450478,1,0,0,-1,-2,0,-2,0
1528269817450478,-3,-2,-3,-2,1,-4,-3,-4
1528269817462494,2,0,-1,-1,0,2,2,4
1528269817462494,-2,-2,-3,-1,-3,-3,-2,-2
1528269817471422,-2,-1,-1,0,-1,0,-1,-1
1528269817471422,0,0,0,0,-1,1,-2,-1
1528269817486400,-3,-1,0,-1,-4,-2,-1,-1
1528269817486400,0,-1,0,0,1,1,-2,-2
1528269817487379,-1,-1,-1,-2,0,-2,-1,0
1528269817487379,0,-1,-2,0,0,-1,0,1
1528269817508324,-1,1,-2,-2,-1,-2,-1,-2
1528269817508324,-1,-1,-1,0,-1,0,0,1
1528269817510329,-2,-2,-2,-2,-2,0,-3,-2
1528269817510329,-2,-1,-1,0,-1,0,0,1
1528269817522286,-1,-2,-2,-2,-1,-1,-1,-2
1528269817522286,1,-1,-2,-2,-2,2,-2,-1
1528269817531280,0,-2,-1,0,0,-2,-1,-1
1528269817531280,-2,-1,-1,0,-1,-1,1,-1
1528269817546225,-1,0,0,0,1,0,-2,-2
1528269817546225,0,1,-1,-2,-2,-1,-1,-2
1528269817548216,0,-1,0,1,0,-2,0,-1
1528269817548216,2,-1,-2,-2,0,-1,-2,0
1528269817576143,-2,-1,-4,-3,-1,-1,-2,-1
1528269817576143,1,-2,-1,0,1,-3,-1,-1
1528269817578137,0,-1,-1,-2,-1,0,-2,-1
1528269817578137,-1,-1,0,-2,-2,-2,-1,-2
1528269817591120,-3,-2,0,-2,-2,0,-1,-1
1528269817591120,-3,-1,-1,-2,0,-3,-2,-1
1528269817593126,-2,-1,-2,-1,0,-1,-2,-1
1528269817593126,-1,-2,-1,-3,-2,0,-2,-2
1528269817606075,-1,-2,-1,0,-2,-1,-2,-1
1528269817606075,0,0,-1,0,-2,0,0,0
1528269817620025,0,-1,-1,-1,-2,-3,-3,0
1528269817620025,-3,-3,0,-1,-1,0,0,-1
1528269817629001,0,-1,-1,1,-1,0,-2,-2
1528269817629001,-3,-1,0,-3,0,-1,-1,-2
1528269817629998,-2,-2,0,0,-1,-1,1,-1
1528269817629998,-1,-1,-4,-5,-3,-2,-2,-1
1528269817643167,0,-1,0,-1,0,-1,-3,-1
1528269817643167,-1,-2,-2,-3,-4,-1,-1,-2
1528269817667896,0,-1,-1,-1,-1,1,0,0
1528269817667896,1,-1,1,0,1,-1,-2,-1
1528269817668893,-2,-1,1,0,-1,0,0,-2
1528269817668893,-1,-2,-1,0,0,-1,-2,0
1528269817672893,-1,-1,0,-2,-1,-1,0,0
1528269817672893,0,-1,-3,0,-2,-2,-1,-1
1528269817688841,0,0,-1,0,-2,-1,-1,-3
1528269817688841,-1,-2,-1,-1,0,0,-1,-2
1528269817690890,-1,0,-3,-3,-1,1,0,-1
1528269817690890,-1,0,1,1,-2,-1,1,1
1528269817711817,-2,-1,-1,-1,0,-2,-1,-1
1528269817711817,-1,0,-1,0,0,-1,-1,0
1528269817712812,-1,-2,-2,-2,-2,-2,-2,-2
1528269817712812,-1,0,1,-1,-2,-1,-1,0
1528269817725776,0,-2,-1,1,-1,0,0,-1
1528269817725776,-1,-1,0,-2,-3,-2,0,-1
1528269817732756,-1,-1,0,0,0,0,-1,-1
1528269817732756,0,-2,-1,-1,0,0,-1,-1
1528269817748719,-1,0,0,0,0,-1,-1,-2
1528269817748719,-2,0,0,-1,-2,-1,-1,0
1528269817750674,-2,-2,-1,0,-1,1,0,0
1528269817750674,1,-1,-1,0,-1,0,-1,-2
1528269817762676,-1,-2,-1,-3,-2,-2,-2,0
1528269817762676,0,-2,-2,-1,-1,-1,0,-1
1528269817771619,-2,-3,-1,-1,-2,-1,-1,-1
1528269817771619,-3,-3,-2,-4,-5,-5,-3,-5
1528269817785607,2,0,0,-1,1,0,0,2
1528269817785607,0,-2,-1,-1,-2,-1,-2,-1
1528269817792607,1,0,0,0,-2,-2,-1,0
1528269817792607,-1,-2,0,-1,1,2,-2,0
1528269817823479,-2,-1,-2,0,-1,-1,-2,-5
1528269817823479,-3,-1,0,-2,1,-1,-1,-2
1528269817825474,0,-2,0,-2,-3,-2,-2,-2
1528269817825474,0,0,0,-1,-3,0,1,0
1528269817831458,-1,-1,-1,0,-2,-2,1,-1
1528269817831458,-1,-1,-1,0,1,0,0,0
1528269817833452,-1,0,-2,-1,0,-3,0,-2
1528269817833452,0,1,1,-1,0,0,0,1
1528269817845420,-2,-2,-1,-3,-1,-1,1,0
1528269817845420,0,-1,0,0,-3,-1,-1,-2
1528269817860380,-2,-1,0,-2,0,-1,-1,0
1528269817860380,0,0,-1,1,0,-1,0,-1
1528269817868359,-2,-2,-1,-2,-2,-2,-1,0
1528269817868359,-3,-3,-4,-2,-2,-1,-4,-1
1528269817870367,-1,0,-1,-3,-3,0,-1,-3
1528269817870367,-1,-2,-2,1,1,-1,0,-1
1528269817891298,-1,0,0,-1,-2,-1,-1,1
1528269817891298,-1,0,0,-2,-1,-1,0,-3
1528269817893293,0,-1,-1,-2,-1,-1,-1,-1
1528269817893293,-1,-1,-2,-1,0,0,0,-1
1528269817905260,-1,-1,-1,1,-1,-2,0,-2
1528269817905260,1,-1,0,1,-1,-1,-1,1
1528269817912242,0,-1,-2,-1,0,-2,-3,0
1528269817912242,-2,0,0,-2,-1,-2,-2,0
1528269817929197,-2,-2,-2,-1,-1,-1,0,-1
1528269817929197,0,-1,-1,-1,0,-1,0,0
1528269817935181,0,-1,-2,-2,-1,-1,0,-3
1528269817935181,0,-3,0,0,-1,-2,-4,0
1528269817951143,0,-2,-1,-2,-1,-2,-2,-2
1528269817951143,-1,0,-1,0,-1,0,-2,-3
1528269817953133,-1,1,-1,0,-1,-1,0,0
1528269817953133,0,-3,-1,0,-1,-1,-2,0
1528269817965101,-1,0,-2,-3,0,-1,-2,-2
1528269817965101,-1,-2,0,-1,-1,-1,0,-1
1528269817990035,-2,-2,-1,1,1,-1,-1,-1
1528269817990035,-1,-1,-2,-2,0,-2,-1,0
1528269817991101,-1,-2,-1,-1,0,1,-1,-1
1528269817991101,-1,-1,-1,0,-4,-2,1,0
1528269817996375,-2,-2,-2,-3,-2,0,-1,-1
1528269817996375,0,0,0,0,-2,0,1,-1
1528269818027115,1,0,0,0,-1,-1,-1,-1
1528269818027115,0,-1,0,0,-1,1,-1,0
1528269818028007,-1,-1,-1,-1,-1,-2,0,-2
1528269818028007,-1,-2,-2,-1,-1,-1,-2,-2
1528269818033289,-1,-1,-2,-1,-2,0,0,0
1528269818033289,-1,-1,-2,0,0,-1,-2,0
1528269818035287,0,-1,0,-1,-2,-2,0,0
1528269818035287,-2,0,-1,-3,-1,-1,-2,-1
1528269818047288,-1,0,-1,1,-1,-1,-2,-1
1528269818047288,-2,-1,-1,-3,0,-2,-1,-1
1528269818064207,0,-2,-1,1,-1,-1,0,-1
1528269818064207,-4,-1,-3,-2,-2,-3,0,-3
1528269818072188,-2,-2,0,-3,1,-1,-1,0
1528269818072188,-3,0,-2,-1,0,-1,1,0
1528269818078198,-1,1,1,-2,0,0,0,-1
1528269818078198,1,-3,-2,0,0,-1,-1,-2
1528269818101107,-3,-1,0,-1,-3,-2,-1,-1
1528269818101107,1,-2,-1,0,-1,0,-1,-1
1528269818103107,-1,-1,-1,0,-1,-2,0,1
1528269818103107,-2,0,2,1,-2,0,0,-1
1528269818108093,-1,-3,-3,-1,2,-1,0,-1
1528269818108093,0,-1,-1,-2,-2,-3,-2,0
1528269818116333,0,-1,-2,0,-1,-1,-2,-1
1528269818116333,0,-1,-1,-3,-3,1,-1,0
1528269818131272,0,-3,0,-3,-1,-2,-1,0
1528269818131272,-1,0,-1,1,0,1,1,-2
1528269818145231,-1,-3,-3,-1,0,-2,-2,-1
1528269818145231,-2,-1,-2,-1,-1,-2,-2,-2
1528269818154231,-1,-1,-1,-1,-2,-4,-1,1
1528269818154231,-2,-1,-1,-1,1,-2,-1,-1
1528269818155979,0,-1,-2,-1,-3,-1,-3,-2
1528269818155979,-1,-1,-2,-2,-1,-1,-1,0
1528269818167931,0,-2,0,-1,-2,0,-1,-2
1528269818167931,-2,-2,-1,-2,2,0,-1,-1
1528269818184277,-2,-1,-2,-1,-1,-1,0,-1
1528269818184277,0,-2,-3,0,-3,-1,-3,0
1528269818190264,-1,1,-2,-1,-2,-1,-2,-2
1528269818190264,0,-1,0,-1,-4,-2,-2,-1
1528269818197810,-1,0,-1,-1,0,1,-1,-2
1528269818197810,-1,-1,0,-1,2,1,-1,0
1528269818213506,0,0,-1,-1,-2,-1,1,-2
1528269818213506,-1,-2,-1,-2,-2,-2,-2,-2
1528269818219524,-2,-1,0,-2,-3,-3,-1,-3
1528269818219524,-2,0,0,-1,-2,0,0,-1
1528269818227693,0,0,0,0,1,-2,-1,-2
1528269818227693,0,-1,-1,-1,-1,1,-1,-2
1528269818236455,0,-1,0,0,-2,-1,0,0
1528269818236455,-1,0,-1,-1,-2,-1,-2,-1
1528269818266659,-3,-1,-2,-1,-1,-1,-1,-1
1528269818266659,0,0,-2,-1,-3,0,-1,0
1528269818268358,-3,-3,-1,-1,1,-1,-1,-1
1528269818268358,0,-1,-1,-1,0,-2,0,-2
1528269818274506,-1,-1,-3,-1,-1,-1,-1,-1
1528269818274506,-2,-1,-1,-1,0,-2,0,0
1528269818275507,-1,-2,0,0,-1,0,-1,1
1528269818275507,1,-1,0,0,0,-2,0,-1
1528269818304547,-1,-2,0,-1,0,0,0,-2
1528269818304547,0,-1,-1,0,0,-2,-1,0
1528269818305438,0,0,0,-2,0,0,-1,0
1528269818305438,-2,-1,-1,-2,-3,-1,-1,-1
1528269818311424,0,0,0,-2,0,-2,-1,-1
1528269818311424,1,-2,-2,0,-2,0,0,0
1528269818313667,1,-1,-2,-2,-3,-3,0,-1
1528269818313667,-2,-1,-2,-2,-1,-1,-1,0
1528269818333641,-2,0,-1,0,-2,0,-2,-1
1528269818333641,-1,-1,-2,-2,-1,-1,-1,-4
1528269818335351,-2,0,-1,0,-1,0,-2,-1
1528269818335351,0,0,1,0,2,-1,-1,-2
1528269818356584,-1,-2,-2,-2,-2,0,-1,0
1528269818356584,-1,-1,-1,0,-2,-2,-2,-1
1528269818358284,-1,0,-1,-2,1,-1,-1,-2
1528269818358284,-1,-1,-1,0,1,-1,-1,-1
1528269818379502,0,-1,-2,0,-3,-1,-2,-2
1528269818379502,-1,-1,-1,-2,0,0,-2,-1
1528269818380226,-1,-1,-2,-1,-2,-2,0,-1
1528269818380226,0,-2,-2,1,-2,-3,-2,-1
1528269818394204,0,-2,-2,1,-2,-1,-1,-1
1528269818394204,-2,-1,-1,-1,1,1,-1,0
1528269818396185,-1,-2,-1,-1,2,1,-2,-1
1528269818396185,-1,0,-1,-2,-2,-1,1,0
1528269818424219,0,-1,-1,0,1,0,-1,0
1528269818424219,-1,-2,-1,-2,-3,-2,0,0
1528269818425375,0,0,0,-1,-2,0,-2,-1
1528269818425375,0,-1,-1,-1,-1,-2,0,-2
1528269818430093,-1,-1,1,-1,-1,-1,-1,0
1528269818430093,-1,-1,0,-1,-1,-1,0,-1
1528269818439069,-1,-2,-1,-1,-2,-1,1,-2
1528269818439069,-1,0,-1,-2,0,1,-1,-2
1528269818461669,0,-2,0,-1,0,-2,-3,-3
1528269818461669,0,-1,-1,0,-1,-1,0,-1
1528269818463309,0,0,-2,-1,-1,-2,-2,0
1528269818463309,-1,-1,-1,-1,-3,-1,0,0
1528269818484252,0,-2,-1,-1,-1,-3,0,0
1528269818484252,-1,0,0,-1,0,-1,0,-1
1528269818485294,0,0,-2,0,0,-1,0,-1
1528269818485294,-2,-2,-1,-2,-1,1,-3,0
1528269818499480,-1,-2,-2,-1,-1,1,-1,0
1528269818499480,-1,-1,0,-1,-1,-2,-2,-2
1528269818500454,-2,0,-1,-1,0,-2,-1,-1
1528269818500454,0,0,-1,0,0,-1,-3,0
1528269818513991,-2,0,-1,-3,-3,-2,-1,-2
1528269818513991,-1,-1,-1,-1,-2,-2,-2,0
1528269818515727,-1,-2,0,1,-2,0,0,0
1528269818515727,-2,-2,-2,-3,1,-2,-1,-2
1528269818544655,-2,-1,-3,-2,1,0,-1,0
1528269818544655,-1,-1,-1,-1,-1,-1,-1,-1
1528269818545646,-1,-1,-1,-2,-2,-1,-2,-1
1528269818545646,-3,1,0,-1,-3,-1,-1,-1
1528269818550775,-1,2,-1,0,-2,0,0,-2
1528269818550775,-1,0,0,0,-1,-1,-1,-2
1528269818557725,-2,-1,0,-1,-2,-1,-2,-1
1528269818557725,-2,-1,-1,-1,0,-1,-1,-2
1528269818582149,0,0,-2,-1,0,0,0,0
1528269818582149,0,-1,-1,-2,0,-2,-1,-2
1528269818583852,0,-2,-1,-1,-1,-1,-1,-2
1528269818583852,0,-2,-3,-2,0,-1,0,-2
1528269818595825,-1,-1,0,-1,-1,-3,-2,-1
1528269818595825,0,-3,-1,-2,-2,0,-3,-1
1528269818597815,-2,-1,-2,-2,-1,-1,0,0
1528269818597815,0,-2,-1,-1,-1,-1,0,-2
1528269818611035,0,0,0,0,0,-1,0,0
1528269818611035,-1,1,-1,0,0,-1,0,-1
1528269818618831,-2,-2,-2,-1,-1,-1,-1,-3
1528269818618831,2,-1,0,-1,-3,0,-1,0
1528269818633720,-2,-1,-1,-1,-2,-1,-2,-1
1528269818633720,-3,-1,-1,1,0,-3,-2,-1
1528269818641699,0,1,-2,-1,0,-2,0,-1
1528269818641699,-1,0,0,0,-1,-2,0,1
1528269818657052,-1,-1,-2,-1,-2,-1,-2,-3
1528269818657052,-2,-2,-3,-1,-1,1,-1,0
1528269818658067,-1,-1,-1,-1,-2,-1,-1,-3
1528269818658067,-2,-1,-1,-2,-1,1,-2,-1
1528269818671461,-1,0,0,0,0,0,-1,-3
1528269818671461,-1,1,0,-2,0,0,-1,0
1528269818677325,-2,-1,-1,-1,0,0,0,-1
1528269818677325,-1,-1,-1,-1,-2,-2,0,-1
1528269818701559,-1,-2,-2,0,-1,0,-1,0
1528269818701559,-1,-2,0,-1,-1,-1,0,-1
1528269818702893,-1,-1,-1,-1,-1,-1,0,-1
1528269818702893,-1,0,-1,-2,-3,-2,-2,-3
1528269818716788,-3,0,-1,0,-1,-1,-1,0
1528269818716788,-2,0,-1,-1,-1,0,0,-1
1528269818717524,0,-1,-1,-1,-2,0,-3,-2
1528269818717524,0,0,-1,0,0,0,-1,0
1528269818738459,-3,-1,0,-2,-2,-2,-1,-1
1528269818738459,0,0,1,0,-1,-1,0,1
1528269818740434,0,0,-2,-1,-1,-2,-3,1
1528269818740434,-1,-1,0,0,0,0,-1,-2
1528269818761599,-1,-1,-1,-3,-1,-1,-1,-2
1528269818761599,-1,0,-1,-2,-2,-1,1,-1
1528269818763618,-2,-1,0,-1,-2,-2,-1,-1
1528269818763618,-2,0,0,-1,-3,0,-1,-1
1528269818776579,1,-2,0,-1,-2,-1,-1,0
1528269818776579,-1,-1,-1,0,-1,-1,-1,-2
1528269818778333,-1,0,-1,-2,-2,0,-3,0
1528269818778333,-2,-1,-2,0,-1,-2,-2,0
1528269818789631,-1,-1,0,1,-2,-2,0,-1
1528269818789631,-1,-2,-2,-1,-1,0,-1,-2
1528269818799049,-1,-1,-2,0,0,-1,0,0
1528269818799049,0,-1,-2,-2,-1,1,-1,-1
1528269818814092,0,-2,-1,-2,-3,0,-1,1
1528269818814092,-2,-1,-3,-2,-2,-1,-2,-2
1528269818815815,0,-1,-1,0,-2,-1,0,-1
1528269818815815,-2,-1,-1,0,-2,-1,-1,0
1528269818835764,0,-1,-1,-1,0,-1,-2,-1
1528269818835764,-1,-1,-2,-1,-2,1,0,-1
1528269818843023,0,-1,0,-1,0,-1,-1,0
1528269818843023,-1,0,0,-2,-1,-1,0,0
1528269818859140,-1,-1,-2,-1,-2,-3,0,0
1528269818859140,-2,-1,-1,0,-3,-2,-1,-2
1528269818860697,-1,0,-1,0,0,-1,-1,-1
1528269818860697,0,-2,-3,0,-1,-2,-1,-2
1528269818872922,-2,0,0,-1,-1,-1,-2,-2
1528269818872922,-1,-1,0,-1,1,-1,0,0
1528269818881639,-2,0,-2,-2,-2,-3,-1,-1
1528269818881639,-3,-1,-2,-1,-1,-1,-2,0
1528269818896895,-3,-2,-1,-1,0,-1,0,-1
1528269818896895,-1,-1,-1,-1,-1,-1,-3,0
1528269818898724,-1,-2,-2,-1,0,-1,0,-1
1528269818898724,-1,-2,0,0,0,0,0,-1
1528269818910652,0,-1,-2,0,0,-1,-3,-2
1528269818910652,0,-1,-1,-2,-2,-3,-1,-1
1528269818919769,-1,-1,0,-1,-1,-1,-1,-2
1528269818919769,-1,-2,-2,-2,0,-2,-2,-4
1528269818933754,-1,-1,-1,0,0,-1,0,-2
1528269818933754,-2,-2,-1,0,-2,-1,-2,-2
1528269818941498,-1,-2,-1,-1,-2,0,-2,-1
1528269818941498,0,-1,-1,-1,-2,-1,0,-1
1528269818956080,-2,-1,-2,-1,1,1,-2,-1
1528269818956080,-1,-2,-1,-1,-3,-3,-2,-1
1528269818980912,-2,-1,0,-1,0,0,1,-1
1528269818980912,0,-2,0,-2,0,-1,-2,-1
1528269818981690,0,0,-1,-2,-3,-3,0,-2
1528269818981690,-2,-2,-1,-1,-2,-1,0,0
1528269818985703,-2,-2,-1,-1,-2,-1,0,-1
1528269818985703,-1,0,-1,-1,-2,0,-2,-1
1528269818993644,0,-2,-1,-2,-2,-2,0,0
1528269818993644,0,-2,-2,-2,-1,-1,0,-2
1528269818999628,-1,-2,-1,-1,-2,-1,-1,-1
1528269818999628,0,1,-1,0,-1,0,-1,0
1528269819016583,-1,-2,-1,-1,-2,1,-2,0
1528269819016583,0,-2,-1,0,-1,0,-2,-2
1528269819017581,-1,-1,-1,0,0,-2,-2,-1
1528269819017581,-1,-3,-1,0,-2,-2,0,-2
1528269819038524,0,0,-1,0,0,-1,-1,-1
1528269819038524,-1,1,-1,0,-1,0,0,-1
1528269819040519,-1,0,-2,-2,-2,-2,-1,-2
1528269819040519,-1,-2,-1,-1,0,-1,-1,-1
1528269819053521,-1,-1,-1,-1,0,-1,0,-2
1528269819053521,2,-1,-2,-1,-2,-2,0,-1
1528269819060465,1,-2,0,-1,0,-1,-1,0
1528269819060465,-2,-1,-2,-1,0,-2,-2,0
1528269819076422,-1,-2,-1,-1,-1,0,0,-1
1528269819076422,-1,0,-1,-1,0,-1,-2,0
1528269819078417,-1,0,-1,-2,-2,-2,-4,0
1528269819078417,-1,-1,0,-2,-1,-1,-1,-1
1528269819098364,0,0,-1,0,-1,-3,-2,-1
1528269819098364,-1,-1,-2,-1,-3,-1,-2,-2
1528269819100358,-1,0,-2,0,-2,-1,0,0
1528269819100358,-2,-1,-2,1,-2,-2,0,-2
1528269819113333,-2,-1,0,0,-1,-2,-2,-2
1528269819113333,-3,-1,-1,-1,-2,-3,0,0
1528269819122300,0,1,-1,-2,0,-1,0,-1
1528269819122300,-2,-2,-3,-2,-1,-1,0,1
1528269819135265,-1,-1,-1,-1,0,0,0,0
1528269819135265,0,-1,0,-1,-1,0,-1,-1
1528269819136268,1,-1,0,0,-1,-1,0,-2
1528269819136268,-1,0,-2,-1,0,-1,-1,0
1528269819158204,-1,0,-1,-1,-1,0,-1,-2
1528269819158204,-2,-1,-1,-1,-1,-1,0,1
1528269819159201,-1,-1,-1,0,-2,-1,0,-1
1528269819159201,0,-1,0,-2,-1,-1,-1,-1
1528269819174173,-1,-2,-2,-2,-3,0,-1,0
1528269819174173,-1,0,-1,-2,2,0,-1,-1
1528269819181143,-1,-2,-3,-1,0,0,-1,-2
1528269819181143,-3,-1,0,-1,-1,-3,-1,-1
1528269819196103,-1,-2,-1,-3,-2,-2,-1,0
1528269819196103,0,-1,0,0,0,0,-1,-1
1528269819196103,-1,-1,-1,-2,-4,-2,1,0
1528269819196103,-1,0,-1,-1,0,1,-1,-2
1528269819218045,-1,0,0,-1,-2,-2,0,-1
1528269819218045,0,-2,-2,-3,-1,1,-1,0
1528269819219042,-3,-2,-2,-2,-1,-1,-1,-2
1528269819219042,-1,-2,-1,-3,-1,-1,-1,0
1528269819232007,-2,-1,-2,0,-1,-1,-1,-3
1528269819232007,-3,-2,-1,0,-2,-3,0,-2
1528269819247964,0,-1,0,0,-2,0,-1,-1
1528269819247964,-2,-1,-1,-1,-1,-1,-2,-2
1528269819256952,0,-1,0,-3,0,0,-1,0
1528269819256952,1,-2,-2,-1,-1,-1,-1,-1
1528269819257939,-2,-1,-3,0,-3,-3,0,0
1528269819257939,0,0,0,0,-2,0,-1,0
1528269819277884,0,-1,-1,-1,0,-1,0,-1
1528269819277884,-1,-1,0,-1,1,-1,-2,-1
1528269819278882,-1,0,-1,-2,-1,-1,0,-1
1528269819278882,0,-2,-2,0,2,-1,-1,-1
1528269819293843,-1,-1,-2,-1,-1,-3,-1,1
1528269819293843,-2,0,0,-1,-3,0,-2,-1
1528269819300828,-1,0,0,0,0,-1,-2,0
1528269819300828,-2,-1,-2,-1,0,-1,0,-1
1528269819316025,-2,-1,1,2,0,2,-1,-1
1528269819316025,0,0,-2,-1,0,-1,-1,-1
1528269819317022,-1,-2,-1,-2,2,-1,-1,-1
1528269819317022,-1,-2,-1,0,-1,-2,-1,-1
1528269819338884,0,0,-2,-1,-3,0,-2,0
1528269819338884,0,0,-2,-1,-2,-3,-2,-2
1528269819338884,-2,-1,-3,0,0,-1,-3,-1
1528269819338884,0,-2,-2,-2,-2,-2,-1,-1
1528269819352930,-3,-1,-3,0,-1,-1,-2,-1
1528269819352930,-3,-1,0,-3,-2,1,1,-1
1528269819377734,0,0,-2,-1,-2,-1,0,-1
1528269819377734,0,-1,0,-1,-1,-1,-1,-2
1528269819378620,0,1,-1,-1,0,-1,0,-1
1528269819378620,-1,-1,-2,-1,0,-1,-1,-1
1528269819379613,-2,-2,-2,-1,-2,-1,0,-2
1528269819379613,-2,0,-1,-1,-3,-1,-2,0
1528269819398835,-1,-1,0,0,-1,-1,-1,-1
1528269819398835,-2,-1,0,0,-1,-3,0,-2
1528269819398835,0,-1,1,-1,0,-2,-1,-2
1528269819398835,0,0,0,-1,0,-1,-2,0
1528269819414529,-1,-2,-1,0,-1,-3,0,0
1528269819414529,-1,-1,-2,0,-2,-1,-3,-1
1528269819415517,-3,-2,-1,-1,-1,0,-2,0
1528269819415517,0,-1,0,-2,-2,0,0,-2
1528269819435467,-1,-2,-3,-2,0,-1,-1,-1
1528269819435467,-1,-1,-1,0,0,0,-2,-1
1528269819436461,-1,-2,-1,-1,-2,-2,-1,-1
1528269819436461,-1,-1,0,0,-1,0,0,-1
1528269819458405,-1,-2,0,-3,-1,-2,-1,0
1528269819458405,-2,-2,-2,-2,0,-3,-1,-2
1528269819459663,0,-2,-2,-1,-1,-1,-1,0
1528269819459663,0,-2,-2,-2,1,-1,-1,-1
1528269819481887,-2,-3,-1,1,-1,-2,-1,-1
1528269819481887,0,-1,-3,0,-3,-2,-1,-1
1528269819481887,-2,-2,-3,0,0,-1,-1,-1
1528269819481887,-1,0,-1,-2,-1,0,-1,-1
1528269819497844,0,1,-1,-2,-3,-2,0,0
1528269819497844,1,-2,0,1,-1,0,-1,-2
1528269819497844,-1,0,-2,-1,-1,0,0,-1
1528269819497844,-2,-1,-3,0,-3,-2,-1,0
1528269819535519,1,0,-1,-1,-1,0,-2,-1
1528269819535519,-1,0,0,-1,0,0,-1,-2
1528269819535519,-2,-1,-2,-2,0,-1,-2,0
1528269819535519,0,0,-2,-1,-1,0,-1,-3
1528269819537482,-1,-1,0,-1,-2,0,-1,-1
1528269819537482,-3,-1,-2,-2,-1,-1,-1,0
1528269819541386,-1,-2,1,-1,-1,0,-1,1
1528269819541386,0,-1,0,0,-2,-3,-3,-1
1528269819556543,0,-2,-3,0,-1,0,0,0
1528269819556543,-1,0,0,0,0,0,-1,2
1528269819557352,-2,0,-1,-2,-1,0,-3,-1
1528269819557352,-1,-2,-1,-1,-2,-1,-1,-2
1528269819578640,0,0,-1,0,-2,0,-2,-2
1528269819578640,0,-1,-1,1,-2,-1,-1,-2
1528269819579287,-1,-1,0,-2,-3,-1,-2,0
1528269819579287,0,-1,0,-2,-1,0,1,0
1528269819593619,-1,-3,-2,-2,1,0,0,-2
1528269819593619,-2,-3,-2,-1,0,-2,0,-1
1528269819594247,0,-1,-2,-1,-2,-1,0,-2
1528269819594247,-2,-1,-3,-2,0,-1,0,-1
1528269819615526,-2,-1,-1,-2,-1,-3,-2,-1
1528269819615526,0,-2,0,-1,0,-1,-1,-1
1528269819616522,0,-1,-1,-1,0,-2,0,-1
1528269819616522,-1,-2,-1,-1,0,-2,-2,-1
1528269819655309,0,0,-3,-1,-2,-1,-2,-2
1528269819655309,-1,0,-2,0,-2,0,0,0
1528269819656004,0,0,0,-1,1,-1,0,-1
1528269819656004,0,1,-1,0,-1,-2,0,1
1528269819658121,0,0,-2,-2,1,0,-1,0
1528269819658121,0,-3,-2,-1,-2,-1,-1,-2
1528269819660968,-1,-1,-2,0,-2,0,-1,-1
1528269819660968,-1,-1,-1,-1,-2,-1,0,-2
1528269819675931,0,-1,-1,-2,0,0,0,-2
1528269819675931,-2,0,-2,-4,-1,-2,-3,0
1528269819676929,-1,-1,-1,0,-1,-1,-1,-1
1528269819676929,0,-2,-1,0,0,1,-1,-1
1528269819699155,-1,-1,-3,-1,-2,-1,-2,0
1528269819699155,1,0,-2,-1,-2,-1,1,0
1528269819699912,-1,-2,-1,0,0,-1,-1,-2
1528269819699912,0,-1,-1,-1,0,0,-2,-1
1528269819713237,0,-3,-1,-1,-2,-2,-2,-2
1528269819713237,-1,0,-1,-1,0,0,-1,-2
1528269819728404,-1,0,-1,0,-1,0,-1,-2
1528269819728404,-1,-2,-1,-2,0,-1,-1,-1
1528269819735940,-2,-1,-1,-1,0,-1,-1,-2
1528269819735940,0,-1,-1,0,1,-1,-1,-1
1528269819736692,-1,-1,-2,0,0,-2,0,-1
1528269819736692,-2,-1,-2,-1,-2,-2,-2,-2
1528269819774828,-1,-2,0,-2,-1,-1,0,0
1528269819774828,0,-1,0,0,-1,-2,-1,-1
1528269819775824,-2,-1,-1,-1,0,-1,-2,-1
1528269819775824,-2,-3,-3,-2,-1,-1,-2,0
1528269819777819,-3,0,0,0,-1,0,-1,0
1528269819777819,-2,-1,0,-1,-3,0,0,1
1528269819781112,-1,-2,-3,0,-1,-1,-1,-1
1528269819781112,-1,0,-2,0,-2,-1,0,-2
1528269819796431,-1,-1,0,-1,0,-2,-1,-2
1528269819796431,-2,-2,-1,-3,-1,-1,0,-2
1528269819811497,0,-1,0,0,-1,0,-2,-1
1528269819811497,0,-1,-1,-1,-2,-1,0,-1
1528269819818020,-3,0,-2,1,0,-1,-1,1
1528269819818020,-2,-2,-2,-2,0,-1,-1,-1
1528269819819027,-2,-2,-2,-1,-1,-1,0,-1
1528269819819027,-1,1,-1,0,0,-2,0,-2
1528269819831979,-1,-1,0,0,-2,0,0,-2
1528269819831979,-1,0,-1,-1,0,-1,-1,-1
1528269819848992,-1,0,0,-1,-2,-2,-1,-1
1528269819848992,0,-2,-1,-2,-1,-1,-1,-1
1528269819856178,-1,0,-3,-2,-1,-1,0,-1
1528269819856178,0,1,-2,-2,0,0,-1,-2
1528269819856178,-1,0,-2,-1,0,0,-2,-2
1528269819856178,-3,-1,-1,0,-3,0,-1,0
1528269819878122,-1,-1,-1,0,1,-2,-1,-1
1528269819878122,-2,0,-1,0,-3,-2,-1,-1
1528269819886091,-1,-1,1,-3,-1,0,0,-1
1528269819886091,-1,-1,-3,-2,-1,-1,0,-1
1528269819886091,-1,-1,-3,-2,-1,-1,0,-1
1528269819886091,-1,-1,-3,-2,-1,-1,0,-1
1528269819886091,-1,-1,-3,-2,-1,-1,0,-1
1528269819886091,-1,-1,-3,-2,-1,-1,0,-1
1528269819886091,-1,-1,-3,-2,-1,-1,0,-1
1528269819886091,-1,-1,-3,-2,-1,-1,0,-1
1528269819886091,-1,-1,-3,-2,-1,-1,0,-1
1528269819886091,-1,-1,-3,-2,-1,-1,0,-1
1528269819886091,-1,-1,-3,-2,-1,-1,0,-1
1528269819886091,-1,-1,-3,-2,-1,-1,0,-1
1528269819886091,-1,-1,-3,-2,-1,-1,0,-1
1528269819886091,-1,-1,-3,-2,-1,-1,0,-1
1528269819886091,-1,-1,-3,-2,-1,-1,0,-1
1528269819886091,-1,-1,-3,-2,-1,-1,0,-1
1528269819886091,-1,-1,-3,-2,-1,-1,0,-1
1528269819886091,-1,-1,-3,-2,-1,-1,0,-1
1528269819886091,-1,-1,-3,-2,-1,-1,0,-1
1528269819886091,-1,-1,-3,-2,-1,-1,0,-1
1528269819886091,-1,-1,-3,-2,-1,-1,0,-1
1528269819886091,-1,-1,-3,-2,-1,-1,0,-1
1528269819886091,-1,-1,-3,-2,-1,-1,0,-1
1528269819886091,-1,-1,-3,-2,-1,-1,0,-1
1528269819886091,-1,-1,-3,-2,-1,-1,0,-1
1528269819886091,-1,-1,-3,-2,-1,-1,0,-1
1528269819886091,-1,-1,-3,-2,-1,-1,0,-1
1528269819886091,-1,-1,-3,-2,-1,-1,0,-1
1528269819886091,-1,-1,-3,-2,-1,-1,0,-1
1528269819886091,-1,-1,-3,-2,-1,-1,0,-1
1528269819886091,-1,-1,-3,-2,-1,-1,0,-1
1528269819886091,-1,-1,-3,-2,-1,-1,0,-1
1528269819886091,-1,-1,-3,-2,-1,-1,0,-1
1528269819886091,-1,-1,-3,-2,-1,-1,0,-1
1528269819886091,-1,-1,-3,-2,-1,-1,0,-1
1528269819886091,-1,-1,-3,-2,-1,-1,0,-1
1528269819886091,-1,-1,-3,-2,-1,-1,0,-1
1528269819886091,-1,-1,-3,-2,-1,-1,0,-1
1528269819886091,-1,-1,-3,-2,-1,-1,0,-1
1528269819886091,-1,-1,-3,-2,-1,-1,0,-1
1528269819886091,-1,-1,-3,-2,-1,-1,0,-1
1528269819886091,-1,-1,-3,-2,-1,-1,0,-1
1528269819886091,-1,-1,-3,-2,-1,-1,0,-1
1528269819886091,-1,-1,-3,-2,-1,-1,0,-1
1528269819886091,-1,-1,-3,-2,-1,-1,0,-1
1528269819886091,-1,-1,-3,-2,-1,-1,0,-1
1528269819886091,-1,-1,-3,-2,-1,-1,0,-1
1528269819886091,-1,-1,-3,-2,-1,-1,0,-1
1528269819886091,-1,-1,-3,-2,-1,-1,0,-1
1528269819886091,-1,-1,-3,-2,-1,-1,0,-1
1528269819886091,-1,-1,-3,-2,-1,-1,0,-1
1528269819886091,-1,-1,-3,-2,-1,-1,0,-1
1528269819886091,-1,-1,-3,-2,-1,-1,0,-1
1528269819886091,-1,-1,-3,-2,-1,-1,0,-1
1528269819886091,-1,-1,-3,-2,-1,-1,0,-1
1528269819886091,-1,-1,-3,-2,-1,-1,0,-1
1528269819886091,-1,-1,-3,-2,-1,-1,0,-1
1528269819886091,-1,-1,-3,-2,-1,-1,0,-1
1528269819886091,-1,-1,-3,-2,-1,-1,0,-1
1528269819886091,-1,-1,-3,-2,-1,-1,0,-1
1528269819886091,-1,-1,-3,-2,-1,-1,0,-1
1528269819886091,-1,-1,-3,-2,-1,-1,0,-1
1528269819886091,-1,-1,-3,-2,-1,-1,0,-1
1528269819886091,-1,-1,-3,-2,-1,-1,0,-1
1528269819886091,-1,-1,-3,-2,-1,-1,0,-1
1528269819886091,-1,-1,-3,-2,-1,-1,0,-1
1528269819886091,-1,-1,-3,-2,-1,-1,0,-1
1528269819886091,-1,-1,-3,-2,-1,-1,0,-1
1528269819886091,-1,-1,-3,-2,-1,-1,0,-1
1528269819886091,-1,-1,-3,-2,-1,-1,0,-1
1528269819886091,-1,-1,-3,-2,-1,-1,0,-1
1528269819886091,-1,-1,-3,-2,-1,-1,0,-1
1528269819886091,-1,-1,-3,-2,-1,-1,0,-1
1528269819886091,-1,-1,-3,-2,-1,-1,0,-1
1528269819886091,-1,-1,-3,-2,-1,-1,0,-1
1528269819886091,-1,-1,-3,-2,-1,-1,0,-1
1528269819886091,-1,-1,-3,-2,-1,-1,0,-1
1528269819886091,-1,-1,-3,-2,-1,-1,0,-1
1528269819886091,-1,-1,-3,-2,-1,-1,0,-1
1528269819886091,-1,-1,-3,-2,-1,-1,0,-1
1528269819886091,-1,-1,-3,-2,-1,-1,0,-1
1528269819886091,-1,-1,-3,-2,-1,-1,0,-1
1528269819886091,-1,-1,-3,-2,-1,-1,0,-1
1528269819886091,-1,-1,-3,-2,-1,-1,0,-1
1528269819886091,-1,-1,-3,-2,-1,-1,0,-1
1528269819886091,-1,-1,-3,-2,-1,-1,0,-1
1528269819886091,-1,-1,-3,-2,-1,-1,0,-1
1528269819886091,-1,-1,-3,-2,-1,-1,0,-1
1528269819886091,-1,-1,-3,-2,-1,-1,0,-1
1528269819886091,-1,-1,-3,-2,-1,-1,0,-1
1528269819886091,-1,-1,-3,-2,-1,-1,0,-1
1528269819886091,-1,-1,-3,-2,-1,-1,0,-1
1528269819886091,-1,-1,-3,-2,-1,-1,0,-1
1528269819886091,-1,-1,-3,-2,-1,-1,0,-1
1528269819886091,-1,-1,-3,-2,-1,-1,0,-1
1528269819886091,-1,-1,-3,-2,-1,-1,0,-1
1528269819886091,-1,-1,-3,-2,-1,-1,0,-1
1528269819886091,-1,-1,-3,-2,-1,-1,0,-1
1528269819886091,-1,-1,-3,-2,-1,-1,0,-1
1528269819886091,-1,-1,-3,-2,-1,-1,0,-1
1528269819886091,-1,-1,-3,-2,-1,-1,0,-1
1528269819886091,-1,-1,-3,-2,-1,-1,0,-1
1528269819886091,-1,-1,-3,-2,-1,-1,0,-1
1528269819886091,-1,-1,-3,-2,-1,-1,0,-1
1528269819886091,-1,-1,-3,-2,-1,-1,0,-1
1528269819886091,-1,-1,-3,-2,-1,-1,0,-1
1528269819886091,-1,-1,-3,-2,-1,-1,0,-1
1528269819886091,-1,-1,-3,-2,-1,-1,0,-1
1528269819886091,-1,-1,-3,-2,-1,-1,0,-1
1528269819886091,-1,-1,-3,-2,-1,-1,0,-1
1528269819886091,-1,-1,-3,-2,-1,-1,0,-1
1528269819886091,-1,-1,-3,-2,-1,-1,0,-1
1528269819886091,-1,-1,-3,-2,-1,-1,0,-1
1528269819886091,-1,-1,-3,-2,-1,-1,0,-1
1528269819886091,-1,-1,-3,-2,-1,-1,0,-1
1528269819886091,-1,-1,-3,-2,-1,-1,0,-1
1528269819886091,-1,-1,-3,-2,-1,-1,0,-1
1528269819886091,-1,-1,-3,-2,-1,-1,0,-1
1528269819886091,-1,-1,-3,-2,-1,-1,0,-1
1528269819886091,-1,-1,-3,-2,-1,-1,0,-1
1528269819886091,-1,-1,-3,-2,-1,-1,0,-1
1528269819886091,-1,-1,-3,-2,-1,-1,0,-1
1528269819886091,-1,-1,-3,-2,-1,-1,0,-1
1528269819886091,-1,-1,-3,-2,-1,-1,0,-1
1528269819886091,-1,-1,-3,-2,-1,-1,0,-1
1528269819886091,-1,-1,-3,-2,-1,-1,0,-1
1528269819886091,-1,-1,-3,-2,-1,-1,0,-1
1528269819886091,-1,-1,-3,-2,-1,-1,0,-1
1528269819886091,-1,-1,-3,-2,-1,-1,0,-1
1528269819886091,-1,-1,-3,-2,-1,-1,0,-1
1528269819886091,-1,-1,-3,-2,-1,-1,0,-1
1528269819886091,-1,-1,-3,-2,-1,-1,0,-1
1528269819886091,-1,-1,-3,-2,-1,-1,0,-1
1528269819886091,-1,-1,-3,-2,-1,-1,0,-1
1528269819886091,-1,-1,-3,-2,-1,-1,0,-1
1528269819886091,-1,-1,-3,-2,-1,-1,0,-1
1528269819886091,-1,-1,-3,-2,-1,-1,0,-1
1528269819886091,-1,-1,-3,-2,-1,-1,0,-1
1528269819886091,-1,-1,-3,-2,-1,-1,0,-1
1528269819886091,-1,-1,-3,-2,-1,-1,0,-1
1528269819886091,-1,-1,-3,-2,-1,-1,0,-1
1528269819886091,-1,-1,-3,-2,-1,-1,0,-1
1528269819886091,-1,-1,-3,-2,-1,-1,0,-1
1528269819886091,-1,-1,-3,-2,-1,-1,0,-1
1528269819886091,-1,-1,-3,-2,-1,-1,0,-1
1528269819886091,-1,-1,-3,-2,-1,-1,0,-1
1528269819886091,-1,-1,-3,-2,-1,-1,0,-1
1528269819886091,-1,-1,-3,-2,-1,-1,0,-1
1528269819886091,-1,-1,-3,-2,-1,-1,0,-1
1528269819886091,-1,-1,-3,-2,-1,-1,0,-1
1528269819886091,-1,-1,-3,-2,-1,-1,0,-1
1528269819886091,-1,-1,-3,-2,-1,-1,0,-1
1528269819886091,-1,-1,-3,-2,-1,-1,0,-1
1528269819886091,-1,-1,-3,-2,-1,-1,0,-1
1528269819886091,-1,-1,-3,-2,-1,-1,0,-1
1528269819886091,-1,-1,-3,-2,-1,-1,0,-1
1528269819886091,-1,-1,-3,-2,-1,-1,0,-1
1528269819886091,-1,-1,-3,-2,-1,-1,0,-1
1528269819886091,-1,-1,-3,-2,-1,-1,0,-1
1528269819886091,-1,-1,-3,-2,-1,-1,0,-1
1528269819886091,-1,-1,-3,-2,-1,-1,0,-1
1528269819886091,-1,-1,-3,-2,-1,-1,0,-1
1528269819886091,-1,-1,-3,-2,-1,-1,0,-1
1528269819886091,-1,-1,-3,-2,-1,-1,0,-1
1528269819886091,-1,-1,-3,-2,-1,-1,0,-1
1528269819886091,-1,-1,-3,-2,-1,-1,0,-1
1528269819886091,-1,-1,-3,-2,-1,-1,0,-1
1528269819886091,-1,-1,-3,-2,-1,-1,0,-1
1528269819886091,-1,-1,-3,-2,-1,-1,0,-1
1528269819886091,-1,-1,-3,-2,-1,-1,0,-1
1528269819886091,-1,-1,-3,-2,-1,-1,0,-1
1528269819886091,-1,-1,-3,-2,-1,-1,0,-1
1528269819886091,-1,-1,-3,-2,-1,-1,0,-1
1528269819886091,-1,-1,-3,-2,-1,-1,0,-1
1528269819886091,-1,-1,-3,-2,-1,-1,0,-1
1528269819886091,-1,-1,-3,-2,-1,-1,0,-1
1528269819886091,-1,-1,-3,-2,-1,-1,0,-1
1528269819886091,-1,-1,-3,-2,-1,-1,0,-1
1528269819886091,-1,-1,-3,-2,-1,-1,0,-1
1528269819886091,-1,-1,-3,-2,-1,-1,0,-1
1528269819886091,-1,-1,-3,-2,-1,-1,0,-1
1528269819886091,-1,-1,-3,-2,-1,-1,0,-1
1528269819886091,-1,-1,-3,-2,-1,-1,0,-1
1528269819886091,-1,-1,-3,-2,-1,-1,0,-1
1528269819886091,-1,-1,-3,-2,-1,-1,0,-1
1528269819886091,-1,-1,-3,-2,-1,-1,0,-1
1528269819886091,-1,-1,-3,-2,-1,-1,0,-1
1528269819886091,-1,-1,-3,-2,-1,-1,0,-1
1528269819886091,-1,-1,-3,-2,-1,-1,0,-1
1528269819886091,-1,-1,-3,-2,-1,-1,0,-1
1528269819886091,-1,-1,-3,-2,-1,-1,0,-1
1528269819886091,-1,-1,-3,-2,-1,-1,0,-1
1528269819886091,-1,-1,-3,-2,-1,-1,0,-1
1528269819886091,-1,-1,-3,-2,-1,-1,0,-1
1528269819886091,-1,-1,-3,-2,-1,-1,0,-1
1528269819886091,-1,-1,-3,-2,-1,-1,0,-1
1528269819886091,-1,-1,-3,-2,-1,-1,0,-1
1528269819886091,-1,-1,-3,-2,-1,-1,0,-1
1528269819886091,-1,-1,-3,-2,-1,-1,0,-1
1528269819886091,-1,-1,-3,-2,-1,-1,0,-1
1528269819886091,-1,-1,-3,-2,-1,-1,0,-1
1528269819886091,-1,-1,-3,-2,-1,-1,0,-1
1528269819886091,-1,-1,-3,-2,-1,-1,0,-1
1528269819886091,-1,-1,-3,-2,-1,-1,0,-1
1528269819886091,-1,-1,-3,-2,-1,-1,0,-1
1528269819886091,-1,-1,-3,-2,-1,-1,0,-1
1528269819886091,-1,-1,-3,-2,-1,-1,0,-1
1528269819886091,-1,-1,-3,-2,-1,-1,0,-1
1528269819886091,-1,-1,-3,-2,-1,-1,0,-1
1528269819886091,-1,-1,-3,-2,-1,-1,0,-1
1528269819886091,-1,-1,-3,-2,-1,-1,0,-1
1528269819886091,-1,-1,-3,-2,-1,-1,0,-1
1528269819886091,-1,-1,-3,-2,-1,-1,0,-1
1528269819886091,-1,-1,-3,-2,-1,-1,0,-1
1528269819886091,-1,-1,-3,-2,-1,-1,0,-1
1528269819886091,-1,-1,-3,-2,-1,-1,0,-1
1528269819886091,-1,-1,-3,-2,-1,-1,0,-1
1528269819886091,-1,-1,-3,-2,-1,-1,0,-1
1528269819886091,-1,-1,-3,-2,-1,-1,0,-1
1528269819886091,-1,-1,-3,-2,-1,-1,0,-1
1528269819886091,-1,-1,-3,-2,-1,-1,0,-1
1528269819886091,-1,-1,-3,-2,-1,-1,0,-1
