timestamp,emg1,emg2,emg3,emg4,emg5,emg6,emg7,emg8
1529308501065441,0,0,-1,-1,-2,-12,-2,-1
1529308501065441,1,0,0,0,0,4,-12,-2
1529308501076412,-1,0,-2,1,0,0,-5,-1
1529308501076412,0,-1,0,-1,-1,-2,-10,-3
1529308501080428,-1,-1,0,-2,0,4,13,1
1529308501080428,-2,-2,-1,-1,0,3,36,1
1529308501095360,-2,-3,0,-2,-1,1,-7,1
1529308501095360,-1,0,-1,0,0,0,6,0
1529308501106333,-1,0,-3,-1,-1,-2,-14,-2
1529308501106333,0,-1,0,0,1,-1,7,-1
1529308501118300,0,0,-1,1,0,1,0,0
1529308501118300,0,0,-1,0,-1,-2,-9,0
1529308501125280,0,0,0,-1,-1,3,8,1
1529308501125280,0,-1,-1,-1,-1,-3,-13,0
1529308501140241,0,0,-1,0,-1,-3,-2,-1
1529308501140241,1,0,0,0,-1,-2,-2,0
1529308501151212,0,-1,1,0,-1,-1,-8,0
1529308501151212,-2,-1,0,-1,-1,-4,-3,-1
1529308501162213,-1,-2,-2,-1,0,1,-20,-2
1529308501162213,-2,0,-1,-1,0,0,20,-1
1529308501170163,-1,-1,-1,0,0,-2,1,0
1529308501170163,0,0,1,-1,0,17,104,4
1529308501185130,-1,0,0,-1,0,-8,-31,-1
1529308501185130,-1,-1,0,0,-2,-2,7,0
1529308501193100,-1,0,-2,0,1,0,-7,-1
1529308501193100,-1,-2,-1,1,0,-1,-11,-1
1529308501208098,0,-1,-2,-2,-1,1,9,-3
1529308501208098,-2,0,-2,0,0,2,4,1
1529308501215042,2,0,0,-2,-2,0,-4,-2
1529308501215042,0,-2,-1,0,-2,-7,-29,-1
1529308501230002,-2,-2,-1,-1,-2,1,6,1
1529308501230002,-1,0,-1,0,0,-4,-32,-2
1529308501244961,1,0,-1,-1,0,-1,15,1
1529308501244961,-2,0,0,0,0,4,7,0
1529308501253938,-1,-1,0,-1,0,-2,2,-1
1529308501253938,0,0,-3,-1,-1,-6,-22,-2
1529308501267938,1,0,0,-1,0,-3,5,1
1529308501267938,0,0,0,1,-4,-2,-19,-2
1529308501274920,0,0,2,0,0,0,50,0
1529308501274920,0,-2,0,-2,0,3,-33,-4
1529308501289844,-2,-1,-1,1,0,0,-20,-2
1529308501289844,-1,-1,0,-2,0,-1,16,0
1529308501305798,-1,-1,-1,1,-2,-1,9,-2
1529308501305798,-1,-2,-2,-2,-1,0,-4,-1
1529308501312780,-2,1,-3,-1,2,0,4,0
1529308501312780,-1,0,1,-1,0,-3,3,-1
1529308501327767,-1,0,-1,-2,-1,2,-8,-2
1529308501327767,0,-1,0,0,-1,0,2,-3
1529308501334747,0,1,-1,1,-1,2,-7,-1
1529308501334747,-1,-1,-1,2,-1,-4,-6,0
1529308501364642,0,0,-2,0,-1,4,-2,-2
1529308501364642,-1,-1,-1,-1,0,2,-1,-3
1529308501372621,0,0,-1,0,-1,-4,0,0
1529308501372621,0,0,1,0,0,-1,-6,-1
1529308501380625,0,-1,-1,0,0,-1,5,1
1529308501380625,0,-2,0,-1,1,8,-14,-2
1529308501387606,0,0,-1,-1,0,-3,11,2
1529308501387606,-2,-1,-1,-1,1,2,61,0
1529308501395558,0,-1,-2,-3,-7,-21,-56,-5
1529308501395558,0,1,0,-1,-2,1,23,1
1529308501410550,0,-1,-1,-2,-5,-14,7,3
1529308501410550,-2,1,1,2,2,17,-5,-2
1529308501417500,-3,-2,0,1,3,1,9,0
1529308501417500,-2,-3,0,0,-2,-2,-2,0
1529308501440439,0,-1,-1,-1,-1,3,-5,-3
1529308501440439,2,-1,-1,-2,-2,-7,-12,1
1529308501447449,-1,0,-1,-2,-1,3,10,1
1529308501447449,-2,1,-1,-1,0,-5,-11,-2
1529308501455399,-1,-2,-1,0,1,5,0,-2
1529308501455399,-1,-3,-3,-1,-1,-4,-14,1
1529308501462380,0,1,0,1,0,5,2,-1
1529308501462380,1,2,-1,-1,-2,-3,9,2
1529308501477340,-2,0,1,0,0,2,-12,-3
1529308501477340,1,1,0,0,-2,-4,-6,-3
1529308501485319,2,0,-1,-1,2,11,63,1
1529308501485319,-3,1,-1,0,-1,-12,-44,-3
1529308501492306,-1,0,-1,-1,-1,-1,20,-1
1529308501492306,-1,-2,0,-2,-2,-9,-60,-3
1529308501500280,1,-1,0,-1,-1,5,19,3
1529308501500280,-2,-2,-2,0,0,0,9,-1
1529308501507288,-1,-2,0,0,0,3,-16,-3
1529308501507288,-1,2,-2,-2,0,0,12,3
1529308501515239,0,-1,-1,-2,-1,0,12,-1
1529308501515239,1,-2,-1,-1,-2,-8,-36,0
1529308501530198,-2,1,0,-1,-1,-7,-9,-1
1529308501530198,0,-2,-1,-2,0,1,15,3
1529308501537183,-2,-3,-1,1,-1,4,-20,-1
1529308501537183,0,-1,-1,-1,-1,3,14,-1
1529308501553137,-1,-1,-1,-2,2,11,-8,-1
1529308501553137,-1,1,-1,-1,-2,-4,12,0
1529308501560121,-1,2,2,0,0,-7,-26,-1
1529308501560121,0,0,0,1,1,5,27,1
1529308501575079,0,2,0,0,1,7,47,3
1529308501575079,-3,0,-2,-1,-3,-12,-73,-7
1529308501583085,-1,-1,-1,1,-1,-4,25,0
1529308501583085,0,0,-1,-1,-1,2,-23,-2
1529308501598068,1,-1,-1,-2,-2,-2,-15,-1
1529308501598068,1,-1,0,0,-1,-2,38,1
1529308501604998,-1,1,-1,-1,-1,-1,8,1
1529308501604998,-1,-2,0,0,-4,-4,3,0
1529308501627939,0,1,0,-1,-2,-3,-30,-3
1529308501627939,1,-2,0,0,2,5,26,2
1529308501634919,-2,-1,-1,0,-1,0,-7,1
1529308501634919,1,1,-1,2,-1,2,6,-3
1529308501642903,-1,0,-1,0,0,-2,-7,-1
1529308501642903,-2,-2,0,0,1,2,-1,2
1529308501657901,-1,-2,0,1,-2,-1,5,0
1529308501657901,-1,-3,-2,-2,-2,0,-4,-2
1529308501664839,-1,-1,-1,-1,-1,-2,-8,0
1529308501664839,-1,0,-1,1,-2,-3,8,0
1529308501672817,-1,0,-1,0,2,11,72,3
1529308501672817,-2,0,-2,-1,-2,-17,-61,-4
1529308501679851,-1,0,-2,-2,-1,-3,-5,-3
1529308501679851,0,0,0,-2,0,-2,1,-1
1529308501687778,-1,-2,-1,0,1,-4,-2,0
1529308501687778,-3,-2,1,-3,1,7,43,2
1529308501694805,0,-2,1,3,1,2,-6,-1
1529308501694805,-1,-3,0,-1,-1,-2,-4,1
1529308501709745,-1,0,-1,-1,-3,-3,-25,-2
1529308501709745,0,0,-1,0,1,7,-4,-4
1529308501717700,0,0,-1,-2,0,-9,18,1
1529308501717700,1,1,-1,-1,1,4,10,-4
1529308501732658,1,0,2,1,0,-2,-11,2
1529308501732658,0,-1,-1,0,0,0,4,0
1529308501739639,-2,-1,1,-1,-1,3,-4,0
1529308501739639,0,1,-1,0,0,-1,-5,1
1529308501747619,-1,1,-2,-2,-1,-5,-14,-2
1529308501747619,-1,-2,-1,0,-1,2,8,0
1529308501755598,0,-2,-1,-1,-1,0,-11,0
1529308501755598,-2,-2,-2,-1,0,6,70,5
1529308501770560,0,1,0,-1,-1,-3,-43,-2
1529308501770560,-1,-1,0,0,-2,3,12,-3
1529308501777537,-2,1,-2,-2,0,-2,-18,2
1529308501777537,-1,0,0,1,0,0,8,-1
1529308501792497,0,-1,-1,-1,0,1,5,0
1529308501792497,1,-1,-2,-1,0,1,-3,-1
1529308501800475,-1,0,0,0,1,4,-6,-2
1529308501800475,-1,-2,-1,-2,-3,-6,0,0
1529308501807457,1,-2,-4,-1,0,-1,-8,-2
1529308501807457,-2,-2,1,-1,1,6,19,0
1529308501815436,-1,-2,-1,-1,-2,-9,-12,0
1529308501815436,-1,-1,-1,1,3,19,-17,-2
1529308501830395,-2,2,-1,-1,-2,-2,-5,-2
1529308501830395,-1,1,0,-1,-2,-2,3,1
1529308501837377,-1,0,1,-1,-1,-1,3,-1
1529308501837377,0,1,1,0,-1,-8,-13,-1
1529308501852352,-1,1,0,1,1,-3,6,1
1529308501852352,0,1,-1,-1,-1,0,0,-1
1529308501861313,-1,-2,0,0,1,7,49,-1
1529308501861313,-1,-3,0,-1,-3,-21,-96,-6
1529308501867297,0,-3,0,0,-1,4,-19,0
1529308501867297,-1,-1,0,1,-1,-4,19,3
1529308501875312,1,-1,0,-2,0,-1,-4,-1
1529308501875312,-2,0,1,0,-1,2,49,3
1529308501890290,-3,0,-1,-1,-1,-3,-55,-4
1529308501890290,0,0,0,0,-3,-3,-13,-1
1529308501897255,0,-1,-2,-1,0,1,2,0
1529308501897255,2,0,0,-1,-1,3,5,-2
1529308501912177,-1,-3,-2,0,0,-1,16,1
1529308501912177,-1,0,-1,0,0,1,-14,-2
1529308501920157,-2,-1,-2,0,-1,-3,11,3
1529308501920157,0,-1,-1,-2,-1,-2,1,-2
1529308501927139,-2,0,-2,0,-2,-4,8,-3
1529308501927139,1,-2,0,0,2,5,3,0
1529308501935116,2,1,0,0,-1,0,-7,0
1529308501935116,0,1,-1,-1,-1,-2,-10,-1
1529308501950077,1,-1,1,0,-1,2,23,2
1529308501950077,-2,0,0,-1,1,3,25,0
1529308501958283,-2,-1,0,-1,0,-3,-7,-2
1529308501958283,-1,0,0,0,0,3,13,-3
1529308501973337,2,-2,0,-1,-1,-3,-14,0
1529308501973337,1,1,0,-1,-2,1,15,2
1529308501980540,-1,-2,0,1,-1,2,-1,0
1529308501980540,0,0,-1,2,-1,-4,-14,0
1529308501987810,0,-2,1,1,3,5,26,1
1529308501987810,-2,-3,0,-3,-4,-4,-14,2
1529308501995364,-2,-2,1,-1,-2,-4,-6,-2
1529308501995364,-2,0,0,-1,-1,-3,0,-2
1529308502010057,-1,0,-1,-3,-3,-1,3,-3
1529308502010057,0,-1,-1,-2,2,-2,-2,-1
1529308502018301,0,-1,1,0,-1,-2,-13,-3
1529308502018301,0,-3,-1,0,-2,0,5,1
1529308502033367,1,-3,-2,1,0,-1,3,-1
1529308502033367,-3,9,-1,-3,-7,-3,-14,-3
1529308502040351,0,0,1,1,7,4,6,1
1529308502040351,-2,0,1,-4,-6,-1,-1,-3
1529308502054920,-3,-6,-3,-4,-5,-3,2,-1
1529308502054920,-1,-5,-1,1,2,-3,-3,-1
1529308502063232,-17,-24,-11,-5,-3,1,-3,-1
1529308502063232,-2,7,12,2,3,0,2,-2
1529308502071016,25,21,-3,0,2,0,-2,2
1529308502071016,-2,-11,11,7,-2,-3,-2,0
1529308502078275,-2,-31,-32,-8,1,3,0,1
1529308502078275,-3,-8,-25,5,-4,-3,-4,2
1529308502092207,-7,43,56,-24,-1,4,6,1
1529308502092207,-1,5,-16,5,1,1,0,1
1529308502100542,5,14,29,14,8,0,0,0
1529308502100542,22,28,-16,-20,-13,-4,-1,0
1529308502115410,-6,7,-16,-1,-5,-5,-3,-3
1529308502115410,-6,-39,-6,-10,-7,-5,-3,-5
1529308502122161,-27,-45,-10,-3,3,2,-5,-3
1529308502122161,-9,-34,-13,0,1,0,2,2
1529308502130355,-9,13,-18,11,0,1,2,0
1529308502130355,31,38,31,5,12,1,0,2
1529308502138317,8,25,-3,-4,-11,-4,2,-1
1529308502138317,5,15,7,7,6,2,-1,2
1529308502153065,-8,-39,12,-2,1,-1,4,-2
1529308502153065,-21,-15,-16,-3,-1,-1,-5,-5
1529308502160602,-1,12,39,11,3,0,-1,-2
1529308502160602,-1,-6,-24,4,4,-1,-3,0
1529308502175875,-11,70,37,9,-6,3,2,2
1529308502175875,61,66,-9,-23,-10,-6,-4,-1
1529308502182917,0,-54,-10,5,-5,-3,-2,0
1529308502182917,-16,-23,-18,-7,14,7,3,-1
1529308502190278,-1,-87,-32,-2,-13,-9,-4,0
1529308502190278,-5,85,21,13,-2,-3,-1,2
1529308502198003,17,9,12,37,23,12,4,1
1529308502198003,-21,-14,28,-20,-2,-3,0,-4
1529308502212832,6,22,-20,5,-5,-1,-2,0
1529308502212832,-11,-43,-12,-27,-15,-9,-2,-1
1529308502220518,-3,11,-10,-5,-7,-3,1,1
1529308502220518,2,-23,6,-2,-17,-2,1,0
1529308502235460,2,0,2,-1,19,5,1,-3
1529308502235460,-7,-11,-5,-18,-20,0,0,2
1529308502242443,-6,12,-7,21,14,-2,-1,-3
1529308502242443,2,-1,14,13,26,7,5,1
1529308502250790,-4,-14,-16,-5,-10,-12,-6,-7
1529308502250790,7,2,-8,-4,2,2,3,2
1529308502257701,8,-9,-2,-8,2,0,1,2
1529308502257701,14,63,10,-6,-22,-3,-2,-1
1529308502280575,-8,-21,-2,-10,0,-3,-2,2
1529308502280575,-17,-56,-22,3,9,1,1,-2
1529308502288384,7,68,31,-16,-23,-4,-2,-2
1529308502288384,-4,-2,8,32,4,-7,-5,-1
1529308502303063,-8,-78,-18,4,5,3,0,-2
1529308502303063,-2,43,12,-3,-14,-6,-1,-1
1529308502318345,13,2,13,14,18,-2,-1,2
1529308502318345,-3,2,-25,1,-6,1,2,-1
1529308502325007,1,-14,-6,-10,28,4,2,-1
1529308502325007,-3,-18,-11,-33,-35,0,-2,1
1529308502333207,-5,9,1,-22,-29,-10,-5,-1
1529308502333207,-1,2,22,-27,1,1,-2,-1
1529308502348395,2,-3,-19,5,5,-1,-1,-1
1529308502348395,-7,-10,4,27,25,6,2,0
1529308502354926,-1,10,-17,2,-9,-3,-3,1
1529308502354926,2,-18,25,37,-1,3,-3,1
1529308502378105,-2,-6,22,22,-6,-2,-1,-3
1529308502378105,6,2,-17,-28,-10,-2,0,1
1529308502385177,5,18,11,26,-4,2,0,1
1529308502385177,-5,-13,-2,17,18,4,2,1
1529308502392448,-4,-15,-24,-24,-3,3,0,-1
1529308502392448,2,1,0,2,12,-1,-1,0
1529308502401004,0,22,12,25,15,4,-1,2
1529308502401004,-2,-19,-10,-5,-9,-4,-4,-2
1529308502408275,0,4,5,-3,3,-5,-3,0
1529308502408275,-3,-5,-14,3,-12,-6,-3,-5
1529308502430110,-6,2,-10,-11,5,-3,-4,-5
1529308502430110,1,1,2,0,20,3,3,4
1529308502438131,2,-1,0,-13,-15,-4,-3,-1
1529308502438131,-5,-3,2,6,-9,-2,-1,-1
1529308502453092,0,-5,-16,-25,-27,-7,-1,2
1529308502453092,0,-1,0,-2,10,-2,-2,0
1529308502460269,2,2,4,-14,4,-2,1,0
1529308502460269,-4,3,5,43,6,-2,-1,-2
1529308502474990,2,6,4,4,-2,3,0,1
1529308502474990,-4,-9,3,9,-1,-1,-4,-2
1529308502490706,1,1,-6,20,-3,0,4,4
1529308502490706,0,-2,2,18,8,7,4,0
1529308502505831,2,4,-3,-19,-2,0,0,-2
1529308502505831,2,2,6,5,-6,4,27,2
1529308502512924,-4,-2,-2,-25,-1,-7,-25,-4
1529308502512924,-3,-7,-3,-3,0,-6,-11,-4
1529308502527885,0,4,-2,19,-3,-5,-5,1
1529308502527885,0,0,3,0,15,1,1,-1
1529308502535603,0,1,-1,-4,0,-1,6,0
1529308502535603,-2,-2,0,7,6,2,-2,-1
1529308502550567,2,7,7,-10,-15,-5,0,-2
1529308502550567,1,-2,0,1,-2,2,4,1
1529308502565968,-2,-3,-5,0,7,2,2,0
1529308502565968,-2,-4,0,7,-2,-5,6,1
1529308502573554,1,-1,-1,11,7,2,7,-1
1529308502573554,3,3,-2,-16,-3,-3,-15,-2
1529308502588224,-1,-4,2,1,0,2,1,-1
1529308502588224,0,-1,-2,6,-2,-5,-32,-9
1529308502595969,-10,0,-1,6,3,-1,1,1
1529308502595969,-3,1,1,-13,-11,4,34,-4
1529308502610160,1,-4,-4,4,6,2,8,-2
1529308502610160,-2,0,4,14,11,-4,-6,0
1529308502625321,-2,1,2,-20,-12,3,8,-2
1529308502625321,2,-4,-4,16,-1,-2,0,0
1529308502632150,-2,-3,2,-3,0,-1,-3,1
1529308502632150,3,2,0,-2,1,-1,2,4
1529308502648439,1,1,2,14,9,0,-3,-2
1529308502648439,-4,-1,2,1,-2,1,-1,-1
1529308502655124,-1,0,-5,-13,-4,-2,1,-2
1529308502655124,-1,-3,-2,19,11,-2,-6,1
1529308502670046,1,0,1,-9,-1,5,-1,0
1529308502670046,1,-4,-5,-3,-10,-5,-2,-2
1529308502685358,-1,-4,-3,7,7,2,1,0
1529308502685358,-1,3,1,-3,-7,0,25,1
1529308502693497,1,0,1,-5,0,-6,-31,-5
1529308502693497,-4,-1,-1,3,3,2,-6,-1
1529308502707343,0,1,0,3,9,4,-1,0
1529308502707343,0,-4,-6,-12,-7,5,-10,0
1529308502715321,0,-4,-2,11,-3,3,21,0
1529308502715321,0,-3,-7,-10,0,3,-2,0
1529308502730575,2,2,5,-5,-5,-5,-6,-3
1529308502730575,-1,-5,-7,-21,-22,-2,-4,-2
1529308502745480,-2,-2,-5,1,0,1,2,0
1529308502745480,0,-6,0,3,7,1,-4,-2
1529308502753218,0,0,3,5,6,-1,-1,0
1529308502753218,1,4,5,-2,-4,-7,5,0
1529308502767443,-2,-1,-2,8,-2,-3,-3,-1
1529308502767443,-2,-4,1,10,3,0,-3,0
1529308502775159,-3,-3,0,0,-12,-8,1,1
1529308502775159,0,1,-1,-4,-3,-2,-2,-2
1529308502790374,-1,2,5,10,10,4,8,4
1529308502790374,0,3,-1,2,-8,-3,-3,1
1529308502805699,-5,-2,-1,17,17,0,-2,-2
1529308502805699,-1,-4,-4,-31,-12,-3,1,-1
1529308502813367,-1,0,-1,7,-5,-4,-3,1
1529308502813367,-2,-2,-1,-2,6,-1,-1,1
1529308502835641,2,2,-1,-17,-7,1,-6,-3
1529308502835641,1,1,3,13,13,2,-3,-1
1529308502850413,0,0,-4,1,10,-1,-1,-1
1529308502850413,-1,-2,-2,-5,-18,-6,3,-1
1529308502858200,1,2,3,6,7,3,4,1
1529308502858200,-2,-3,0,1,5,0,-7,-5
1529308502873277,-3,-3,-7,3,-2,-17,-42,-5
1529308502873277,0,-3,1,18,5,0,2,2
1529308502888220,0,-1,-1,-9,-5,8,11,0
1529308502888220,-2,0,-1,-34,-14,-2,3,-1
1529308502902917,1,0,2,26,-5,-8,-8,-2
1529308502902917,-2,-7,-7,2,11,2,21,1
1529308502910902,0,3,0,-13,0,1,-14,-2
1529308502910902,0,-4,-12,-24,2,-3,-5,-2
1529308502925894,0,2,-1,-3,-4,-6,2,2
1529308502925894,0,-1,1,-6,-3,0,-1,-1
1529308502932838,1,-2,-1,24,9,0,12,2
1529308502932838,1,1,4,6,1,11,11,0
1529308502947803,0,-3,-10,-30,4,8,6,-1
1529308502947803,1,2,3,10,-18,-6,-6,1
1529308502962757,-2,-2,-1,-17,10,4,1,0
1529308502962757,-2,1,-9,-12,-8,-4,-9,-1
1529308502969738,1,-1,3,3,-1,-1,6,0
1529308502969738,-2,-3,-1,7,12,6,6,0
1529308502984754,0,1,1,14,-1,4,-5,-1
1529308502984754,0,-2,1,-12,-4,-12,-19,-4
1529308502992739,1,0,-2,2,6,-5,16,0
1529308502992739,-1,-1,0,5,-7,7,1,2
1529308503007692,-2,-1,-1,3,-3,2,-1,-2
1529308503007692,0,3,5,18,13,11,-3,-2
1529308503022653,0,-2,-7,-18,2,6,7,1
1529308503022653,3,2,3,-36,-13,0,8,1
1529308503030615,-2,-5,-3,12,-1,-20,-5,-3
1529308503030615,0,-1,-4,-8,4,-3,1,0
1529308503045590,0,0,3,33,7,0,-10,-2
1529308503045590,-2,-2,-3,12,0,3,1,0
1529308503052517,-2,0,5,10,-20,1,-3,-1
1529308503052517,-1,1,-4,4,17,-11,-1,0
1529308503067529,-1,1,-1,8,1,3,7,-1
1529308503067529,1,2,9,9,16,4,5,2
1529308503082491,2,0,1,-1,-17,-1,-8,0
1529308503082491,-2,-2,-3,-3,-3,-10,3,0
1529308503090470,-3,-2,-9,-43,-3,16,-2,1
1529308503090470,0,-1,-3,13,-10,-28,-1,0
1529308503112412,-1,2,9,-22,4,-8,-8,-3
1529308503112412,1,-1,-6,29,3,7,4,1
1529308503120390,1,-1,-5,11,9,11,2,-1
1529308503120390,1,-2,6,14,1,1,-1,0
1529308503135299,-2,-3,-23,-18,0,2,1,-1
1529308503135299,-3,-7,-4,-20,-5,-7,-1,-4
1529308503142333,1,10,57,6,0,-6,1,2
1529308503142333,-1,-1,-10,-6,-1,6,1,-1
1529308503157289,1,-2,-12,15,4,-3,1,-3
1529308503157289,-1,-2,0,-4,-5,-1,-3,-1
1529308503180177,-2,-5,-7,3,0,-2,-1,0
1529308503180177,-2,-2,-4,-15,-6,-1,-1,-1
1529308503195137,1,0,-4,-1,-8,2,-2,-2
1529308503195137,-2,0,7,5,2,1,2,0
1529308503203126,-4,-3,-38,-26,-5,-6,-1,-2
1529308503203126,-2,-2,31,21,0,4,0,1
1529308503218130,2,4,-4,-5,-3,1,-1,2
1529308503218130,1,1,-15,-16,-4,-5,-1,1
1529308503240016,-1,-4,-15,3,2,6,-2,-1
1529308503240016,0,2,4,-3,-3,7,-2,-4
1529308503254976,2,1,12,9,2,8,2,4
1529308503254976,1,-1,-6,-4,2,9,2,1
1529308503262954,-1,1,10,5,-2,5,0,0
1529308503262954,-1,-1,-1,6,4,-5,0,0
1529308503278174,1,0,6,14,7,-16,-2,-1
1529308503278174,-2,-4,-12,-28,-17,-14,-6,-3
1529308503293362,-2,-1,-5,0,-3,-13,-6,-4
1529308503293362,-2,-2,-6,-6,6,3,7,3
1529308503315345,1,7,11,1,-9,-8,0,0
1529308503315345,-1,-1,1,0,16,0,0,-1
1529308503322741,0,-5,-1,8,2,-1,1,0
1529308503322741,0,-1,-7,-17,-11,-8,-4,-4
1529308503338485,6,6,5,1,3,3,2,2
1529308503338485,-3,0,-5,6,13,1,-5,-3
1529308503353105,-1,-5,-3,-7,4,0,-2,-1
1529308503353105,-1,0,1,0,-12,6,1,-1
1529308503360079,-5,-6,-6,15,-1,2,0,0
1529308503360079,3,5,3,-30,-8,0,0,1
1529308503368060,-2,-2,-3,-8,-2,-3,-2,-1
1529308503368060,0,-4,-2,-15,-6,-6,-5,-1
1529308503375289,2,1,1,-34,-5,2,-2,0
1529308503375289,-4,-8,-2,34,0,8,5,1
1529308503390000,1,6,9,-14,-10,-6,-3,0
1529308503390000,-2,0,-1,-15,-17,3,1,1
1529308503405439,-3,-4,-2,11,27,5,2,-1
1529308503405439,-6,-5,-1,9,5,-1,-2,-2
1529308503413277,0,-3,2,-1,1,-1,0,-1
1529308503413277,7,5,2,9,3,-4,-3,-2
1529308503428155,-2,0,3,9,-9,-2,0,1
1529308503428155,1,1,-2,-11,-6,0,-8,-1
1529308503434956,-4,-3,-5,3,2,0,52,1
1529308503434956,-2,-1,-2,3,1,4,-19,0
1529308503450420,-5,-6,-4,2,3,10,-5,3
1529308503450420,-1,-2,1,4,5,-5,50,-1
1529308503465480,-1,-3,-2,-1,-3,16,44,-1
1529308503465480,-2,-2,-3,-7,-9,-31,-73,1
1529308503473489,4,5,3,2,-4,-28,54,-1
1529308503473489,-2,0,-2,-8,-2,7,-56,-12
1529308503487673,-2,-3,-4,-8,-4,-28,-5,15
1529308503487673,2,3,4,11,3,47,127,-17
1529308503495637,-8,-7,-4,-14,-6,3,-8,-1
1529308503495637,-14,0,0,0,1,-16,-59,-4
1529308503510609,2,1,-3,2,0,4,-9,-11
1529308503510609,-3,-3,-2,-1,-2,-36,-43,24
1529308503525560,3,4,5,2,0,26,73,25
1529308503525560,-2,1,3,7,4,0,-92,-8
1529308503533371,-12,-4,-3,-11,0,14,-27,-16
1529308503533371,17,1,-1,-2,-4,-15,-24,-31
1529308503548434,-2,1,1,3,3,26,24,-9
1529308503548434,4,-2,1,5,1,-4,38,28
1529308503555417,-2,-1,1,9,2,0,-23,6
1529308503555417,-1,1,1,1,1,28,59,15
1529308503570640,3,-1,-4,-6,-7,-5,-38,4
1529308503570640,-3,-2,3,0,-4,-7,28,1
1529308503585363,-2,-1,2,3,5,-3,-65,-9
1529308503585363,-5,-2,-4,-10,-6,5,-13,1
1529308503592861,4,1,3,5,1,10,31,1
1529308503592861,4,1,1,7,2,8,7,11
1529308503607923,-7,0,-1,-3,1,-3,-27,-13
1529308503607923,-3,1,1,-3,-4,0,9,-1
1529308503615878,1,2,1,3,-2,-29,18,3
1529308503615878,-1,0,-1,0,6,11,-17,-9
1529308503630873,1,3,2,4,8,21,32,8
1529308503630873,-2,-4,-3,-4,-8,-24,-8,-3
1529308503645857,-4,-4,-7,-4,-3,-2,2,-11
1529308503645857,1,0,-2,-1,-3,-21,-25,-1
1529308503652759,2,-1,1,2,-1,11,25,13
1529308503652759,5,2,2,3,3,12,14,-5
1529308503667750,3,-1,-2,0,4,12,-39,-3
1529308503667750,2,-2,-1,-1,-1,17,25,2
1529308503674699,-1,-2,-4,-3,-2,-1,-41,-4
1529308503674699,0,0,-3,-2,1,11,67,5
1529308503690420,1,3,3,1,1,3,-10,-3
1529308503690420,-1,1,-1,1,-3,-14,-1,-2
1529308503705888,-2,0,-1,-2,1,6,-29,-3
1529308503705888,-1,-2,-2,-4,11,-19,67,7
1529308503713219,-1,-2,-1,0,-11,9,-27,-6
1529308503713219,-2,-1,-2,-1,-2,5,9,-3
1529308503727877,1,-1,-1,-2,0,0,-16,-1
1529308503727877,1,0,-1,-5,-41,2,-30,-2
1529308503734977,-3,-3,-3,3,45,-13,-1,-1
1529308503734977,-2,1,-1,1,1,4,20,1
1529308503750866,-1,1,-1,0,-10,-6,-58,-7
1529308503750866,-1,-3,-2,-2,1,11,2,12
1529308503765867,-1,-1,0,-1,5,0,18,-5
1529308503765867,0,-1,-3,1,3,-18,-16,2
1529308503772787,0,0,1,0,-8,2,2,-7
1529308503772787,-1,-1,-1,-1,7,19,16,-2
1529308503788028,-1,0,0,-1,-8,-22,-109,-5
1529308503788028,-2,1,0,-1,4,1,4,3
1529308503794780,2,1,0,-2,-6,-3,-6,0
1529308503794780,3,-2,1,2,-2,-2,-10,2
1529308503810282,0,0,-1,0,-2,-3,23,2
1529308503810282,-1,0,-1,-1,-7,-20,1,-1
1529308503825475,-2,-2,-2,-3,-3,-16,-7,-2
1529308503825475,0,-2,-3,-2,3,15,-9,-3
1529308503832719,1,2,0,-1,-8,0,22,2
1529308503832719,0,1,1,0,1,0,3,-3
1529308503848230,-1,-2,-1,-1,-2,-1,9,3
1529308503848230,-1,-2,-1,0,0,0,-24,-1
1529308503855198,1,-2,0,-2,-5,-3,97,6
1529308503855198,-1,0,0,-3,0,3,-36,-5
1529308503870532,-3,-2,2,0,-1,9,-5,-6
1529308503870532,0,-2,-2,-2,3,4,5,1
1529308503885458,1,2,0,0,-3,3,9,-1
1529308503885458,-1,0,1,-1,4,4,37,2
1529308503892439,-2,-2,-3,0,-2,-8,-76,-2
1529308503892439,-1,-2,-2,-1,-4,-2,8,-5
1529308503908446,-1,-2,0,-1,-2,1,-8,0
1529308503908446,1,0,1,1,1,4,-2,-1
1529308503915801,-1,2,-1,0,0,-5,-2,-1
1529308503915801,1,-2,0,-1,1,10,58,4
1529308503930649,0,0,-1,0,0,2,-5,-2
1529308503930649,-2,-2,-1,0,-3,-7,-4,-2
1529308503945592,0,0,0,-1,-1,2,14,3
1529308503945592,-2,-2,-1,-1,-1,0,12,-1
1529308503952250,-2,-1,0,-1,1,2,-5,0
1529308503952250,-1,0,-1,-1,1,-2,-8,0
1529308503968319,0,1,-1,0,-1,-14,-15,1
1529308503968319,0,-1,-1,-2,3,11,-71,-11
1529308503975078,-1,0,1,2,0,-1,8,-1
1529308503975078,-1,0,-2,-1,-4,-11,-19,-10
