timestamp,emg1,emg2,emg3,emg4,emg5,emg6,emg7,emg8
1529304453106477,2,-5,-3,12,5,0,0,1
1529304453106477,-3,-13,-21,-13,-7,-2,-4,-4
1529304453121436,-5,-14,-18,-23,-14,-5,-2,-2
1529304453121436,-2,5,6,11,15,2,-1,-1
1529304453129414,0,-2,-4,-7,-12,-3,0,-1
1529304453129414,-1,-6,-17,-3,-1,-2,0,-1
1529304453144374,-3,-1,16,4,4,0,0,0
1529304453144374,-3,0,-11,-12,-15,-2,-1,-2
1529304453152352,-2,8,19,11,3,2,1,-1
1529304453152352,0,9,20,4,4,-1,-1,-1
1529304453167313,-1,4,14,-7,1,-1,0,0
1529304453167313,9,33,54,17,-2,-1,1,1
1529304453182272,2,9,5,15,7,0,1,2
1529304453182272,-1,0,9,12,9,-2,0,-2
1529304453189254,-6,-15,-36,-14,-6,-1,-1,1
1529304453189254,-5,-20,-26,-19,-14,-3,-3,-1
1529304453204214,-2,-5,-9,-6,-4,-1,-2,-1
1529304453204214,1,0,3,-2,-9,1,0,1
1529304453212192,-5,-8,-13,2,4,-2,-3,-4
1529304453212192,0,4,1,3,8,-2,1,-2
1529304453227152,4,1,4,1,3,0,2,3
1529304453227152,1,3,-3,-15,-12,0,0,1
1529304453242112,0,2,0,14,-1,0,-2,-1
1529304453242112,1,12,11,2,2,-2,-1,2
1529304453249094,-3,1,7,6,-5,-1,-1,1
1529304453249094,-5,-24,-50,-11,4,-3,-2,-3
1529304453264055,-3,4,19,-10,-1,0,-2,0
1529304453264055,-1,6,26,13,10,-1,-1,-3
1529304453272033,2,-2,-9,-6,-14,-4,0,-1
1529304453272033,2,-2,-9,-5,-15,-3,0,-3
1529304453287001,0,0,-1,-10,-7,1,1,1
1529304453287001,2,11,13,-1,-3,-1,-2,2
1529304453301953,-3,-6,-9,9,26,2,-2,-4
1529304453301953,-3,-5,1,5,-1,-2,0,-1
1529304453308934,0,-2,-5,-5,0,-4,-2,-2
1529304453308934,-1,-11,-5,8,3,2,0,0
1529304453323894,-1,-7,6,-6,-21,-4,-1,2
1529304453323894,1,15,15,0,9,4,1,0
1529304453331873,2,3,-2,7,7,-2,-1,0
1529304453331873,0,7,11,-6,-7,-2,0,0
1529304453346833,0,2,5,1,-3,-2,0,2
1529304453346833,-1,-2,-6,5,8,9,2,2
1529304453361792,-1,-5,-8,-8,-1,0,-6,-5
1529304453361792,-5,-4,-9,-10,-11,-3,1,1
1529304453369771,1,4,-2,-5,-5,-4,-1,-1
1529304453369771,-4,-6,-5,-7,9,3,1,2
1529304453384731,-3,-6,-1,-8,-23,-5,1,0
1529304453384731,0,3,17,13,5,9,-1,-4
1529304453391712,-1,0,0,3,7,1,1,5
1529304453391712,-1,-3,3,-12,-18,-7,-2,-8
1529304453406672,-5,-6,-1,1,-9,-1,-3,-4
1529304453406672,1,3,6,-2,12,0,-4,3
1529304453421633,-3,-9,-22,-18,-13,-4,0,-3
1529304453421633,-2,-6,-7,-5,1,0,0,-2
1529304453429610,2,-2,0,2,-5,-10,1,5
1529304453429610,-1,-2,-6,8,13,1,-15,-18
1529304453444571,1,0,-4,3,-5,-3,10,8
1529304453444571,1,2,-6,-5,-3,5,-3,-1
1529304453451598,-2,-1,3,-2,-6,-1,3,-2
1529304453451598,-2,-2,-5,-6,-6,1,-3,4
1529304453466555,-4,1,3,4,-1,1,1,-11
1529304453466555,-3,0,-2,14,23,-2,3,14
1529304453481473,0,0,-6,-13,-19,-1,4,4
1529304453481473,1,0,-3,-6,7,6,0,-1
1529304453489504,-1,-3,-2,-2,-16,-1,-7,-2
1529304453489504,-1,0,-6,-8,-9,5,14,-2
1529304453504411,3,2,3,4,6,4,-1,-2
1529304453504411,-2,3,2,2,-2,-10,3,9
1529304453512390,-3,-4,-10,0,11,4,-8,-17
1529304453512390,3,5,8,-5,-10,-4,3,9
1529304453527372,-4,-1,0,-3,2,4,6,1
1529304453527372,-2,-4,-9,0,7,5,6,8
1529304453542310,-1,4,2,4,4,-6,-11,-17
1529304453542310,-5,-5,-6,-10,-11,1,9,11
1529304453549301,9,5,8,13,15,4,5,7
1529304453549301,2,4,6,2,2,1,3,0
1529304453564524,-6,-5,-5,-24,-26,-4,-1,-2
1529304453564524,-2,2,7,21,30,2,-5,-10
1529304453572503,1,-3,-9,-16,-17,-2,1,5
1529304453572503,1,-3,1,5,-13,-9,-4,-6
1529304453587618,-1,-6,-9,7,13,5,6,9
1529304453587618,-8,-1,-5,-7,4,4,-12,-15
1529304453601987,2,4,9,17,6,-4,-1,-3
1529304453601987,2,-3,-8,-7,0,-9,0,-1
1529304453609729,2,4,8,6,12,9,-2,0
1529304453609729,1,-3,-5,-6,-10,-7,-1,1
1529304453624674,-2,-3,-3,-4,6,17,5,8
1529304453624674,-6,-7,-6,0,-6,-4,-6,-8
1529304453631913,0,-3,-5,-12,-14,-3,-5,-2
1529304453631913,-1,3,12,12,4,-7,-4,-5
1529304453647652,-3,-2,-4,-7,-16,-29,-4,-13
1529304453647652,-1,-7,-10,8,26,24,16,2
1529304453662284,3,5,9,0,0,3,-5,-1
1529304453662284,-1,0,-5,-4,-6,-5,4,-1
1529304453669870,-5,0,-1,-13,-18,-5,-2,-2
1529304453669870,0,-4,-9,6,16,-13,-10,-7
1529304453685160,-3,-7,-9,-10,-14,-5,-3,2
1529304453685160,5,0,-1,1,12,-7,0,17
1529304453692146,-1,2,1,-2,-1,10,2,-1
1529304453692146,1,3,10,-1,-8,-11,2,3
1529304453707026,-3,0,8,7,9,5,-4,-2
1529304453707026,1,2,6,-3,-15,-11,-2,5
1529304453721987,0,-4,-7,4,12,13,-4,-5
1529304453721987,-2,-6,-14,-13,-17,0,-1,-4
1529304453730000,2,-1,9,13,9,4,-1,-1
1529304453730000,0,-2,-2,-2,-3,1,-1,1
1529304453744683,-2,3,4,17,21,1,-1,-4
1529304453744683,-2,-6,-9,-10,-20,-5,-4,-6
1529304453751677,-3,7,9,-10,2,-5,-2,7
1529304453751677,-5,-3,2,10,-16,-2,4,1
1529304453767063,4,-3,-10,6,19,1,-10,-3
1529304453767063,-6,3,-1,-15,-13,5,-4,-12
1529304453781627,-9,-3,-5,-2,3,1,-2,-4
1529304453781627,4,2,8,3,0,5,5,6
1529304453789606,-3,-8,-8,-10,-24,-6,3,-1
1529304453789606,1,4,11,18,19,3,0,-1
1529304453804565,3,-6,-3,-2,10,6,4,2
1529304453804565,3,2,6,2,5,-2,0,-6
1529304453812604,-6,-2,-1,5,9,0,-2,-4
1529304453812604,0,0,-4,-13,-10,-12,-1,3
1529304453826507,4,1,2,5,6,-2,-2,0
1529304453826507,7,4,-1,4,14,1,3,12
1529304453842630,-6,-1,-2,-8,-13,-4,-7,-29
1529304453842630,-1,-2,0,-11,-5,-1,-1,14
1529304453849794,2,-4,-5,6,0,5,4,1
1529304453849794,-2,-1,4,-4,-5,6,2,3
1529304453864408,2,-1,1,1,-1,4,-3,7
1529304453864408,-6,-4,2,9,8,4,-2,-9
1529304453872769,0,-4,-6,-10,-3,10,-1,-3
1529304453872769,0,-1,-3,0,-6,2,-5,-3
1529304453886606,4,-1,-6,-3,1,0,-2,2
1529304453886606,-1,0,4,-1,-4,-4,-1,-6
1529304453894828,0,1,2,1,5,-5,-1,7
1529304453894828,1,-4,-5,-3,-3,-1,-3,-6
1529304453909545,-5,1,0,-9,-2,-3,2,1
1529304453909545,1,0,-2,1,2,8,-3,-2
1529304453925074,4,7,12,15,5,1,-1,3
1529304453925074,4,-3,-7,-16,-15,-8,-3,-1
1529304453932828,-2,0,-1,-2,2,2,-1,-4
1529304453932828,-3,-3,-6,-4,1,-2,-3,-4
1529304453946746,-1,-2,-3,-5,6,-1,1,5
1529304453946746,-1,-1,-5,-3,-3,-11,-4,-3
1529304453954728,0,-1,-5,-3,-2,0,1,2
1529304453954728,-4,-3,2,-3,-13,-14,-2,-2
1529304453969685,2,-2,1,-3,-5,5,2,0
1529304453969685,0,-1,4,6,10,10,1,0
1529304453984645,-3,-3,-10,-17,-5,7,5,7
1529304453984645,-6,1,-3,1,3,9,-19,-9
1529304453991626,-3,0,2,5,6,8,2,-4
1529304453991626,4,0,-4,-11,-9,3,4,-3
1529304454006586,-1,1,2,5,5,-3,0,1
1529304454006586,-3,-3,0,0,1,-4,5,2
1529304454014804,-1,-6,-3,-4,4,9,-2,-2
1529304454014804,-2,-2,1,-3,-11,-8,-4,-2
1529304454029765,5,1,1,5,6,-2,-2,-3
1529304454029765,-1,0,-4,-3,0,-3,1,0
1529304454051705,-2,-4,-5,-3,9,-13,-5,-4
1529304454051705,-2,-3,-6,-7,-7,11,2,-1
1529304454059684,2,3,1,0,-6,-10,0,2
1529304454059684,-1,0,-1,3,14,15,5,1
1529304454074746,-3,2,-3,-7,-10,-11,-4,-1
1529304454074746,-5,-2,3,12,16,0,-1,-7
1529304454082698,1,-3,-7,7,6,-6,1,1
1529304454082698,-2,-1,0,3,-10,-5,-3,0
1529304454105202,-1,-1,0,-3,1,-1,1,3
1529304454105202,-4,-3,-8,-1,1,-3,1,-4
1529304454111951,1,-1,-1,2,0,-1,2,0
1529304454111951,0,2,-4,-20,-10,-3,-2,2
1529304454127134,-4,2,-1,13,7,8,-1,-4
1529304454127134,0,1,21,15,1,1,2,1
1529304454135105,0,-5,-5,-3,-12,-11,8,3
1529304454135105,-4,0,0,-4,-2,-14,-15,-7
1529304454150086,3,2,2,-7,-2,9,6,5
1529304454150086,-10,-5,-9,-8,-7,6,-2,-4
1529304454164437,-2,-1,-1,-1,-4,-3,-3,-4
1529304454164437,5,-1,-6,0,3,-1,6,7
1529304454172608,0,3,1,0,-5,-7,-15,-6
1529304454172608,4,-1,-1,-3,-5,4,-3,-3
1529304454186782,-4,-1,0,-3,0,-2,-8,-4
1529304454186782,-3,0,-1,0,4,0,5,0
1529304454195005,-2,1,4,-1,-14,10,0,0
1529304454195005,6,-2,-2,6,12,1,2,2
1529304454210156,-4,-3,-4,-9,-22,-5,-4,-1
1529304454210156,2,7,1,1,-5,-2,-4,-1
1529304454217234,-3,3,2,-22,-16,4,-1,-2
1529304454217234,-5,-5,0,16,5,-1,0,-2
1529304454224231,5,-5,-2,-5,5,1,2,6
1529304454224231,-4,-9,-7,-3,-2,-10,-7,-12
1529304454232201,-3,-4,-6,-9,-3,-1,-8,-16
1529304454232201,3,0,2,0,-2,-2,13,27
1529304454247171,-6,-3,6,18,20,3,-15,-15
1529304454247171,6,-5,-5,-8,0,-9,7,2
1529304454254986,1,-2,6,27,21,-11,-2,2
1529304454254986,-1,2,-3,-1,5,-7,4,-3
1529304454270131,-1,2,-5,3,8,-5,-11,-8
1529304454270131,1,6,6,2,-1,-1,-2,-1
1529304454276829,1,0,-3,-5,-4,2,1,0
1529304454276829,1,-1,-5,3,-1,10,-3,-1
1529304454285062,5,5,2,-5,-12,2,4,6
1529304454285062,-6,-2,-2,4,-3,9,2,0
1529304454292127,-4,-4,4,2,2,1,1,5
1529304454292127,-5,-6,-1,-2,-3,2,-1,-2
1529304454306727,1,-6,1,0,-5,-1,5,2
1529304454306727,0,-1,-3,-6,2,-4,-3,0
1529304454314943,-1,0,0,0,7,-2,5,2
1529304454314943,2,1,-3,2,7,6,-1,-4
1529304454330184,-2,1,3,-6,-7,-5,3,-6
1529304454330184,0,-3,-9,-7,-4,-1,-2,3
1529304454337289,3,1,-1,1,3,-4,-1,0
1529304454337289,0,3,9,6,0,1,0,-5
1529304454345196,1,-2,-2,-5,-3,-5,1,2
1529304454345196,-1,3,5,2,1,0,-2,2
1529304454360139,-3,-2,-5,7,7,1,0,1
1529304454360139,-3,-1,6,-11,-11,-2,-2,-2
1529304454374825,-2,2,1,2,-3,-2,3,3
1529304454374825,1,-2,-2,-3,-3,1,6,8
1529304454382068,2,3,1,-1,1,0,-8,-5
1529304454382068,-4,1,-5,11,23,1,-3,-4
1529304454397807,11,-6,-6,-5,-4,1,4,8
1529304454397807,-7,2,1,0,0,-5,-4,-7
1529304454404042,0,-1,-5,4,11,0,3,0
1529304454404042,8,10,18,14,-4,-5,-3,-1
1529304454412321,-3,-2,-3,-5,-3,0,-3,-2
1529304454412321,-1,-5,-5,-7,-5,-3,-3,1
1529304454427389,-1,3,2,-4,0,-1,2,0
1529304454427389,-2,-3,-2,10,12,7,3,2
1529304454434008,-2,1,2,1,0,-1,-1,-1
1529304454434008,-1,1,-1,-2,-7,-3,1,1
1529304454450147,-3,0,-4,1,-1,2,-3,-1
1529304454450147,-1,0,-3,-7,-3,0,0,-2
1529304454457240,4,1,1,5,3,-2,-3,2
1529304454457240,-1,-5,-5,-4,0,-3,-3,-3
1529304454464469,4,-1,0,-8,-15,1,3,4
1529304454464469,-10,-4,-3,5,12,-3,-5,-5
1529304454472656,1,-3,-4,-6,-4,2,3,-1
1529304454472656,0,0,1,-3,-4,-1,0,-3
1529304454487610,-3,0,-1,1,1,-4,-2,-4
1529304454487610,4,0,-5,-4,1,4,9,9
1529304454494690,-3,1,-1,2,0,-4,-14,-11
1529304454494690,-2,-1,-7,-2,-6,-1,-3,-4
1529304454510139,-2,-4,3,-1,-3,-3,1,0
1529304454510139,0,-4,-3,-1,-3,-2,-2,-2
1529304454517756,0,0,0,6,13,8,4,5
1529304454517756,-2,-5,-4,-3,-3,-1,0,-3
1529304454524898,-2,1,4,5,2,0,-3,-2
1529304454524898,0,-2,2,-7,-5,-3,-4,-3
1529304454532764,1,-1,0,2,-2,0,4,3
1529304454532764,-2,2,-1,3,0,2,1,1
1529304454547762,-2,2,-2,5,7,1,1,2
1529304454547762,0,3,4,9,2,-1,-3,-3
1529304454554818,-10,-3,-10,-18,-11,0,2,-4
1529304454554818,-1,3,3,3,1,0,1,-3
1529304454569544,-5,-1,1,-4,-12,-10,-4,-2
1529304454569544,3,-1,2,3,12,5,-1,-1
1529304454576510,2,-2,-2,-4,-5,-3,0,2
1529304454576510,-5,0,4,-1,-3,-3,0,1
1529304454584475,1,3,2,7,11,3,-1,-2
1529304454584475,1,-1,-7,-3,-7,-5,-2,-1
1529304454591457,3,-1,4,6,8,2,5,2
1529304454591457,3,5,9,9,9,-1,-1,2
1529304454607414,1,0,-1,-14,-15,-1,-1,0
1529304454607414,-5,-6,-7,-7,3,2,3,6
1529304454614450,0,-2,-3,-1,-1,1,-12,-12
1529304454614450,0,-3,-2,-7,-10,-3,4,3
1529304454629408,-4,-5,-2,18,24,1,0,-2
1529304454629408,0,2,-1,-8,-6,-1,-1,-3
1529304454637372,-3,-2,1,3,-7,-3,1,2
1529304454637372,2,2,-4,-7,-1,-1,0,2
1529304454644369,-1,3,0,1,1,2,0,-2
1529304454644369,-1,1,-1,-4,-5,-2,0,0
1529304454652295,0,2,4,13,9,0,3,4
1529304454652295,-1,3,4,1,-2,0,-1,0
1529304454667306,1,-2,-6,-8,-3,0,1,0
1529304454667306,0,-1,2,-2,-5,-1,-4,-3
1529304454674289,4,1,1,6,2,-1,3,4
1529304454674289,-10,-7,-5,0,1,1,-2,-7
1529304454689250,1,-2,6,8,1,-2,-1,0
1529304454689250,4,-2,0,-7,-1,2,-1,0
1529304454697228,2,-1,0,-2,-7,-1,1,2
1529304454697228,1,-4,-8,0,8,1,2,1
1529304454704203,-1,-2,-2,-7,2,2,-1,1
1529304454704203,0,3,-5,-14,-19,-6,-1,2
1529304454712182,4,10,12,5,3,-2,1,1
1529304454712182,-5,-4,-11,-13,-5,0,-2,-3
1529304454727152,-5,-1,-1,3,-2,4,1,0
1529304454727152,-3,-8,-5,6,-2,-3,-2,-1
1529304454734133,-2,-2,1,4,6,2,0,0
1529304454734133,4,0,4,8,6,-2,1,2
1529304454749088,3,1,2,-3,0,-2,-1,0
1529304454749088,-2,0,-4,-9,-7,-2,0,-3
1529304454757069,-2,1,-3,2,-1,-2,1,0
1529304454757069,1,0,-3,1,-3,2,-1,-2
1529304454764055,-1,0,-4,-2,6,1,2,1
1529304454764055,0,-2,1,3,4,-1,-1,-4
1529304454772028,-2,-5,0,-4,-1,0,0,0
1529304454772028,1,1,7,3,-4,2,0,1
1529304454786994,-1,-3,-7,3,-6,0,-1,-1
1529304454786994,2,2,4,9,6,1,-2,0
1529304454794912,-3,-1,2,-12,-12,-4,-1,-2
1529304454794912,-1,3,-2,1,-2,-3,-3,-1
1529304454809901,1,3,2,6,1,-2,0,-3
1529304454809901,2,0,-1,4,3,-1,-1,1
1529304454816906,-8,-2,-3,5,9,2,1,1
1529304454816906,1,-1,0,-8,-6,-2,0,-1
1529304454824885,2,2,7,-1,-3,0,0,0
1529304454824885,-2,-2,2,11,9,0,0,1
1529304454831867,-1,-3,-6,-13,2,3,-4,-4
1529304454831867,-1,-3,-4,-5,-5,0,-2,-3
1529304454846830,4,-4,-2,-4,8,-3,0,2
1529304454846830,-1,0,-2,-8,-16,-3,0,0
1529304454854807,-3,2,3,2,1,-6,0,1
1529304454854807,0,4,4,3,11,2,-2,-3
1529304454869767,-3,2,-2,-10,-8,-1,-1,0
1529304454869767,-4,-1,-6,-4,0,0,-1,-1
1529304454876749,0,-5,-6,0,-6,1,3,3
1529304454876749,0,-4,-4,-1,0,-1,0,2
1529304454884920,-1,-3,-2,-4,-10,-2,-2,-1
1529304454884920,0,-6,-3,4,7,1,-1,-1
1529304454891968,2,0,-5,-13,-6,-2,-1,-1
1529304454891968,0,-1,-2,2,-1,-2,1,0
1529304454907158,-3,4,15,14,-1,-3,-2,-1
1529304454907158,1,2,-1,2,3,0,0,-2
1529304454915148,-4,-6,-1,-11,-14,-4,0,-3
1529304454915148,6,-4,-7,12,15,2,-2,3
1529304454930131,-7,-1,-3,-13,-9,-2,-1,-6
1529304454930131,-2,1,-2,4,2,-1,0,-2
1529304454937090,-1,3,2,3,1,0,0,-1
1529304454937090,-3,2,2,-8,-7,1,0,0
1529304454945068,2,-3,-4,0,4,1,-2,0
1529304454945068,-1,0,-5,-17,-6,0,-1,-3
1529304454951856,-1,0,-3,3,2,-1,0,-1
1529304454951856,-2,0,6,5,-1,-1,0,0
1529304454974746,-1,-2,-4,2,3,2,0,2
1529304454974746,0,1,5,3,2,-3,0,-2
1529304454981775,4,0,-4,1,-3,-2,0,0
1529304454981775,-1,-4,-1,8,14,2,1,-1
1529304454996688,6,-1,7,-7,-12,-2,1,4
1529304454996688,-6,-6,-7,-5,8,2,-1,-2
1529304455004889,-1,-4,-2,-8,-6,-2,1,0
1529304455004889,2,-2,-1,-3,-4,-3,-1,0
1529304455011870,-2,-2,-13,-4,2,0,0,-2
1529304455011870,5,2,3,2,-1,4,-1,0
1529304455027778,-5,-3,-10,1,8,-1,2,-1
1529304455027778,-4,3,1,-3,-1,-2,1,1
1529304455035162,-3,5,7,3,4,0,0,-1
1529304455035162,-2,1,-2,-2,-3,-3,-3,0
1529304455050324,6,3,-2,-9,-11,0,-3,0
1529304455050324,2,-1,3,8,-1,-3,2,2
1529304455057644,2,-3,-5,-10,0,1,0,4
1529304455057644,-7,-6,-5,-6,-4,-3,-1,-6
1529304455065326,1,-1,6,7,7,1,0,0
1529304455065326,0,-7,-7,-2,0,-3,-3,-2
1529304455072530,1,0,-3,3,9,-2,0,2
1529304455072530,-2,2,3,-1,-14,-9,0,1
1529304455087491,-5,3,4,2,18,22,2,0
1529304455087491,2,3,10,5,-9,-7,-3,0
1529304455095206,-1,-5,-5,-3,3,3,-4,0
1529304455095206,4,-1,-4,-8,-3,-3,-4,0
1529304455109432,-3,1,-1,1,-9,-14,4,-3
1529304455109432,-4,3,-3,-3,6,15,2,1
1529304455117410,-1,2,4,15,-1,-1,-1,-4
1529304455117410,1,1,3,1,-8,-2,-1,1
1529304455124394,2,-8,-13,-4,6,-3,-2,1
1529304455124394,-1,-3,-2,5,7,-1,0,-3
1529304455132680,-1,3,7,-2,-8,-3,1,-1
1529304455132680,0,1,1,-6,-6,1,-2,2
1529304455147664,-2,-3,3,8,8,-1,-1,-3
1529304455147664,-2,-8,-6,-3,-4,-4,-2,-2
1529304455154658,0,-6,0,3,6,4,-2,-3
1529304455154658,2,4,3,-3,-1,2,0,1
1529304455169390,-1,2,1,-3,-6,-7,-1,-4
1529304455169390,-7,3,1,-4,2,0,-1,-1
1529304455177666,-1,0,-3,-1,-2,0,-1,-1
1529304455177666,-2,0,-9,1,8,1,0,-2
1529304455184749,1,0,8,-1,-10,-8,-1,1
1529304455184749,2,-3,-1,-2,5,8,-1,-3
1529304455192793,1,1,-4,-2,1,-1,2,0
1529304455192793,1,0,6,9,7,3,2,1
1529304455207342,-1,-2,-5,-3,-7,-7,-3,1
1529304455207342,1,-1,0,-3,-3,-3,2,2
1529304455215179,0,1,8,-5,-5,9,1,1
1529304455215179,1,-5,-6,22,21,0,0,-1
1529304455230204,-3,-2,1,-8,-8,1,-2,-1
1529304455230204,0,0,-2,-3,-5,-2,-1,-1
1529304455237261,-1,-1,-7,-8,1,-6,-1,0
1529304455237261,-2,0,-7,-5,-1,-2,0,1
1529304455245157,-3,8,13,9,5,0,0,-2
1529304455245157,-1,-3,-7,1,-5,-6,-1,2
1529304455251952,-1,3,4,7,0,-1,-1,0
1529304455251952,-2,-2,0,-6,-4,1,0,0
1529304455267175,1,0,-7,-1,0,3,-2,1
1529304455267175,0,1,3,-2,-1,-2,1,-2
1529304455275113,3,-3,-4,1,3,-1,-1,-1
1529304455275113,-1,-1,1,-4,-4,0,-2,-1
1529304455289861,-2,-3,-5,-6,-4,-3,-2,-2
1529304455289861,0,1,4,1,-2,-3,-1,1
1529304455296835,-3,-4,-8,-8,3,-1,-1,0
1529304455296835,-2,1,9,5,-2,-4,-1,-3
1529304455305189,1,1,-1,-5,3,10,0,1
1529304455305189,-1,0,3,15,-1,-8,-2,1
1529304455312109,-3,-4,-5,-8,-11,-3,-1,-1
1529304455312109,1,-2,-6,-9,-4,0,-3,0
1529304455327342,1,-2,-2,0,1,-3,5,0
1529304455327342,2,2,0,-3,-2,2,3,0
1529304455335178,-1,2,0,2,-1,0,-3,-1
1529304455335178,0,3,1,2,-5,-4,-2,-3
1529304455350132,-2,-6,-3,0,-2,-2,-4,-3
1529304455350132,0,-3,-3,-3,0,3,-1,-2
1529304455357220,-2,-5,-2,4,3,-1,-1,-4
1529304455357220,-3,-1,-3,-3,-1,1,0,0
1529304455365162,-3,0,-1,0,1,0,0,-2
1529304455365162,0,3,1,-3,-1,2,0,-2
1529304455372178,-2,1,2,2,-2,0,-1,-1
1529304455372178,-3,-2,5,1,-1,0,-1,-3
1529304455387140,-1,-4,-2,0,0,1,0,-1
1529304455387140,-1,1,1,-1,-2,-1,-1,-2
1529304455395108,2,0,-1,0,3,0,1,1
1529304455395108,3,2,4,1,-1,0,2,1
1529304455409857,-2,-3,-4,-4,0,-2,-1,0
1529304455409857,1,0,5,4,5,0,-2,-1
1529304455416799,-1,1,-1,6,5,1,0,0
1529304455416799,-2,0,-4,-9,-4,1,1,-1
1529304455424778,0,1,3,0,-1,3,-2,0
1529304455424778,0,0,0,-5,-5,-1,-1,2
1529304455432244,-1,-4,1,-1,-3,-1,-1,-2
1529304455432244,-2,-1,-2,3,-1,-2,0,-2
1529304455446719,-1,-3,-5,-1,-3,-3,0,-1
1529304455446719,-2,-2,-1,-3,0,0,-2,-1
1529304455454966,-1,-2,0,-6,2,-2,-1,2
1529304455454966,-2,-3,4,0,-2,0,-1,-2
1529304455469659,1,0,-3,0,-2,-1,-1,-2
1529304455469659,0,-1,1,1,-1,-2,-1,-1
1529304455477775,1,2,-1,3,-1,0,-1,-2
1529304455477775,1,1,6,10,0,-4,0,0
1529304455485191,0,5,4,1,-2,-2,2,0
1529304455485191,-1,-2,-1,-3,0,-1,-1,-1
1529304455492343,-1,1,0,-7,2,2,2,1
1529304455492343,-1,-2,-5,-8,2,-3,-3,0
1529304455507636,1,-1,1,2,0,-1,-3,0
1529304455507636,-2,0,-4,-5,0,1,-1,-2
1529304455514287,-2,0,-2,-3,-6,-3,-2,-3
1529304455514287,-2,-1,-6,-3,-3,2,-1,0
1529304455529572,-2,0,1,-1,0,0,-1,0
1529304455529572,0,0,-2,-2,2,2,0,-1
1529304455537638,1,-1,2,1,1,0,0,0
1529304455537638,1,0,3,-2,0,1,0,1
1529304455545225,2,-3,-1,-1,-3,-2,-1,0
1529304455545225,0,1,-1,3,1,0,1,0
1529304455552183,-2,-1,4,4,-2,-4,-3,-2
1529304455552183,-1,2,-1,-1,-3,2,5,1
1529304455567382,0,-1,-4,-2,2,2,2,-1
1529304455567382,1,-3,-5,-2,-3,-1,-2,0
1529304455574666,-2,0,1,1,0,-2,-4,-1
1529304455574666,0,0,1,-1,3,-1,-1,0
1529304455590080,-3,-7,-3,-4,-3,-2,-1,1
1529304455590080,0,-3,0,5,-2,-1,1,-2
1529304455597269,1,-1,-2,-2,-1,0,1,2
1529304455597269,1,0,-4,-3,0,-1,-1,-1
1529304455604015,0,4,2,4,3,-2,-1,-2
