timestamp,emg1,emg2,emg3,emg4,emg5,emg6,emg7,emg8
1528445957047118,-2,-2,-1,1,2,3,-1,-2
1528445957047118,0,-1,0,-2,0,-1,-2,-1
1528445957056122,0,0,-1,-1,0,0,0,-2
1528445957056122,-1,-1,-2,-2,-1,-1,-3,0
1528445957061082,-1,-3,-2,-2,-1,1,-1,0
1528445957061082,-2,3,2,-1,-1,-1,0,0
1528445957068102,1,-2,0,-1,-2,-1,-2,0
1528445957068102,-1,-1,1,0,0,2,2,-2
1528445957079035,-1,-1,0,1,-1,-1,-1,-1
1528445957079035,0,-2,-2,-1,0,1,0,-1
1528445957097984,0,1,-1,-3,-3,-3,-2,-1
1528445957097984,0,-4,-4,0,-3,-4,-1,0
1528445957105964,0,0,-1,-1,0,1,-1,-1
1528445957105964,-3,-2,-3,0,1,2,0,-1
1528445957120921,-1,0,0,0,-1,-2,-3,-2
1528445957120921,-2,0,1,-1,3,3,-1,0
1528445957130896,2,1,-2,1,-1,-2,2,3
1528445957130896,0,3,6,2,-1,-3,-3,-2
1528445957142862,-1,-1,-3,0,-1,1,-4,-7
1528445957142862,6,7,3,2,-3,-2,1,5
1528445957150871,-2,-3,-5,-4,1,-2,-2,-2
1528445957150871,-6,-18,-9,-2,0,-7,-5,-1
1528445957159001,1,5,5,3,13,38,25,7
1528445957159001,-8,-9,-9,-2,-1,-3,-1,-3
1528445957167044,3,3,2,-3,-1,-1,-1,-1
1528445957167044,2,2,-2,-1,-1,-4,-2,0
1528445957175805,0,-3,-3,-3,-5,-12,-6,-2
1528445957175805,3,6,7,0,-2,-1,-1,-3
1528445957180792,-1,0,-2,-1,0,1,0,1
1528445957180792,-1,-1,1,-1,-4,-2,-3,-3
1528445957196731,-3,-4,-3,-1,1,-4,-4,1
1528445957196731,0,1,2,1,-3,-4,-5,-2
1528445957203702,-4,-3,-3,-1,-5,-11,-7,-4
1528445957203702,0,-2,-3,-2,-1,-2,-3,-3
1528445957218660,-1,0,2,1,-1,0,-1,-4
1528445957218660,-4,-4,-3,0,3,5,7,4
1528445957228660,3,0,-1,1,2,7,8,8
1528445957228660,0,2,4,-1,1,1,-4,-1
1528445957240648,1,1,6,4,-22,-46,-16,-1
1528445957240648,-8,0,1,-7,4,26,7,-2
1528445957248627,5,-7,-12,-7,16,28,5,-2
1528445957248627,-1,3,-1,0,-6,-11,10,6
1528445957255608,5,2,1,2,26,45,10,1
1528445957255608,-7,-3,1,6,-6,-13,-13,-7
1528445957263541,-3,1,9,4,-10,1,9,0
1528445957263541,-5,-5,2,24,8,3,-10,-5
1528445957281519,-4,-6,-12,-16,-9,-16,-13,-7
1528445957281519,-5,-4,-3,-11,-23,-40,-26,-12
1528445957285483,6,6,-2,-6,2,-8,3,5
1528445957285483,12,16,17,12,20,46,38,16
1528445957300478,6,3,11,25,1,-14,1,14
1528445957300478,7,3,-2,-6,15,27,12,2
1528445957308457,-9,-8,6,18,-25,-59,-43,-10
1528445957308457,-4,0,10,5,-10,-42,-16,-3
1528445957315404,-2,0,-11,-25,7,41,29,4
1528445957315404,16,8,-6,17,25,40,30,18
1528445957324379,-5,-4,-10,-18,-3,8,-10,-12
1528445957324379,-3,-2,-3,3,11,21,-7,-11
1528445957345323,-3,-7,-11,6,2,-33,-5,4
1528445957345323,3,-5,-9,0,-10,-9,7,5
1528445957368261,-1,21,25,0,9,36,5,1
1528445957368261,-7,-10,-6,6,10,15,-7,-10
1528445957376239,-1,1,2,-7,-9,-9,-9,-4
1528445957376239,-6,-9,-8,-5,-14,-27,-41,-23
1528445957383220,-5,-5,-5,-3,-16,-43,-21,-10
1528445957383220,7,8,1,-4,-6,-12,25,18
1528445957391277,-6,-9,-3,0,15,50,20,2
1528445957391277,1,8,6,6,6,-12,-15,-3
1528445957406204,2,-1,5,-7,1,13,17,8
1528445957406204,13,18,0,1,23,59,40,14
1528445957421119,-6,2,1,-8,-29,-65,-48,-23
1528445957421119,-15,-12,-6,-13,-23,-39,-7,-13
1528445957436118,6,6,0,-5,21,45,20,8
1528445957436118,20,18,7,5,6,-10,12,12
1528445957443101,-3,-7,10,9,34,78,49,21
1528445957443101,2,2,2,-5,-2,-9,-4,-6
1528445957458021,11,11,5,10,11,5,-3,2
1528445957458021,1,-1,6,-20,19,27,27,13
1528445957473008,4,-1,-5,-12,-3,11,15,4
1528445957473008,-6,0,3,7,-11,-27,-36,-22
1528445957480986,-4,0,-3,-5,-10,-25,-20,-9
1528445957480986,-7,-10,-5,5,-23,-34,-15,-3
1528445957495945,7,7,2,3,17,38,19,5
1528445957495945,-2,-6,-4,-3,7,10,-5,3
1528445957502957,-3,-3,-1,2,8,15,8,0
1528445957502957,12,6,10,20,7,29,29,16
1528445957517897,-2,0,6,-2,-16,-11,1,-5
1528445957517897,-1,-1,-7,0,3,-5,-13,-2
1528445957533818,3,-4,-5,9,-5,-13,-2,8
1528445957533818,-10,-12,1,-4,12,17,7,2
1528445957540852,3,2,-11,0,-15,-25,-12,-6
1528445957540852,-7,4,19,0,-2,-3,-17,-8
1528445957555760,-1,-3,-1,-3,-5,15,22,0
1528445957555760,-4,-6,-36,-8,-22,3,-2,-11
1528445957563738,2,6,5,26,28,-4,-5,-3
1528445957563738,12,-3,6,37,61,6,3,23
1528445957578698,7,-27,-12,-36,-64,-19,-17,29
1528445957578698,9,19,8,-5,0,8,9,16
1528445957593658,17,37,13,18,17,-11,-3,19
1528445957593658,6,2,7,-13,-11,-2,10,14
1528445957600663,-15,-9,-5,27,45,2,-6,-14
1528445957600663,-12,-7,-1,-28,-17,1,2,-22
1528445957615600,2,-8,-2,14,-18,-8,3,-5
1528445957615600,-9,-31,2,-7,-3,-5,-7,-13
1528445957623579,22,65,11,-13,12,9,8,28
1528445957623579,-13,-13,-7,11,29,4,5,9
1528445957638539,-32,-103,-33,-18,26,5,-1,66
1528445957638539,-10,21,1,-13,-4,-2,3,34
1528445957653530,-16,-8,4,-22,-22,-5,-7,-16
1528445957653530,-3,15,13,-11,-11,-17,-10,-16
1528445957660520,-19,16,18,-32,-51,10,10,-63
1528445957660520,12,-17,-9,-26,-8,-6,-9,-7
1528445957675477,56,-4,23,-8,3,-11,7,70
1528445957675477,-10,6,-6,-34,12,4,3,2
1528445957683419,4,-10,0,-22,-1,-12,-17,19
1528445957683419,-16,18,6,14,15,19,11,-50
1528445957698378,-2,48,4,-6,-30,-5,6,7
1528445957698378,-17,-30,11,26,18,-8,-19,-21
1528445957713337,-10,-4,-9,9,15,12,8,0
1528445957713337,-8,34,9,23,25,6,-9,-17
1528445957720333,76,24,-3,33,-1,1,20,51
1528445957720333,-73,-22,10,-2,-39,-1,-4,-27
1528445957735279,55,-29,-26,10,19,14,12,12
1528445957735279,7,15,21,10,-2,-7,-8,24
1528445957743264,-8,23,35,26,20,-13,-13,-58
1528445957743264,25,-22,-18,-12,3,11,15,54
1528445957759217,60,14,-8,0,-12,9,25,89
1528445957759217,-5,-3,-19,-16,-9,2,-3,-26
1528445957773211,-26,-9,-19,23,30,2,-12,-60
1528445957773211,34,29,-4,27,40,20,17,72
1528445957781156,-41,-41,-12,-1,-41,-18,-9,-37
1528445957781156,44,7,11,7,-23,-21,-11,16
1528445957796117,9,23,-9,-17,-17,13,24,44
1528445957796117,6,-18,-11,-5,3,-4,-3,-2
1528445957803132,-23,15,-1,10,21,15,-3,-54
1528445957803132,13,8,-11,10,6,-6,-5,9
1528445957818110,-16,-15,5,14,25,7,-2,-9
1528445957818110,6,9,-21,-3,-15,-6,-2,-17
1528445957833071,-6,10,13,-5,4,5,3,-7
1528445957833071,7,-3,-13,-19,-25,-4,7,25
1528445957841031,-17,-4,-8,2,23,-2,-20,-47
1528445957841031,11,3,1,-1,3,8,9,14
1528445957855972,-7,7,2,-5,0,-6,1,-3
1528445957855972,-15,-24,-23,-4,-1,2,-1,-18
1528445957862974,7,17,-5,5,-10,-12,-9,-28
1528445957862974,-27,10,11,12,12,15,2,-6
1528445957877955,21,9,9,19,0,11,21,37
1528445957877955,-15,-18,-9,-20,0,4,0,-11
1528445957892893,-10,-1,-2,17,-1,-9,-9,-11
1528445957892893,11,-5,-9,12,23,8,2,8
1528445957900872,-2,-4,-13,-2,27,14,6,2
1528445957900872,18,6,1,-7,-28,-13,0,15
1528445957916847,-22,-11,-4,2,-4,0,-12,-22
1528445957916847,4,7,2,-3,-5,-1,6,9
1528445957930814,-7,-5,17,-12,-3,-4,-6,-16
1528445957930814,0,-2,-8,-4,-11,-5,-2,2
1528445957945772,-5,-10,-6,2,-5,-3,-1,24
1528445957945772,15,-5,0,4,11,1,0,-2
1528445957960729,-24,-6,8,-5,0,-7,-1,-13
1528445957960729,11,-4,-2,-3,5,9,8,26
1528445957968681,-17,-10,-7,-10,-5,-7,-4,-22
1528445957968681,1,13,0,4,-23,-22,-21,-38
1528445957983661,-7,-5,-5,-8,-7,2,1,-13
1528445957983661,-7,4,-2,-5,-23,-14,0,-1
1528445957998630,-7,-6,-6,-23,-47,-26,-11,0
1528445957998630,-11,-2,0,25,19,10,-4,-39
1528445958013593,27,9,12,-20,-29,-1,15,59
1528445958013593,-13,3,10,13,30,-2,-6,-26
1528445958020573,3,-3,-5,-1,-4,4,9,10
1528445958020573,5,0,-1,-3,11,5,5,22
1528445958035532,-29,-6,-1,2,-19,-18,-23,-49
1528445958035532,30,1,0,-11,-6,4,6,37
1528445958043511,-7,2,6,-5,-6,-14,-6,-13
1528445958043511,-2,1,1,-11,-27,-10,-4,-2
1528445958058448,-1,-1,-5,-5,5,11,-2,-30
1528445958058448,10,8,-5,-13,-25,-6,10,32
1528445958073786,-14,-5,1,15,27,10,-2,-20
1528445958073786,7,2,-11,11,18,1,-1,-16
1528445958088478,11,13,14,2,-6,-1,-2,5
1528445958088478,0,2,6,-5,24,8,1,-5
1528445958103840,16,-8,-15,-5,-11,2,9,36
1528445958103840,-16,-8,-10,-7,-20,-5,-7,-26
1528445958110835,-6,-3,-8,-2,6,-6,-11,-16
1528445958110835,-2,3,7,-5,-27,-12,-4,26
1528445958126186,13,-7,-11,15,43,18,12,20
1528445958126186,-10,-1,1,1,31,6,-5,-9
1528445958133462,-15,6,2,-10,-20,-5,-4,-13
1528445958133462,3,-1,-2,-8,-30,-15,-3,10
1528445958141486,-2,-1,-6,-15,5,0,-5,3
1528445958141486,-12,-5,1,27,9,11,2,-16
1528445958156071,0,11,-1,2,-3,-22,-14,-19
1528445958156071,-5,-5,-1,-1,-5,8,5,8
1528445958163300,-1,-10,-6,-11,-4,-8,-11,5
1528445958163300,3,-1,-2,7,18,-2,5,10
1528445958178010,-1,3,5,7,-7,-4,0,-2
1528445958178010,-30,-6,-3,-5,1,-4,-9,-21
1528445958193010,47,7,19,-6,-17,0,4,1
1528445958193010,16,2,-8,-6,2,0,9,39
1528445958209027,-20,-9,8,13,-18,-2,1,-18
1528445958209027,25,3,1,1,6,0,1,28
1528445958224121,-48,-1,1,-4,-5,-3,-2,-47
1528445958224121,5,-1,-5,-26,-22,-7,-9,5
1528445958231321,3,2,-15,32,9,0,2,-11
1528445958231321,-4,-6,-2,7,29,9,-8,0
1528445958246159,-8,11,4,-25,-22,-5,-2,-2
1528445958246159,-9,-10,-7,-10,-6,-5,-7,-10
1528445958261155,7,7,7,-7,-3,-5,0,-2
1528445958261155,-4,-2,-2,6,-1,1,2,-24
1528445958276597,7,5,4,-14,14,9,10,29
1528445958276597,-10,-1,0,22,-5,-8,-9,-27
1528445958283663,-13,0,-5,-5,8,2,-7,-1
1528445958283663,37,-9,-15,4,26,13,-2,30
1528445958298438,30,-3,-15,-3,5,6,12,41
1528445958298438,-19,2,4,-7,-24,-8,-5,-29
1528445958313698,-10,0,-1,4,-4,-6,-7,-13
1528445958313698,4,-8,2,-4,9,4,-4,3
1528445958321101,-10,-6,4,-11,-30,-19,-10,-25
1528445958321101,13,10,8,8,-4,-3,3,16
1528445958336412,-1,3,-3,-7,12,15,6,-9
1528445958336412,-15,-9,-1,9,2,-6,-6,-16
1528445958343394,4,4,3,-15,-10,-2,-1,-5
1528445958343394,11,0,5,0,6,2,13,17
1528445958359040,-30,4,8,29,28,11,-11,-57
1528445958359040,23,-9,-10,-1,-1,-13,-4,57
1528445958366266,-13,-15,-5,-13,1,11,14,12
1528445958366266,4,13,4,-3,10,0,-3,-10
1528445958373003,-22,1,7,-20,-39,-7,-4,-19
1528445958373003,5,-4,-5,17,18,9,7,-6
1528445958381227,0,-2,2,-1,-13,-7,-4,1
1528445958381227,0,-1,2,-12,11,5,4,24
1528445958396165,-19,-7,-7,4,1,5,-2,-20
1528445958396165,-11,1,8,-4,-8,-4,-5,-17
1528445958403632,0,1,1,7,5,9,5,1
1528445958403632,-3,3,18,-5,-11,-4,0,-24
1528445958418584,4,-5,-23,-8,5,-1,2,16
1528445958418584,-8,-4,2,8,12,1,1,-11
1528445958426445,6,-2,3,7,9,3,4,20
1528445958426445,6,5,3,-15,-20,0,-1,-15
1528445958433524,5,0,6,33,54,9,1,7
1528445958433524,-9,-7,-7,-22,-39,-16,-10,-17
1528445958440282,2,10,1,2,29,12,3,-3
1528445958440282,-7,2,-14,-2,-12,-1,-3,1
1528445958456251,5,-6,-11,-24,-24,-15,-10,-2
1528445958456251,-17,-9,-3,-10,-19,-6,-6,-17
1528445958463481,-4,2,5,13,6,-10,-12,-18
1528445958463481,10,-6,-10,-11,-33,-6,5,18
1528445958486568,12,2,-3,4,25,4,-2,16
1528445958486568,-9,5,23,-2,7,0,-1,-12
1528445958493850,1,-3,-1,0,7,7,1,-4
1528445958493850,-4,-3,-10,-5,-9,-5,0,3
1528445958508650,-3,-1,-1,-5,-10,-1,-3,-25
1528445958508650,11,6,5,9,-7,0,13,27
1528445958516501,-4,1,0,-8,-8,-4,0,3
1528445958516501,2,-2,-3,8,22,11,3,-4
1528445958530879,-1,2,10,-2,-18,-5,4,10
1528445958530879,11,8,-3,-5,-10,-3,5,21
1528445958538724,5,6,2,2,16,9,3,7
1528445958538724,-14,-6,0,-3,-8,-6,-3,-19
1528445958545599,8,3,5,-3,6,9,5,8
1528445958545599,-1,-7,-5,-3,-21,-11,-8,-5
1528445958553577,-14,-7,-1,9,29,12,-5,-13
1528445958553577,-8,1,-1,1,-19,-19,-9,-33
1528445958560555,4,2,6,3,0,-3,7,33
1528445958560555,11,1,0,2,3,5,4,3
1528445958575520,2,5,4,15,24,11,2,0
1528445958575520,-9,-9,-21,5,26,4,-3,-13
1528445958582786,13,1,1,7,14,1,0,23
1528445958582786,-5,-2,2,-11,-28,-15,-5,1
1528445958598689,-17,-12,-25,-6,-25,-12,-14,-26
1528445958598689,9,3,5,0,11,3,2,17
1528445958606478,8,-10,-6,-23,-52,-15,1,10
1528445958606478,-10,12,8,35,77,11,-6,-6
1528445958613663,10,-1,4,-11,-2,1,-1,1
1528445958613663,-8,3,4,6,-3,7,1,-18
1528445958620645,-5,-7,-5,0,-11,-5,-2,-6
1528445958620645,0,5,7,0,-20,-1,0,0
1528445958635927,7,6,5,6,9,7,10,6
1528445958635927,7,5,7,2,11,1,1,8
1528445958643889,1,1,2,11,21,6,2,5
1528445958643889,2,-7,-4,6,10,8,3,11
1528445958658621,-21,-2,-2,-8,-12,-12,-13,-41
1528445958658621,-5,-4,-2,-6,-4,-3,-6,0
1528445958666128,5,1,7,7,7,3,9,17
1528445958666128,-2,-13,-43,-11,-7,6,10,-4
1528445958673350,-2,-2,-2,-3,12,13,6,5
1528445958673350,-1,-2,0,-26,-77,-31,-8,-2
1528445958681129,-13,-4,3,28,45,-2,-5,-13
1528445958681129,7,4,3,-3,9,5,-2,-8
1528445958695553,2,-4,3,-7,-14,-8,-4,0
1528445958695553,-1,-2,-7,3,15,12,3,-5
1528445958703833,7,6,-1,-5,-18,-5,-1,2
1528445958703833,0,-8,2,-17,-21,-2,-1,17
1528445958719018,-1,-1,4,27,45,-2,-5,-3
1528445958719018,5,3,-1,-16,-8,-4,2,12
1528445958725868,-5,-5,-2,6,-1,1,-7,-4
1528445958725868,-16,-6,1,10,-2,-12,-11,-13
1528445958733844,21,8,-7,-16,-10,2,9,15
1528445958733844,-15,-3,-3,2,-13,-13,-5,-7
1528445958741100,3,-4,-6,-9,7,6,0,0
1528445958741100,-10,1,1,-4,-1,-1,-3,-5
1528445958755824,-2,3,8,10,-27,-15,-5,-5
1528445958755824,9,-1,-1,6,19,22,18,6
1528445958762783,-2,-1,-3,-5,-18,-11,-6,2
1528445958762783,5,0,10,1,-7,-1,3,1
1528445958778724,-11,-3,-3,-4,-4,-4,-8,-8
1528445958778724,3,6,13,3,7,8,3,-4
1528445958785737,4,-1,-3,-15,-23,-3,-3,-3
1528445958785737,3,-1,2,5,36,14,2,0
1528445958793932,-3,-2,1,1,-10,-4,1,5
1528445958793932,-9,0,-1,-3,-15,-6,-3,-15
1528445958800669,0,1,2,11,41,15,1,-2
1528445958800669,6,-3,-3,-8,-27,-19,-12,12
1528445958815850,-2,-2,3,-7,-3,1,0,-3
1528445958815850,-6,10,22,13,20,7,1,-11
1528445958823604,8,-1,-7,-12,-24,-10,0,15
1528445958823604,-1,2,2,-2,-6,0,2,-7
1528445958838568,2,2,2,6,28,19,8,7
1528445958838568,1,-7,-8,-10,-22,-7,-2,4
1528445958845784,-4,2,-2,-5,-15,-12,-8,-16
1528445958845784,0,2,2,22,58,20,3,4
1528445958853744,-2,-7,-3,-6,-11,-5,0,6
1528445958853744,-5,-3,-6,-1,7,-2,-4,-7
1528445958860509,1,3,-1,-10,-16,-1,3,5
1528445958860509,-1,-2,-2,1,3,2,-1,-5
1528445958875485,-6,-3,-4,-9,-29,-17,-7,-9
1528445958875485,-2,-7,-10,-10,17,0,-5,2
1528445958883706,-10,-9,-19,10,19,5,-5,-16
1528445958883706,-5,-8,-2,-15,-46,-16,-5,1
1528445958898934,-2,15,2,-2,12,9,3,-6
1528445958898934,-2,-9,-6,0,3,2,7,14
1528445958905686,14,0,1,-17,-26,-10,-2,2
1528445958905686,-4,1,1,1,0,2,4,-10
1528445958920644,0,-4,-3,8,0,-3,-1,5
1528445958920644,-4,1,-1,0,1,-2,-6,-5
1528445958928622,-4,4,6,4,14,13,9,-5
1528445958928622,3,2,6,-6,-20,-11,-5,1
1528445958935829,-5,-4,0,6,11,1,-3,-6
1528445958935829,11,5,1,1,4,2,-4,6
1528445958943794,0,-4,-1,-19,-46,-9,12,11
1528445958943794,0,0,2,44,72,21,-2,-1
1528445958958880,-3,-1,4,-3,1,-2,-8,-12
1528445958958880,5,-9,-6,10,32,12,6,1
1528445958965624,6,7,2,-6,-15,0,9,16
1528445958965624,1,1,-3,-17,-23,-3,1,2
1528445958973602,0,-4,-5,-6,-3,-5,-5,4
1528445958973602,-14,1,12,15,18,1,-8,-20
1528445958980581,-5,-10,-5,-4,9,8,0,-9
1528445958980581,5,9,5,-6,-10,-5,10,7
1528445958995542,-17,-9,-11,10,9,8,0,-18
1528445958995542,16,7,3,-3,6,3,4,19
1528445959003749,0,-2,-5,16,15,2,2,6
1528445959003749,-6,-1,-3,-16,-14,-1,0,-5
1528445959018948,0,-1,3,-11,-12,-5,-4,-2
1528445959018948,3,0,-4,0,-8,-5,-1,6
1528445959026754,-6,0,9,6,18,-3,-8,-9
1528445959026754,7,-5,-5,3,7,1,1,9
1528445959040673,1,2,6,-1,-2,6,10,2
1528445959040673,-4,-11,-6,-13,-30,-9,-4,-3
1528445959048651,-2,15,9,9,24,6,-4,-4
1528445959048651,-14,-2,0,-1,-22,-13,-6,-20
1528445959063657,12,-2,-12,-18,-28,-12,-4,22
1528445959063657,-2,0,1,16,31,9,4,2
1528445959070622,-4,-5,1,-9,-11,-5,-1,-2
1528445959070622,2,2,1,0,4,1,-1,4
1528445959085553,0,-3,-9,3,3,4,4,0
1528445959085553,-2,0,-4,-4,-12,-8,-9,-3
1528445959093577,1,-1,7,-7,-5,-6,1,1
1528445959093577,0,0,-15,-2,-2,-1,-1,-2
1528445959100549,0,-4,0,8,19,2,-1,-2
1528445959100549,5,3,2,-2,-10,-1,1,3
1528445959115526,3,0,0,7,-4,1,2,3
1528445959115526,-6,3,-1,5,-7,0,1,-7
1528445959123507,1,1,1,11,5,-11,-2,1
1528445959123507,0,-5,-7,-14,-7,4,3,5
1528445959138423,-1,1,3,1,27,6,1,-1
1528445959138423,0,0,3,7,-2,-4,-4,-1
1528445959145412,-3,-5,-6,-10,-14,-6,-7,-6
1528445959145412,-4,2,2,-4,-4,-4,-3,-5
1528445959153424,-3,-4,-8,0,1,-2,0,-2
1528445959153424,1,2,-2,-15,-26,-19,-13,-3
1528445959160356,31,26,9,21,23,32,23,7
1528445959160356,-17,-3,2,19,24,18,11,4
1528445959175313,-8,-15,-15,-15,-5,6,4,-1
1528445959175313,-2,1,9,27,10,-4,-2,-3
1528445959183319,-6,-12,-22,7,-20,-16,-11,-7
1528445959183319,16,11,-2,13,-10,-7,-5,6
1528445959198252,5,14,25,35,15,1,-3,-4
1528445959198252,-1,-5,-6,-21,-6,1,3,4
1528445959206231,-2,0,2,-22,1,-1,-2,1
1528445959206231,8,4,6,6,7,6,6,8
1528445959213212,-9,-9,-12,-21,-16,-10,-9,-8
1528445959213212,6,7,11,5,12,4,4,5
1528445959221190,-10,-6,-1,1,-17,-12,-15,-8
1528445959221190,-5,-7,-14,-15,11,6,10,-5
1528445959236208,-21,-5,2,16,-18,-10,-13,-25
1528445959236208,3,3,-2,68,23,11,5,0
1528445959243185,-2,-6,-15,-1,-10,4,5,7
1528445959243185,0,0,3,60,2,-6,-5,-2
1528445959258092,8,5,-5,12,0,5,4,7
1528445959258092,-3,-1,-2,-28,-6,-9,-4,-4
1528445959266071,-6,-9,-6,-22,-5,-2,-1,-1
1528445959266071,0,-5,-5,-53,-12,-8,-5,0
1528445959273052,8,3,2,-17,8,4,5,10
1528445959273052,-7,1,10,-19,-9,-7,-8,-8
1528445959281031,2,1,9,-11,2,-2,-1,0
1528445959281031,6,5,-1,-2,4,4,0,0
1528445959295991,4,2,0,33,-1,-3,0,3
1528445959295991,2,-3,-15,91,-5,1,2,2
1528445959317932,-3,-2,-15,112,2,3,4,3
1528445959317932,-6,-7,-59,127,4,-6,-9,-8
1528445959340886,4,4,-113,90,-3,6,6,6
1528445959340886,7,2,-128,71,3,6,5,7
1528445959347853,-7,-5,-128,46,1,1,2,0
1528445959347853,-4,2,-89,-14,-10,-10,-10,-12
1528445959355831,3,1,-26,-58,2,4,4,5
1528445959355831,-4,0,36,-113,0,-2,-2,-3
1528445959362812,-1,2,93,-122,1,1,4,2
1528445959362812,5,2,127,-117,-4,-5,-3,7
1528445959385782,6,4,35,-5,-5,-4,-8,-7
1528445959385782,-1,4,10,1,-8,-12,-5,0
1528445959393033,0,2,-11,21,-8,-3,3,6
1528445959393033,-6,-5,-4,19,15,17,9,1
1528445959401022,5,6,-20,36,-1,-4,-8,-7
1528445959401022,2,6,-15,-14,-9,-9,-2,4
1528445959416194,-2,-3,-10,-7,9,8,4,3
1528445959416194,4,0,3,-13,-18,-32,-15,-2
1528445959422929,-3,4,29,-13,22,45,23,4
1528445959422929,-3,-5,13,-27,-4,-6,-5,-7
1528445959437915,-5,-6,13,-23,-7,-2,-5,-7
1528445959437915,-1,-3,2,1,-9,-31,-15,-6
1528445959446129,0,4,23,7,2,8,10,3
1528445959446129,8,5,7,7,-1,0,4,9
1528445959453392,2,-3,11,11,15,16,10,4
1528445959453392,0,0,12,-15,1,2,-4,-2
1528445959461117,-9,-4,7,-15,-17,-31,-18,-9
1528445959461117,1,0,5,-14,-3,3,1,-2
1528445959476072,-1,2,16,-14,-7,-7,-4,0
1528445959476072,6,5,19,8,2,8,5,5
1528445959483394,-3,-6,-15,-8,-2,-5,-6,2
1528445959483394,4,3,0,-3,-1,-7,-2,4
1528445959498014,-5,-3,-1,-9,-3,4,4,-2
1528445959498014,-4,-1,-2,-6,2,9,5,0
1528445959506217,5,8,10,-9,-14,-16,-12,-7
1528445959506217,2,2,-3,3,18,22,14,9
1528445959513531,1,3,-7,-3,-2,-10,-9,-10
1528445959513531,0,-3,-8,15,3,13,11,5
1528445959520776,-1,-4,-8,14,1,-5,-5,1
1528445959520776,-1,1,3,-1,-5,-12,-4,0
1528445959535730,-2,1,6,7,-6,3,2,-4
1528445959535730,0,2,1,-2,6,8,0,-3
1528445959543713,-5,-5,-13,10,-13,-22,-10,-4
1528445959543713,0,2,-3,17,0,1,-4,-2
1528445959558678,3,0,-13,15,8,11,7,5
1528445959558678,-5,-4,-17,17,-11,-9,-4,-2
1528445959566505,0,-2,-16,4,2,12,6,-4
1528445959566505,8,2,-17,7,9,18,11,7
1528445959573376,-5,-1,-11,9,-3,-8,-7,-2
1528445959573376,0,-3,-11,-6,1,0,-2,-2
1528445959581464,-2,-1,-4,6,5,-2,-1,-1
1528445959581464,-5,-2,-2,0,-5,-3,-1,-5
1528445959596573,2,-1,-3,6,2,-1,-2,0
1528445959596573,-3,-1,-5,13,-2,1,4,4
1528445959611507,0,1,-2,28,2,5,1,1
1528445959611507,-3,-4,-7,56,-3,-5,-2,-4
1528445959618666,-2,0,-2,54,-4,-6,-2,-7
1528445959618666,3,1,1,38,-2,0,-3,5
1528445959633496,-1,1,3,7,2,2,2,4
1528445959633496,-9,-2,-1,-24,-1,-3,-1,-12
1528445959641052,-1,-2,-3,-42,-2,-4,-5,-3
1528445959641052,6,-1,-3,-56,0,3,5,9
1528445959655462,0,6,4,-37,-2,-2,-3,0
1528445959655462,-1,0,2,-26,4,8,2,-4
1528445959670660,-4,-13,-3,-21,-2,-6,-2,5
1528445959670660,-1,7,12,0,4,-1,-9,-10
1528445959678641,0,-7,-8,-15,-1,3,4,6
1528445959678641,5,7,5,-5,1,-1,-3,-5
1528445959693663,2,3,2,-2,0,4,2,3
1528445959693663,3,1,4,1,-10,-17,0,1
1528445959701105,-1,-1,12,15,20,37,12,6
1528445959701105,-1,-3,-9,-16,-10,-6,-2,-12
1528445959716440,6,-8,-2,1,-8,-14,-10,0
1528445959716440,-3,-1,7,5,3,2,2,5
1528445959731295,-5,-7,-1,-1,-1,0,1,-1
1528445959731295,-6,-2,-1,-1,2,3,-1,-4
1528445959738438,10,10,-1,-5,-4,-9,2,9
1528445959738438,-6,-1,7,5,3,6,0,-9
1528445959753231,6,6,0,-1,-2,-8,-3,0
1528445959753231,-3,-4,-1,1,3,4,-1,2
1528445959761646,0,-4,-3,-4,-2,-5,0,0
1528445959761646,-3,0,-1,2,0,-4,-1,-5
1528445959775725,0,-3,-3,1,-1,-3,-2,7
1528445959775725,3,2,2,4,0,-2,-3,1
1528445959791473,-2,-6,-1,0,-4,-2,-2,-1
1528445959791473,1,-7,-12,0,2,6,1,4
1528445959798655,-6,2,2,0,-3,-7,-5,-6
1528445959798655,-3,-4,0,4,1,0,0,2
1528445959813669,0,-1,-4,3,0,1,2,0
1528445959813669,-3,0,0,-1,-3,-4,-4,-9
1528445959820902,-4,0,-1,0,-3,-1,-2,0
1528445959820902,0,-2,-3,1,-1,-1,1,6
1528445959836645,-4,-3,-2,0,-2,-1,0,-4
1528445959836645,-1,-1,-2,-1,-1,0,0,0
1528445959850834,-4,3,2,3,0,-3,-3,-8
1528445959850834,2,-6,-4,-2,-1,0,-1,6
1528445959858805,-3,5,1,1,0,-3,0,-2
1528445959858805,-3,-9,-3,2,-1,-2,0,-2
1528445959873269,5,9,1,2,2,4,1,2
1528445959873269,-1,-4,-2,0,-1,0,-1,4
1528445959881249,-3,1,0,2,1,0,-2,-7
1528445959881249,3,1,-2,0,0,0,0,5
1528445959896496,-4,-5,-6,1,2,0,2,3
1528445959896496,-3,2,1,0,-1,1,-3,-3
1528445959910716,4,-1,-3,0,2,1,2,6
1528445959910716,-5,0,-1,0,-2,1,-1,-3
1528445959918956,1,-1,2,1,-3,-2,-1,-3
1528445959918956,-4,-5,-2,-1,0,0,0,0
1528445959933657,1,-2,-1,0,-1,0,-2,-3
1528445959933657,-1,0,0,2,-1,-3,0,2
1528445959948877,4,4,2,1,-1,0,-1,2
1528445959948877,-1,-4,-4,-1,0,0,-3,-3
1528445959955857,-1,-2,-1,-1,-2,-2,-2,-3
1528445959955857,-1,-1,0,0,-1,-1,-1,2
1528445959970816,-4,-1,-1,-1,-1,0,-2,-4
1528445959970816,0,1,0,1,0,-1,0,2
1528445959978789,-2,0,-4,0,0,-2,-1,-2
1528445959978789,1,0,-2,-1,0,0,0,-4
1528445959993493,-1,-2,-3,-2,-1,-1,-2,-1
1528445959993493,-1,0,-1,1,1,0,0,0
1528445960001504,0,0,1,0,1,-2,-1,1
1528445960001504,2,0,-1,-2,1,0,-1,0
1528445960016509,0,4,0,-1,0,-1,-1,-9
1528445960016509,0,-3,-2,-1,-3,-1,-1,5
1528445960031466,-4,-3,-2,1,0,-1,-1,0
1528445960031466,-1,-1,0,-1,0,0,-1,1
1528445960038374,-3,-3,-3,-1,-4,-2,-2,-1
1528445960038374,5,6,1,-1,4,2,1,-2
1528445960060346,-2,-2,-2,1,-1,-1,-2,2
1528445960060346,-1,0,-1,1,-2,-2,-1,-3
1528445960076482,2,2,-1,-1,-2,-2,-1,-1
1528445960076482,0,-3,-8,0,2,1,1,0
1528445960083521,0,-2,-1,-2,-1,-1,1,2
1528445960083521,-7,-3,-2,-1,-1,-2,0,-5
1528445960098470,6,1,-2,-1,0,1,1,0
1528445960098470,-2,-1,2,-1,-2,0,-2,-2
1528445960106601,4,2,1,1,0,1,0,3
1528445960106601,-2,-2,0,1,0,-1,2,-1
1528445960113785,2,-1,-1,0,1,0,0,1
1528445960113785,-2,0,0,-1,-1,-1,0,-3
1528445960128987,1,-3,-2,-3,-3,-2,-3,3
1528445960128987,1,2,0,0,-1,0,1,-3
1528445960136267,0,-2,-2,-1,-1,0,-1,3
1528445960136267,-1,-1,0,-1,-1,-2,-2,-4
1528445960151253,-4,0,0,0,-1,0,1,1
1528445960151253,1,1,1,0,-2,-1,0,0
1528445960158498,-4,-2,0,-1,-1,-1,-1,-3
1528445960158498,2,2,1,-1,0,0,-1,-1
1528445960173200,3,1,-1,2,0,1,-2,2
1528445960173200,-1,2,1,-1,-1,-2,-2,-4
1528445960181532,-6,-2,-1,-1,0,-2,0,-2
1528445960181532,3,-2,-1,0,0,0,-2,5
1528445960195700,2,0,-2,0,-2,0,-1,-1
1528445960195700,-7,-2,-2,-1,0,0,-2,-4
1528445960210767,4,0,0,0,-1,0,2,5
1528445960210767,-5,-3,-2,-1,-1,0,-1,-6
1528445960219001,8,2,1,-2,-1,-1,1,7
1528445960219001,0,-1,-1,-1,-1,0,0,-2
1528445960233959,-1,-3,-1,1,0,-1,1,-1
1528445960233959,-3,-2,-3,0,0,-1,-1,-3
1528445960248665,-3,-1,-3,-2,0,-1,-3,-2
1528445960248665,1,-2,-1,0,-1,0,-1,1
1528445960255648,1,1,0,-1,-1,-1,-3,0
1528445960255648,-2,-2,0,-2,-1,1,0,1
