timestamp,emg1,emg2,emg3,emg4,emg5,emg6,emg7,emg8
1528878396414946,0,-25,21,-2,-1,-1,-3,2
1528878396414946,2,18,-2,15,-1,-2,-2,3
1528878396437886,7,-22,30,-23,-7,-3,-4,-5
1528878396437886,-30,0,-36,-7,-5,-3,-3,-6
1528878396439880,8,-10,-10,10,10,1,0,3
1528878396439880,7,-8,-13,-14,-18,-3,0,-3
1528878396451859,5,13,18,28,13,1,14,4
1528878396451859,5,-30,14,3,-5,-4,-14,-7
1528878396460838,5,12,-44,-24,10,3,-3,6
1528878396460838,-2,-1,11,-2,-9,0,-2,1
1528878396474786,-23,-23,-15,-23,-12,-5,1,-7
1528878396474786,1,-2,-6,21,4,-3,-2,-10
1528878396476781,-2,25,13,-30,-13,-3,0,2
1528878396476781,1,-12,12,18,12,2,2,2
1528878396497725,5,8,-7,15,-32,-24,-13,-3
1528878396497725,1,3,-5,-23,42,17,11,2
1528878396499720,2,13,15,16,8,12,3,2
1528878396499720,-9,-1,3,9,11,9,3,-3
1528878396511687,-2,-4,-8,-2,3,1,-6,2
1528878396511687,8,6,23,-8,-8,-5,11,3
1528878396520663,-4,-4,-10,-8,-49,-19,-14,-7
1528878396520663,-3,-6,-34,-5,40,17,18,4
1528878396535623,1,8,-2,-17,24,18,-7,3
1528878396535623,20,4,24,72,15,-7,0,-1
1528878396536621,-27,-15,-18,-14,-28,-10,4,1
1528878396536621,-2,-11,-3,7,5,-7,-15,-4
1528878396557565,1,4,-11,-35,-12,-3,2,-3
1528878396557565,3,7,8,-2,10,-12,-5,-1
1528878396559559,6,-11,36,-6,-14,8,9,1
1528878396559559,-12,-2,-22,27,-49,0,-5,-5
1528878396571527,6,3,-9,6,69,24,4,2
1528878396571527,-1,3,8,-23,-24,-19,9,0
1528878396580506,-2,-4,-12,25,15,-18,-14,-4
1528878396580506,0,5,28,-7,-13,2,-1,1
1528878396595463,5,-3,-15,1,-14,8,-26,-2
1528878396595463,-4,-5,-13,-1,-13,3,35,2
1528878396597459,-1,0,-6,-20,4,1,-1,3
1528878396597459,-3,-2,12,-17,7,-12,-4,-2
1528878396617405,-2,3,9,27,-3,-4,1,0
1528878396617405,-3,2,9,-28,3,2,-18,-4
1528878396619415,6,5,5,27,15,7,10,-1
1528878396619415,-3,-3,8,18,-3,0,-1,-2
1528878396631368,1,-7,-21,-24,-26,-14,0,-2
1528878396631368,-13,-5,-10,-5,14,4,-15,-5
1528878396640344,-3,-3,-1,-8,-4,-9,-4,-5
1528878396640344,15,3,-5,-12,-3,9,5,23
1528878396655307,-5,1,12,9,-12,-8,-33,-46
1528878396655307,-4,-8,-11,-13,-20,13,56,-1
1528878396657299,-4,8,21,30,17,18,13,9
1528878396657299,-5,4,-15,-28,0,-19,-7,-1
1528878396677245,0,-18,-57,1,-7,-10,-2,6
1528878396677245,-4,-20,2,-11,-11,-2,-29,10
1528878396679240,11,-10,30,14,11,5,2,-1
1528878396679240,-2,-9,-35,-26,-11,-6,9,-4
1528878396691208,-4,13,37,9,5,3,7,6
1528878396691208,1,2,-8,-2,-12,-5,-26,-10
1528878396700194,5,2,-11,-11,-3,-8,-3,5
1528878396700194,1,2,17,6,-3,1,-7,-4
1528878396715143,-3,-1,3,5,3,-3,8,2
1528878396715143,-2,1,-21,8,3,-3,-15,9
1528878396717138,9,6,4,-6,-5,-4,-33,-20
1528878396717138,-9,-2,-5,-11,0,7,36,-3
1528878396738083,-7,0,20,14,0,-9,-6,-4
1528878396738083,-2,2,-2,-11,-8,2,2,9
1528878396739081,-14,-9,-17,-10,2,10,1,-1
1528878396739081,10,3,11,5,2,-2,-13,-9
1528878396751048,0,-3,1,-2,-5,-6,9,-6
1528878396751048,2,2,16,2,0,-3,-8,-10
1528878396760023,-4,8,-18,-3,1,-1,1,-13
1528878396760023,-2,-3,11,-2,-2,-9,-6,12
1528878396774984,1,9,16,8,2,7,11,5
1528878396774984,16,4,-26,-1,3,7,3,6
1528878396776978,-10,-10,-4,-7,-4,-13,-62,-15
1528878396776978,16,-3,-3,-2,0,-5,27,37
1528878396797923,-21,-1,-19,-2,-1,12,9,-11
1528878396797923,3,6,11,2,-2,-3,1,0
1528878396798933,4,-6,-6,2,1,0,5,-4
1528878396798933,-6,4,36,3,4,-4,-20,-5
1528878396810888,5,-3,-7,-3,-3,-7,1,10
1528878396810888,2,-5,-10,2,-1,3,-8,-1
1528878396820862,2,1,10,3,2,1,27,6
1528878396820862,-6,-2,-9,-2,-3,-6,-22,0
1528878396834824,7,-2,9,-1,-2,6,12,6
1528878396834824,-16,14,9,-4,-6,-7,-6,-24
1528878396836818,2,-1,-7,-6,-2,-18,-40,20
1528878396836818,6,1,-3,2,1,11,69,35
1528878396857762,22,2,-8,1,0,-11,-19,13
1528878396857762,18,-1,1,2,1,5,-1,4
1528878396859757,-4,2,5,3,3,-7,-23,4
1528878396859757,1,-4,-10,-3,-4,3,-2,-10
1528878396871762,15,29,5,-3,-2,-11,-39,-6
1528878396871762,-61,-38,-14,-4,-6,9,31,-52
1528878396880702,51,-10,-22,-1,6,13,8,37
1528878396880702,-32,-26,12,6,3,-11,-53,-36
1528878396895662,-2,-6,-37,-23,-7,-6,11,-5
1528878396895662,4,11,6,5,-1,-7,-32,-48
1528878396896659,-6,21,2,-6,-11,-3,18,2
1528878396896659,-19,-8,-25,23,30,9,9,-46
1528878396917630,-5,38,20,-12,1,11,70,18
1528878396917630,14,-19,22,13,-3,-13,-23,25
1528878396919598,7,54,-1,-2,3,2,-3,-7
1528878396919598,-22,-35,44,16,-4,-1,44,-10
1528878396931566,4,-19,-65,-3,-13,-13,-57,-4
1528878396931566,5,1,-16,-49,-26,8,22,13
1528878396940556,-29,-25,13,50,70,31,16,-18
1528878396940556,42,53,26,23,-1,-8,-68,2
1528878396955536,5,10,13,-17,-1,-1,33,21
1528878396955536,-20,3,-32,4,-8,-22,-53,-14
1528878396956537,-7,20,1,-64,-28,2,69,2
1528878396956537,23,-13,-12,24,7,-10,-16,42
1528878396977496,-6,-17,24,24,6,26,4,-10
1528878396977496,2,17,18,-22,-5,-4,8,9
1528878396979438,-17,1,20,-15,-11,-10,-18,-27
1528878396979438,-4,28,-39,-73,-46,-27,-11,-12
1528878396991405,-13,-19,23,54,9,-1,-7,-6
1528878396991405,8,7,-56,14,67,30,15,16
1528878397000389,-1,-34,-13,2,-7,-5,-3,-1
1528878397000389,3,31,34,-21,-42,-6,4,6
1528878397014344,-5,-32,2,5,7,-7,-11,-6
1528878397014344,7,24,13,-7,-11,3,6,6
1528878397021325,-4,-46,-5,29,-1,-4,-3,2
1528878397021325,-5,-15,-75,-15,10,10,0,-6
1528878397037282,-14,3,0,-30,-19,-7,-9,-4
1528878397037282,15,2,32,27,4,-4,4,14
1528878397039277,9,4,16,-8,-4,3,6,-1
1528878397039277,-2,-11,-24,-6,-4,1,-6,-9
1528878397051245,-5,-8,-11,4,10,1,2,-1
1528878397051245,21,-17,10,-5,-4,0,5,13
1528878397060227,-3,-7,10,7,-11,-9,-7,25
1528878397060227,16,8,-2,-2,10,1,-29,-17
1528878397074218,-2,6,5,6,2,5,16,-10
1528878397074218,2,-4,13,3,-5,-6,-7,11
1528878397081170,-7,9,-11,-11,-15,-1,9,-3
1528878397081170,-4,-3,18,14,15,-16,-19,-27
1528878397098157,-4,-9,-14,-10,-2,14,0,25
1528878397098157,-8,1,34,5,-13,-18,-34,48
1528878397099118,16,0,-42,-6,3,1,54,-31
1528878397099118,11,3,8,0,7,37,92,12
1528878397111143,-18,0,12,-1,-5,-21,-23,2
1528878397111143,0,4,2,10,0,0,-18,-27
1528878397120077,0,-4,11,1,-2,-25,83,45
1528878397120077,-41,1,3,5,13,50,4,18
1528878397134081,39,-6,-21,-9,-5,25,3,-17
1528878397134081,-14,-8,0,-2,-7,-9,-23,-73
1528878397141066,-55,-5,8,2,0,-13,-38,52
1528878397141066,23,-11,-10,-2,-5,-30,-6,-11
1528878397157023,-4,8,14,5,9,34,44,-32
1528878397157023,-16,-7,-12,-10,-5,-26,-37,-5
1528878397157961,66,51,-6,-2,-2,16,9,2
1528878397157961,0,-59,10,-2,-2,-32,-7,-47
1528878397179901,-93,27,11,-12,-4,37,37,-23
1528878397179901,57,-81,-10,6,-1,1,35,70
1528878397179901,3,16,-12,-10,-8,-16,-51,-3
1528878397179901,-3,-10,-17,2,5,8,53,65
1528878397193920,21,-19,-14,8,1,-23,-32,-27
1528878397193920,-27,42,6,-17,-2,1,-25,18
1528878397200846,-12,-26,34,6,-11,18,-4,-22
1528878397200846,-4,-27,-23,14,1,-23,-82,2
1528878397216952,33,-15,6,-16,-11,-13,29,36
1528878397216952,-39,11,20,25,13,9,34,-9
1528878397217801,27,-9,-45,-26,1,-1,-31,6
1528878397217801,-1,28,12,-8,-12,5,-17,-19
1528878397239723,11,30,-7,-16,-12,-25,-13,-6
1528878397239723,-5,-23,-21,-9,11,17,10,-5
1528878397240557,-2,-4,17,-29,-12,-10,-25,-7
1528878397240557,-17,10,-13,8,-20,-5,5,-7
1528878397253940,-4,3,12,26,59,7,-8,47
1528878397253940,33,36,26,36,-8,-11,18,2
1528878397261287,-60,-28,-21,-3,4,6,-17,-24
1528878397261287,3,2,4,-28,-1,15,9,-1
1528878397277287,12,12,-5,-27,-25,-20,-22,7
1528878397277287,-6,-16,55,0,-28,-7,2,-10
1528878397278434,-7,-67,-37,-22,23,5,0,-23
1528878397278434,3,58,5,-29,4,2,-8,-5
1528878397300003,-9,-25,-15,30,20,4,-14,0
1528878397300003,9,17,-23,16,-11,1,17,-3
1528878397300968,-1,11,39,-14,-15,3,4,-5
1528878397300968,-7,-1,19,2,-14,-19,-16,3
1528878397314450,0,-76,-35,-15,-12,-11,-10,-2
1528878397314450,19,19,-22,-32,-3,3,-1,-14
1528878397321698,2,34,25,25,-17,-6,-8,1
1528878397321698,-19,-6,-20,-9,1,4,1,5
1528878397344839,7,22,17,14,0,-7,-5,-17
1528878397344839,-10,-22,-13,-13,-3,5,5,-1
1528878397345835,8,17,3,10,3,2,4,-9
1528878397345835,-5,-10,-20,26,24,7,-4,8
1528878397359912,-10,3,-2,-17,-11,-2,36,-4
1528878397359912,-2,-1,-12,-12,-5,1,-4,5
1528878397360964,-5,2,29,25,9,-6,-4,-12
1528878397360964,-11,3,15,3,0,5,-5,-1
1528878397382153,-9,-1,-1,-2,-12,-7,-10,0
1528878397382153,-12,9,-7,-8,7,0,7,-47
1528878397382994,-4,8,-8,15,7,-5,-35,-23
1528878397382994,-4,-12,32,0,-6,14,61,0
1528878397404936,28,10,8,-9,-8,-5,-24,7
1528878397404936,-18,-3,26,9,10,1,11,-2
1528878397404936,-23,-7,-18,-6,-6,-27,-45,10
1528878397404936,-4,-17,-24,-6,-4,20,14,-40
1528878397419928,-4,-2,-1,2,-4,-11,12,39
1528878397419928,-31,8,2,-8,-1,-34,-82,-43
1528878397421015,36,12,-1,6,-5,16,5,14
1528878397421015,-1,9,4,6,13,59,86,47
1528878397442001,-21,12,1,4,1,-27,-22,-41
1528878397442001,9,6,-21,-5,0,17,-31,-16
1528878397442834,47,-12,-13,-2,-7,-9,24,56
1528878397442834,44,-21,-4,0,4,4,-45,-28
1528878397464935,-1,-6,24,-1,-6,-20,-23,-16
1528878397464935,-48,-3,-6,3,-1,-6,-25,-25
1528878397465810,-19,23,-5,15,7,-6,39,15
1528878397465810,33,-11,34,-23,-4,19,61,-36
1528878397479964,-38,-6,-15,15,-4,-3,-23,-37
1528878397479964,47,15,-3,-33,-10,-14,0,54
1528878397479964,-4,-19,-12,12,7,19,-13,11
1528878397479964,-48,7,-13,-12,0,-46,-128,-9
1528878397501876,13,-42,15,12,8,27,30,-32
1528878397501876,15,0,18,8,-1,7,38,56
1528878397502871,-9,23,32,-7,-4,12,4,-15
1528878397502871,-6,5,-10,-12,-11,-21,-31,-30
1528878397525678,17,23,-21,0,2,-1,-18,4
1528878397525678,15,-7,-26,0,5,3,33,45
1528878397526625,4,-21,29,7,8,9,-33,-50
1528878397526625,24,22,-4,10,-10,-125,-55,15
1528878397539640,11,7,-4,-6,5,97,88,43
1528878397539640,9,-3,3,12,9,55,74,5
1528878397540481,-13,2,-23,-13,-7,-14,5,-19
1528878397540481,5,-3,-4,7,-1,-3,-6,7
1528878397562644,-3,-2,-4,-4,-12,-54,-59,-2
1528878397562644,-3,-12,9,-4,-40,-32,-11,-22
1528878397562644,-5,2,-31,-15,60,26,10,-2
1528878397562644,-5,-7,14,5,-2,5,1,23
1528878397585639,7,6,40,8,-15,-16,-10,9
1528878397585639,-10,6,-25,-42,-6,10,-5,-5
1528878397586479,-7,-21,26,42,-8,-15,5,-2
1528878397586479,-16,6,3,9,10,15,3,11
1528878397599826,-2,19,-24,-16,-1,-1,4,4
1528878397599826,22,-20,22,-5,-8,-7,-5,-14
1528878397600661,-21,9,-16,-20,-4,-6,-4,4
1528878397600661,-9,-29,-11,7,-2,9,11,2
1528878397622634,8,0,-9,5,12,7,-4,6
1528878397622634,-4,8,-11,-24,-4,-18,-10,-4
1528878397622634,-1,-9,0,8,-19,-6,0,-5
1528878397622634,-3,3,-4,14,5,16,6,7
1528878397645791,-7,4,-54,-32,-2,-13,-8,-2
1528878397645791,-11,-8,-20,-5,7,-2,-5,-5
1528878397645791,2,-3,19,30,4,0,6,-3
1528878397645791,-3,10,-12,-30,-22,-2,2,-1
1528878397659802,-4,-27,-20,-67,-11,-12,-12,-4
1528878397659802,-2,1,-1,42,35,10,5,0
1528878397660914,0,-1,-5,0,-21,-5,2,-1
1528878397660914,2,5,12,12,9,2,0,4
1528878397682103,2,3,20,37,11,-2,-2,2
1528878397682103,-5,0,-8,-17,4,3,-3,-2
1528878397682955,0,6,21,11,1,-5,-1,-1
1528878397682955,-4,-10,-69,9,-13,-2,-5,0
1528878397705282,3,2,8,-32,4,3,4,3
1528878397705282,-7,-1,11,29,9,3,-2,-2
1528878397706115,2,-4,-15,9,-7,-5,-2,-4
1528878397706115,-1,4,14,-8,11,5,3,0
1528878397720120,0,-3,8,12,-16,-7,-2,2
1528878397720120,1,3,-3,0,-4,-5,-3,-2
1528878397720120,-9,5,1,-17,-2,3,4,3
1528878397720120,1,-4,15,-9,-4,2,0,-2
1528878397742488,-2,-2,-17,21,6,0,-4,1
1528878397742488,-4,0,11,-3,-11,-5,-2,-3
1528878397743488,5,-2,-10,-16,-9,-4,-3,-3
1528878397743488,-3,-4,0,-6,3,2,1,1
1528878397765798,-1,7,21,13,-7,-3,-3,-2
1528878397765798,4,0,3,20,5,0,0,-1
1528878397766702,0,-6,-28,-37,-6,0,1,1
1528878397766702,0,4,26,18,4,1,0,1
1528878397778731,1,-1,-2,-5,-2,-3,-3,-1
1528878397778731,-9,-4,-9,2,1,0,-2,1
1528878397787660,8,0,-2,-4,-4,-2,1,0
1528878397787660,-4,0,10,-9,-4,0,-1,-2
1528878397801738,1,0,-6,14,1,-2,-1,-2
1528878397801738,0,8,39,17,7,2,1,0
1528878397802590,-5,-15,-73,-22,-9,-1,-3,-1
1528878397802590,3,1,35,-6,-2,3,0,1
1528878397825668,5,1,4,5,1,0,0,9
1528878397825668,-6,0,-3,0,-1,-2,-3,-5
1528878397825668,1,2,8,4,0,1,2,0
1528878397825668,0,0,5,3,2,1,1,-1
1528878397838477,1,-1,-24,-7,-1,-1,-1,1
1528878397838477,-1,-2,-10,-3,-5,-3,-3,-1
1528878397847454,0,2,9,9,2,3,1,0
1528878397847454,-3,-8,-36,-10,3,-1,-3,-2
1528878397862590,-4,-1,7,1,-1,-3,-3,-3
1528878397862590,0,-3,-13,-6,-3,0,1,0
1528878397862590,-2,0,8,3,1,-1,-2,-4
1528878397862590,-1,1,3,4,-2,-3,-1,-1
1528878397885688,-1,1,12,-3,-1,-2,-1,-4
1528878397885688,-3,-5,-12,-5,-5,-2,-3,2
1528878397886610,-2,0,12,-5,-1,-3,-1,1
1528878397886610,-2,-2,-2,0,-4,-2,0,-2
1528878397898521,-1,-3,1,4,0,-1,1,-2
1528878397898521,5,-1,-5,-3,1,0,-1,-1
1528878397907614,0,-1,15,-2,-2,-2,0,-1
1528878397907614,-1,0,-8,-1,-1,1,-1,0
1528878397922629,1,-1,2,3,-2,-1,0,-3
1528878397922629,-1,-1,-1,0,4,0,-2,-1
1528878397922629,-2,-2,8,-6,-7,-3,-3,-1
1528878397922629,-2,-1,-1,5,6,-1,0,-3
1528878397945919,-2,1,7,2,3,1,0,-1
1528878397945919,-2,-4,-8,-4,-5,-4,0,-2
1528878397945919,0,-4,-6,-1,-2,-2,-2,-4
1528878397945919,-1,0,5,-2,-3,-3,-2,0
1528878397959786,-2,-2,-5,-2,-2,-1,0,0
1528878397959786,-1,-1,-4,-2,-2,-1,-1,-2
1528878397960736,-1,0,15,0,-1,0,-2,0
1528878397960736,-1,-3,-32,-5,-2,0,-2,0
1528878397981837,-1,0,21,4,0,-1,0,1
1528878397981837,-1,0,-2,-3,-2,-2,-1,-4
1528878397982693,0,2,22,-3,-3,-1,-1,2
1528878397982693,0,0,-4,-1,-4,-2,-2,0
1528878398005773,-1,-1,-5,-3,0,-1,-4,-2
1528878398005773,0,1,-4,1,3,1,-1,-2
1528878398005773,-1,0,2,-5,-4,-1,-1,-1
1528878398005773,-2,3,23,16,9,1,-1,-3
1528878398018721,-2,-4,-38,-2,3,4,0,1
1528878398018721,0,0,13,4,-5,-2,0,2
1528878398026579,-3,-6,-30,-10,-3,-3,0,-3
1528878398026579,1,2,7,-5,-10,-5,0,-1
1528878398042610,-1,0,3,0,0,0,-2,-2
1528878398042610,-1,-3,-2,-3,0,0,0,-1
1528878398042610,-2,-2,-16,4,0,-1,-2,-1
1528878398042610,-1,-2,1,-4,-1,-1,-2,0
1528878398065466,-1,-2,-4,0,-2,-1,-2,-1
1528878398065466,-2,-1,-6,-3,0,-1,-1,0
1528878398066456,0,2,24,3,2,1,-1,-2
1528878398066456,-1,-2,-6,0,-2,0,0,-3
1528878398079662,-2,-3,6,-6,-5,-2,-2,-2
1528878398079662,-1,2,-6,4,0,-2,-2,0
1528878398080683,-1,-1,5,-3,0,-2,-1,-1
1528878398080683,-1,-3,-11,-4,-2,-1,-1,0
1528878398102618,0,2,24,5,-1,-3,-1,1
1528878398102618,-2,-3,-18,-5,-2,-1,1,0
1528878398102618,0,2,9,5,2,2,-1,0
1528878398102618,-3,-7,-30,-8,-2,-1,-1,-3
1528878398125677,-2,1,17,0,-1,-1,-1,-2
1528878398125677,-2,-3,-7,-2,0,-1,-1,1
1528878398126672,-2,0,6,1,2,-1,0,0
1528878398126672,-2,3,-3,-3,-3,-1,-2,0
1528878398138783,-2,-2,8,1,0,-2,-2,-1
1528878398138783,1,4,-6,-9,-2,-1,-2,0
1528878398147624,-1,-6,-1,3,0,0,-1,0
1528878398147624,1,-2,-3,0,-2,1,-1,0
1528878398161903,-1,-4,-5,-2,-1,-2,1,0
1528878398161903,-5,-3,-20,-13,-6,-3,-3,-3
1528878398162775,-2,-4,-13,-4,-3,-2,-1,-1
1528878398162775,0,4,16,0,-2,-3,-1,0
1528878398185809,-2,-2,-5,3,0,0,0,-1
1528878398185809,-1,-1,12,6,1,0,-1,-2
1528878398185809,1,-6,-19,-5,-2,-1,-1,1
1528878398185809,-2,-4,5,-1,0,1,1,0
1528878398207763,1,1,-3,-2,-2,0,-2,1
1528878398207763,0,-3,-4,1,-2,-1,-2,-1
1528878398208637,0,21,19,4,-1,-2,-1,-2
1528878398208637,1,-10,-11,-4,-3,0,-1,1
1528878398223598,0,0,0,-3,-4,-2,-1,-3
1528878398223598,1,4,15,2,0,-1,0,-1
1528878398226619,0,-7,-18,0,2,-1,0,-1
1528878398226619,-3,2,14,1,0,-2,-1,-2
1528878398238557,-2,-1,2,1,-1,-2,-1,-2
1528878398238557,-3,-33,-3,-4,-2,-3,-2,-2
1528878398240553,1,8,4,2,2,1,0,0
1528878398240553,-6,-30,-17,-7,-3,-1,-2,-1
1528878398251523,-3,2,-12,1,1,0,0,-2
