timestamp,emg1,emg2,emg3,emg4,emg5,emg6,emg7,emg8
1529288240298708,2,0,1,4,2,0,5,-1
1529288240298708,6,11,5,0,-2,-1,0,-2
1529288240300703,-7,-12,-5,-7,-3,-6,-13,-12
1529288240300703,-2,0,-1,-3,-5,-16,-27,-17
1529288240300703,0,-10,-1,3,11,34,36,18
1529288240300703,1,1,-2,2,1,4,7,4
1529288240303693,2,1,-2,1,0,2,7,5
1529288240303693,-1,2,-2,-3,-5,-5,-3,-1
1529288240312670,-4,0,0,-2,-8,-14,-16,-9
1529288240312670,0,1,3,-1,1,0,2,5
1529288240319650,-3,-6,-4,3,3,-3,-1,-2
1529288240319650,-2,-4,-1,2,0,-4,0,1
1529288240326675,2,6,-1,0,-2,-8,-7,0
1529288240326675,-4,0,-1,-4,0,-2,-3,-3
1529288240340594,-4,-1,-1,1,1,1,0,-5
1529288240340594,2,-2,2,4,4,6,2,-3
1529288240352561,5,1,0,2,-2,4,-3,1
1529288240352561,1,2,-3,4,3,-5,-9,-1
1529288240355553,-1,2,3,2,2,5,8,8
1529288240355553,2,6,2,-4,5,12,13,3
1529288240372511,0,8,7,-1,3,-3,-2,-1
1529288240372511,0,-7,-2,-2,-2,-2,-6,-4
1529288240379493,-2,0,-2,-6,-10,-9,-9,-4
1529288240379493,-5,-1,-3,-1,-7,1,3,4
1529288240418385,-4,-2,0,4,5,0,3,1
1529288240418385,3,0,5,2,-3,-1,0,-1
1529288240420381,-2,-5,-1,-6,-9,-5,-1,-2
1529288240420381,0,-4,0,4,9,0,-1,-1
1529288240421378,-2,-4,-2,-1,2,1,0,-1
1529288240421378,-4,-1,-1,1,1,1,2,3
1529288240423373,-3,1,-1,2,-4,-3,1,1
1529288240423373,1,4,2,-4,-8,-5,-5,-5
1529288240432350,3,3,1,2,-5,-5,-3,-3
1529288240432350,-6,-9,-13,-5,3,-7,-11,-5
1529288240438334,5,-2,5,6,8,14,12,4
1529288240438334,0,-4,-5,-4,2,4,2,2
1529288240447308,-1,-6,-8,-10,-6,-13,-10,-7
1529288240447308,5,1,2,2,-2,0,7,3
1529288240460275,-3,6,2,-1,6,3,-2,-1
1529288240460275,-5,2,3,0,2,5,-1,2
1529288240469250,0,5,3,0,0,8,2,-1
1529288240469250,-5,-3,-1,0,-6,-9,-7,-7
1529288240477230,5,0,-2,-2,-2,-6,-3,4
1529288240477230,-4,0,1,4,-3,-3,2,-5
1529288240492188,5,6,3,3,0,-1,-1,0
1529288240492188,-4,-4,1,-4,3,4,-3,1
1529288240498173,2,-4,-4,-5,3,7,2,-2
1529288240498173,3,2,-1,-1,-6,-4,0,-2
1529288240507148,1,-3,2,0,-2,-7,5,4
1529288240507148,-3,-1,4,4,8,0,3,-1
1529288240520113,-3,-2,2,2,3,0,3,1
1529288240520113,-4,-5,-5,-4,-2,-2,-2,-1
1529288240530087,-7,-3,1,2,-7,-6,-10,0
1529288240530087,3,9,0,3,-4,3,13,15
1529288240535075,-5,-1,-9,-5,-7,-12,-11,-2
1529288240535075,7,0,-7,-4,0,4,2,1
1529288240552028,4,4,1,0,1,5,0,-5
1529288240552028,3,2,1,-2,-2,0,-3,-7
1529288240558012,1,-5,3,0,-2,-2,1,-3
1529288240558012,2,1,1,1,-5,2,3,6
1529288240566988,-1,-3,-7,-4,3,0,-5,2
1529288240566988,1,-2,-9,-2,9,3,-4,-1
1529288240579953,1,4,-5,4,6,-4,1,1
1529288240579953,-4,-1,4,-5,3,-3,2,-5
1529288240588930,-7,-1,9,4,2,-2,9,-1
1529288240588930,-3,0,3,5,-6,0,2,-5
1529288240594914,-6,-6,-5,0,1,2,-5,-6
1529288240594914,-6,-2,-5,-3,-7,-8,-8,-2
1529288240611870,4,4,-1,-4,-2,4,6,7
1529288240611870,3,4,-1,-8,-5,-2,-4,-1
1529288240617852,4,7,3,0,2,-4,-3,1
1529288240617852,7,3,6,1,1,-5,-6,0
1529288240626829,2,-4,-5,1,4,4,6,-1
1529288240626829,-1,-4,-2,1,-1,-3,-2,-3
1529288240640790,-6,-3,-4,-2,-4,3,2,2
1529288240640790,-5,1,6,6,6,2,0,1
1529288240649802,-3,-2,-2,-6,-4,-4,-7,-3
1529288240649802,-7,-4,-7,-12,-16,-5,-4,-3
1529288240655783,-3,1,0,2,19,11,-1,-8
1529288240655783,0,-2,-3,-1,-1,1,2,-1
1529288240671708,2,3,4,4,6,6,2,3
1529288240671708,1,-7,-5,-3,-13,-8,-1,-2
1529288240686668,3,-2,2,2,-12,-12,-4,-4
1529288240686668,5,1,-1,1,-4,-2,2,5
1529288240688663,-4,-5,-4,2,2,-1,-2,-3
1529288240688663,-2,5,1,5,15,10,3,-4
1529288240700630,-2,-1,2,1,-4,3,-5,-1
1529288240700630,-3,-3,-5,-6,-1,1,-5,-4
1529288240709607,2,2,4,0,-5,-2,-6,-1
1529288240709607,3,-1,-1,3,7,2,2,0
1529288240715591,-3,-2,-1,-5,-5,-1,5,0
1529288240715591,-2,1,3,-4,-3,-3,3,2
1529288240731549,-4,0,-2,-3,0,-3,2,6
1529288240731549,-3,-1,0,1,4,3,-4,2
1529288240737567,2,0,-3,-1,-3,3,-1,0
1529288240737567,0,1,1,6,3,5,2,-3
1529288240746543,0,-6,-3,-9,-1,1,2,-6
1529288240746543,2,-6,4,-2,-2,-2,-1,-2
1529288240760471,3,8,2,-3,-13,-8,-4,-1
1529288240760471,-4,-1,-8,-1,3,-7,-6,0
1529288240769448,-1,2,-7,4,-4,-5,4,-2
1529288240769448,4,10,10,9,-4,-4,-2,-2
1529288240783410,1,-5,-4,1,14,3,1,-1
1529288240783410,-3,-8,1,5,7,7,-3,0
1529288240792386,-3,-6,-5,-5,4,0,-10,1
1529288240792386,-6,-5,-8,-10,-8,-3,-4,-1
1529288240806394,-6,-2,0,-5,-14,-6,3,0
1529288240806394,0,1,3,2,1,0,5,0
1529288240808343,2,-2,-3,1,-1,-2,1,-5
1529288240808343,-1,4,8,-2,6,4,4,0
1529288240820355,-1,2,-4,-5,1,1,-3,-3
1529288240820355,-3,2,1,0,0,5,6,-4
1529288240829287,0,1,-5,-3,-9,0,-3,0
1529288240829287,7,-3,2,7,-2,0,2,2
1529288240843249,0,-4,-3,-5,-10,-8,-4,-4
1529288240843249,-2,-3,1,-1,-11,1,-4,-3
1529288240852227,0,4,11,3,5,3,-2,0
1529288240852227,-5,2,-1,-7,6,0,1,1
1529288240858245,2,-5,1,-1,8,-1,0,2
1529288240858245,4,0,-4,-10,1,-5,1,1
1529288240873171,-4,-3,-4,0,-1,-1,-3,-1
1529288240873171,-2,-6,-9,-1,5,1,1,2
1529288240880154,-7,3,4,4,0,-3,4,1
1529288240880154,-1,7,11,7,-4,-3,1,2
1529288240889126,-3,-3,-3,-4,-6,-1,-4,-2
1529288240889126,6,5,5,8,1,1,-3,3
1529288240903089,3,4,0,4,-7,0,-5,0
1529288240903089,1,3,-7,-2,-8,-3,-3,-6
1529288240912068,-1,0,-4,-6,-10,-7,-3,2
1529288240912068,2,3,1,4,2,-2,-1,3
1529288240918051,1,-4,0,0,0,0,-1,-4
1529288240918051,2,-1,3,4,15,13,6,4
1529288240927031,3,-4,1,1,7,5,4,-2
1529288240927031,-3,-2,-2,-9,1,-1,1,-4
1529288240939990,-2,1,2,-3,2,2,-5,-5
1529288240939990,-2,0,-2,-2,1,-8,-5,-6
1529288240948969,-3,0,0,3,1,-2,-1,-2
1529288240948969,-4,-2,-5,2,1,-2,0,3
1529288240962965,-2,1,-5,3,1,0,2,4
1529288240962965,-4,-2,-9,-6,-12,-5,-1,-2
1529288240971907,-1,5,3,1,4,2,-1,3
1529288240971907,-2,0,4,0,-8,-6,-5,-2
1529288240977891,0,-3,2,-6,-4,-6,-3,-4
1529288240977891,-1,-12,-8,-6,3,0,-3,-2
1529288240986865,4,6,6,4,-1,-1,8,1
1529288240986865,-1,-4,-6,0,-3,1,2,-2
1529288240999831,-1,-2,-2,4,7,6,2,5
1529288240999831,-2,-3,2,-3,1,-4,-5,-2
1529288241009806,-1,1,1,-3,-6,-3,-3,-4
1529288241009806,0,0,-2,-1,-3,-3,-2,-5
1529288241022769,-2,2,-1,4,0,0,2,2
1529288241022769,4,2,4,3,5,4,5,5
1529288241031746,-3,-4,-1,-4,4,0,-3,-4
1529288241031746,0,2,4,-1,-3,2,1,-3
1529288241037729,-2,-3,-2,-6,-2,1,2,-1
1529288241037729,-2,-1,-1,-2,-5,-1,-2,0
1529288241052690,1,1,2,0,2,1,-3,0
1529288241052690,-2,-1,0,1,2,1,-3,1
1529288241060669,1,-2,2,-9,-4,-1,-1,0
1529288241060669,-1,-1,2,0,4,1,0,-1
1529288241069645,1,-7,-4,-3,1,6,1,-1
1529288241069645,0,-6,-5,-3,-7,-2,-3,-5
1529288241082609,-3,-1,-5,-1,-2,-3,0,-3
1529288241082609,-1,6,-2,6,-3,-1,-1,1
1529288241091585,-2,-2,-7,0,-12,-6,-2,-1
1529288241091585,-2,2,-2,5,19,9,-4,4
1529288241097572,0,-5,1,4,2,3,-2,1
1529288241097572,0,-2,-2,-2,-8,-6,-1,-1
1529288241114525,1,1,1,1,12,-1,4,0
1529288241114525,2,2,1,-7,-3,-6,9,4
1529288241120555,3,5,-2,-2,-1,-3,-4,0
1529288241120555,-1,0,3,-3,4,-2,-6,-6
1529288241129485,0,-4,4,-1,-9,-6,-4,-2
1529288241129485,-6,-3,-1,2,-2,-1,1,-5
1529288241142487,-6,3,2,5,2,2,4,-2
1529288241142487,-6,-5,-11,-5,-8,-5,-2,2
1529288241151427,-1,-1,-3,-2,-2,0,5,-4
1529288241151427,6,-3,6,-2,4,3,2,1
1529288241158407,7,-1,-1,0,3,-2,2,-1
1529288241158407,4,-3,-2,3,9,-1,0,-3
1529288241173368,3,3,7,-5,0,2,-3,4
1529288241173368,-4,0,-7,-9,-9,1,-6,-1
1529288241180349,-5,3,0,-1,-1,5,-3,-2
1529288241180349,-2,0,-3,0,2,3,2,-3
1529288241189326,-4,-2,-1,3,2,-1,-3,3
1529288241189326,-3,-1,2,1,-6,-4,-7,0
1529288241203317,0,1,-1,0,-5,-3,-3,-1
1529288241203317,-1,-1,-3,-2,-2,0,0,-4
1529288241212289,-2,-6,-4,1,2,1,2,-7
1529288241212289,-1,-2,-2,-3,-1,-9,0,-1
1529288241218287,-3,-5,-2,-2,-6,0,1,0
1529288241218287,5,1,6,5,7,5,3,6
1529288241241230,3,-3,-5,-5,0,-2,-5,0
1529288241241230,3,1,3,2,-1,8,-2,2
1529288241242229,-2,0,0,-1,-3,3,-1,0
1529288241242229,-4,0,6,-9,-8,-2,-5,-1
1529288241255193,-1,1,2,-1,4,-1,0,-3
1529288241255193,0,0,-3,-4,2,-4,1,-6
1529288241263165,0,1,-3,-1,3,-3,1,-3
1529288241263165,0,1,1,2,1,-3,3,-1
1529288241272104,-3,-1,-2,2,1,-4,5,4
1529288241272104,-3,1,2,1,5,-2,2,-2
1529288241278087,-8,-11,-12,-3,-1,-2,-6,-2
1529288241278087,5,19,17,12,2,-1,-3,8
1529288241293097,3,-2,-9,-5,-8,0,-4,1
1529288241293097,4,0,-1,1,-9,0,-3,2
1529288241300029,2,3,1,-1,-5,-4,-2,4
1529288241300029,-3,-6,-6,-4,-11,-8,2,-3
1529288241309150,-4,-2,7,6,10,5,4,0
1529288241309150,0,-2,-2,-4,-3,-4,4,-1
1529288241322967,3,-5,-1,0,2,4,5,-5
1529288241322967,-3,-3,-8,-6,-8,-2,1,-7
1529288241331943,2,3,0,-1,2,4,3,-3
1529288241331943,-5,-3,-5,-5,1,4,-4,-3
1529288241337930,-2,1,5,1,5,3,-3,2
1529288241337930,-2,-3,-3,-7,-7,-4,-3,-1
1529288241352889,-3,7,4,0,-4,-2,0,-2
1529288241352889,-1,0,-2,0,7,1,2,-1
1529288241360867,-1,6,2,0,-1,-5,0,0
1529288241360867,0,-3,0,-1,4,-1,0,0
1529288241369907,0,-4,0,2,-3,-4,-8,1
1529288241369907,1,-4,0,3,3,0,-5,2
1529288241382986,4,-4,-3,0,-4,-4,-1,5
1529288241382986,0,-2,2,3,3,2,2,1
1529288241391822,2,0,-4,2,-1,2,6,3
1529288241391822,-1,-3,-1,-4,-1,4,7,-3
1529288241405958,-2,-1,1,-2,4,-1,-1,-5
1529288241405958,-3,-7,-9,-4,1,-3,-2,-5
1529288241413081,-4,-1,-2,-2,-7,-5,-9,-6
1529288241413081,0,7,3,1,-2,3,0,3
1529288241430112,-2,3,2,0,2,5,-3,5
1529288241430112,2,-2,-3,-3,0,8,-1,7
1529288241430858,1,1,-1,2,4,2,0,3
1529288241430858,0,-2,-2,2,-3,-7,-4,-3
1529288241442825,0,-4,-5,-3,-11,-8,-4,-4
1529288241442825,-1,4,4,9,8,-1,1,-1
1529288241451802,0,-3,0,-5,-8,-2,1,-1
1529288241451802,-1,3,2,1,-5,-5,-2,-1
1529288241465767,1,1,4,1,7,11,9,1
1529288241465767,-4,-3,-2,-6,-5,2,0,-4
1529288241472749,1,-2,-3,-2,-4,3,-2,-2
1529288241472749,-2,-1,-2,-4,1,-2,-1,-2
1529288241489703,2,2,0,-4,-3,-7,0,-2
1529288241489703,1,-1,-5,-5,2,-1,0,2
1529288241490698,-3,0,5,2,6,-1,-2,1
1529288241490698,-1,-4,-3,-1,-5,-8,-6,2
1529288241502669,1,0,-3,2,-2,-4,-8,0
1529288241502669,0,-1,-1,-2,-7,4,0,-1
1529288241519621,-3,-2,0,0,-1,1,1,-3
1529288241519621,-5,-1,0,0,6,4,3,-4
1529288241525604,-3,-3,-4,-4,5,0,2,2
1529288241525604,1,3,2,-1,4,-3,-2,-1
1529288241532585,0,4,1,-1,-2,-4,-3,-3
1529288241532585,2,2,-4,-3,-3,4,9,0
1529288241549588,2,3,5,10,0,1,3,-7
1529288241549588,-2,-1,-3,2,-4,-1,-2,-2
1529288241550727,-5,-1,-3,-3,-1,2,0,2
1529288241550727,-2,-5,-1,0,8,1,0,8
1529288241563542,5,-2,3,-4,0,-1,-1,7
1529288241563542,3,-7,1,1,2,0,-5,-1
1529288241572579,0,0,0,-1,-6,0,0,0
1529288241572579,-4,1,-8,-3,-11,-8,-5,-5
1529288241586630,0,3,-1,1,2,0,-4,-5
1529288241586630,-4,0,-2,3,0,-2,1,-4
1529288241600404,0,-6,-2,-1,5,-1,0,-3
1529288241600404,1,-7,0,0,-1,2,10,1
1529288241609383,2,-1,-2,-1,-1,-5,2,0
1529288241609383,0,0,-2,-1,3,2,2,-3
1529288241611378,3,5,3,-2,-1,0,0,3
1529288241611378,3,-2,5,0,1,-3,-6,3
1529288241623343,-3,0,1,3,6,7,2,1
1529288241623343,0,0,-3,-2,-1,1,-1,0
1529288241632323,-3,-3,-6,0,-2,-2,3,-5
1529288241632323,0,6,7,3,-2,-3,-2,-1
1529288241646648,-1,1,2,-2,-14,-7,-2,-1
1529288241646648,-3,1,-1,1,2,4,-2,6
1529288241653514,4,4,-2,-4,-4,7,0,5
1529288241653514,2,4,-1,-1,4,3,3,-3
1529288241677126,-5,-4,0,-5,1,-1,-1,-4
1529288241677126,-1,-7,-4,-2,1,-4,-2,-4
1529288241678740,0,-7,-3,-1,6,-4,-3,-1
1529288241678740,-3,-1,-2,-5,0,-1,-4,-6
1529288241682889,-2,-3,-4,-5,0,-2,2,0
1529288241682889,-3,-1,-1,-1,-11,-7,1,-3
1529288241691744,-11,-8,-8,-8,4,-1,-7,-5
1529288241691744,4,9,18,18,0,-2,-5,2
1529288241713849,1,3,4,8,2,2,-2,1
1529288241713849,3,-1,0,0,-8,-4,0,3
1529288241715844,2,3,4,3,0,1,7,5
1529288241715844,-1,-8,-13,-11,-11,-6,3,3
1529288241728810,-2,-1,-1,-4,0,-4,-1,0
1529288241728810,7,5,1,-1,-3,5,-1,3
1529288241730804,4,-3,-2,-1,-1,4,0,-2
1529288241730804,-5,0,-7,-4,-4,1,-2,-6
1529288241743143,-4,0,-4,6,3,1,-4,-3
1529288241743143,-6,0,0,-4,3,-1,-5,-4
1529288241751748,0,2,8,-1,5,5,-2,-2
1529288241751748,0,-6,-1,-5,-1,1,-2,-4
1529288241766708,2,-2,-3,-6,-8,-2,-1,-1
1529288241766708,-3,2,1,4,5,-5,1,-1
1529288241773068,-1,1,2,6,0,-5,3,-1
1529288241773068,-2,-3,2,3,1,0,3,-1
1529288241789829,-4,-2,0,0,1,-1,1,5
1529288241789829,0,-2,-4,-2,-1,0,2,5
1529288241790735,1,1,-3,0,0,-3,-2,3
1529288241790735,2,-2,-6,-3,-2,-2,-4,2
1529288241802832,2,1,-1,-2,4,1,-5,-3
1529288241802832,4,0,4,-2,0,1,-3,-6
1529288241812040,-1,1,-4,-3,-9,-4,-2,-2
1529288241812040,0,0,-4,-3,-2,2,-2,0
1529288241826161,1,0,1,-3,-3,1,3,-1
1529288241826161,-2,-1,0,-1,3,-2,4,-4
1529288241833163,-2,-2,-2,2,-1,-1,4,-6
1529288241833163,-6,-3,-1,3,1,-1,4,1
1529288241849115,-4,-1,-1,-1,0,0,0,3
1529288241849115,1,-4,1,-2,-2,0,-1,0
1529288241850935,-2,-2,-4,2,-1,-3,-1,0
1529288241850935,0,1,1,-4,-4,-2,-3,-1
1529288241863085,-3,-1,3,0,1,-1,-1,-1
1529288241863085,1,-2,4,-4,1,-2,-8,-1
1529288241877863,6,-1,-2,2,0,0,8,1
1529288241877863,2,-2,-1,-1,2,-1,1,3
1529288241886625,-1,-3,-1,-3,-6,4,0,0
1529288241886625,-2,1,0,3,-1,0,-4,2
1529288241893432,-3,4,1,3,-1,-2,-6,-6
1529288241893432,-2,3,-1,1,-1,-1,1,-5
1529288241909623,0,1,-3,-1,-4,-4,-3,-3
1529288241909623,-1,-3,-3,1,0,-1,1,1
1529288241910476,-2,-4,-1,-5,2,-1,-6,4
1529288241910476,1,-1,-1,-2,5,3,-2,-3
1529288241923597,4,-2,-1,-1,2,-3,-3,-2
1529288241923597,-2,0,-1,-1,0,-3,2,0
1529288241932557,0,-1,4,-1,2,-1,-2,0
1529288241932557,-1,-4,-2,1,-5,-1,-2,-2
1529288241946354,2,-3,-6,1,0,4,-2,1
1529288241946354,1,1,-3,0,-1,1,4,0
1529288241953360,-2,0,-3,0,-1,0,2,2
1529288241953360,-4,3,0,0,2,-3,2,0
1529288241968323,-5,2,1,0,1,-4,1,-1
1529288241968323,-6,-1,-1,-2,-3,-5,3,-2
1529288241975331,-2,2,-4,-2,-3,-6,-1,-3
1529288241975331,2,3,2,5,-5,-1,1,-2
1529288241983461,0,2,1,1,-7,0,-2,-3
1529288241983461,0,-4,1,3,1,4,-2,2
1529288241992438,1,-5,1,1,2,2,0,4
1529288241992438,4,-5,0,-6,-2,-2,0,2
1529288242006445,4,-6,-1,-3,1,3,1,-2
1529288242006445,-1,1,3,-5,-6,1,-4,-3
1529288242013432,-5,-2,-3,-5,-8,-2,-3,-3
1529288242013432,-7,-1,-1,3,3,2,0,2
1529288242028398,-3,0,3,-1,5,-1,3,4
1529288242028398,2,-2,-1,-5,1,-2,1,1
1529288242035555,3,1,1,3,4,0,-1,-4
