timestamp,emg1,emg2,emg3,emg4,emg5,emg6,emg7,emg8
1528185018316394,0,-1,-1,0,1,-1,-1,-1
1528185018316394,-1,-1,-1,0,0,0,-2,-2
1528185018317391,0,-1,-1,1,-1,0,-1,0
1528185018317391,-1,-1,0,-2,-1,-1,-1,0
1528185018318388,-1,-1,0,-1,-2,1,1,-2
1528185018318388,-1,-2,-1,0,-1,-1,0,-1
1528185018319387,-1,-1,-1,0,-1,-2,1,0
1528185018319387,0,-1,0,-1,-1,1,0,-3
1528185018331354,-1,1,-1,-2,0,0,1,-2
1528185018331354,-1,-1,-1,-1,-1,0,0,-1
1528185018338336,-1,-1,0,1,-1,-2,-3,-2
1528185018338336,-1,0,-3,0,-1,-1,0,1
1528185018346313,-2,-1,-1,1,0,-1,-1,-1
1528185018346313,0,-1,0,-1,-1,0,0,0
1528185018360276,0,0,0,-2,0,0,-1,-1
1528185018360276,-1,-1,-1,-1,0,0,-1,0
1528185018383214,0,0,-1,-1,0,0,-2,0
1528185018383214,-1,-1,0,-2,-2,-2,-2,-1
1528185018384212,0,0,-1,-1,-1,-1,-1,0
1528185018384212,-1,-2,0,-1,0,0,-1,-1
1528185018394186,1,-2,0,-1,-1,-1,-1,-2
1528185018394186,0,1,-1,0,-3,-1,-2,0
1528185018406153,0,-2,0,-1,-3,1,0,-1
1528185018406153,0,-1,0,-1,-1,-1,-2,-2
1528185018446047,0,-1,-2,-1,0,0,1,-1
1528185018446047,0,1,1,0,1,1,1,-1
1528185018447045,-1,0,1,0,-1,-1,0,-1
1528185018447045,-1,0,-2,-7,-1,0,-1,1
1528185018451033,-3,0,-2,0,2,0,1,1
1528185018451033,-1,-2,0,-6,-1,0,0,-2
1528185018452032,-1,-1,-3,2,5,1,-2,-1
1528185018452032,-1,-1,0,2,-1,0,0,-1
1528185018457017,0,-2,1,-1,-1,-1,0,0
1528185018457017,1,0,-2,-2,-3,-1,-4,0
1528185018464997,0,0,-1,-2,-2,0,-2,-1
1528185018464997,-1,0,0,0,-2,0,0,-1
1528185018471977,0,0,0,0,0,-1,-1,-2
1528185018471977,0,0,0,2,2,0,0,-1
1528185018487935,-1,0,-2,-1,-2,0,0,1
1528185018487935,-1,-1,0,2,0,-1,1,-1
1528185018494927,0,0,-3,-2,-1,1,-2,-1
1528185018494927,-1,-1,0,-1,-1,0,0,0
1528185018518856,-2,-1,0,-1,-1,-2,-1,-1
1528185018518856,1,-1,-1,0,0,-1,-1,0
1528185018519850,-2,-1,-2,-1,-2,-1,-1,1
1528185018519850,0,-2,-1,1,0,-2,-1,-1
1528185018531817,1,0,1,-1,0,0,-1,0
1528185018531817,0,-2,-1,-1,0,0,-1,-1
1528185018540797,-1,-1,1,0,-1,1,-1,-2
1528185018540797,0,0,-2,2,-1,-1,0,0
1528185018555753,-1,-2,-2,-1,-2,-1,1,0
1528185018555753,-1,-1,1,-1,0,1,-1,-1
1528185018557748,-1,-2,0,-2,0,-1,0,-1
1528185018557748,-1,0,0,-1,-1,-1,0,0
1528185018578692,-1,-1,0,-2,0,-1,-1,-2
1528185018578692,-2,0,-2,-5,-1,2,-1,0
1528185018579690,-3,-2,-1,3,6,1,1,0
1528185018579690,-2,0,0,0,1,-1,-1,0
1528185018600633,0,-2,-2,0,1,-3,1,-1
1528185018600633,-1,-1,-1,0,0,-2,-1,-1
1528185018600633,2,0,-2,-3,-2,-1,-2,-1
1528185018600633,-1,0,-1,-1,0,1,0,0
1528185018615593,-2,-1,0,-1,0,-1,0,-2
1528185018615593,1,-1,1,1,-2,-3,1,0
1528185018615593,0,-2,0,-2,-1,-1,0,-1
1528185018615593,0,-1,0,0,-1,-1,0,0
1528185018637537,-1,1,0,-1,-3,0,-1,1
1528185018637537,-1,0,-1,0,0,-2,1,-2
1528185018638533,0,-1,0,-1,-3,-4,-1,0
1528185018638533,-1,-2,-1,-4,0,-1,-1,0
1528185018660475,0,-1,0,0,-1,0,0,0
1528185018660475,0,-2,-2,-1,1,-2,-2,-1
1528185018661509,0,1,0,2,-1,-1,0,-1
1528185018661509,-1,0,-3,0,1,0,1,-2
1528185018675472,0,-2,-2,0,-2,0,-1,0
1528185018675472,0,1,-1,0,-1,-1,0,-2
1528185018676430,-1,-1,-1,-1,-2,0,-1,-1
1528185018676430,0,-1,-1,0,-2,-1,-1,1
1528185018697415,-1,-1,0,0,1,-1,-1,-2
1528185018697415,-1,1,-1,0,0,0,-1,0
1528185018698427,0,0,0,0,-1,1,-1,-1
1528185018698427,0,1,0,-2,-2,0,-1,-1
1528185018720334,0,0,0,-1,1,0,1,-2
1528185018720334,-1,-1,0,0,-1,0,0,0
1528185018721331,0,-1,-1,-1,0,-1,0,-1
1528185018721331,-2,-1,0,1,-1,0,-1,-2
1528185018743281,1,-1,-2,0,-2,-2,-1,0
1528185018743281,-1,-2,-1,0,-1,-1,0,0
1528185018743281,1,1,-2,-1,-2,-2,2,-1
1528185018743281,-1,-2,-1,0,1,1,-1,-3
1528185018758212,-1,-1,0,-3,-1,-2,1,-1
1528185018758212,-2,1,-1,-2,0,-2,0,1
1528185018758212,0,-1,-2,0,0,-1,0,-1
1528185018758212,0,-2,0,-1,-1,1,-1,-1
1528185018780190,-1,1,1,1,-1,0,-1,-1
1528185018780190,0,-1,0,0,0,-1,-2,-1
1528185018781152,-2,0,0,0,-1,-1,-2,0
1528185018781152,-1,1,-1,-1,1,-1,-1,0
1528185018797109,-1,-2,-1,-1,-1,0,0,-1
1528185018797109,0,0,1,-1,-1,-2,-1,-2
1528185018798106,-2,-1,-1,0,-1,0,0,0
1528185018798106,0,0,-2,-1,-1,-1,1,0
1528185018826036,0,0,-1,-2,-2,-2,0,0
1528185018826036,0,0,-1,0,-1,0,-3,0
1528185018827058,0,-1,-1,-1,1,0,-1,0
1528185018827058,0,-2,-2,-2,-1,0,0,0
1528185018839994,-1,1,-1,-1,0,0,0,-2
1528185018839994,-2,-1,0,0,0,0,0,-1
1528185018840993,-1,0,1,1,0,-1,-2,1
1528185018840993,-2,-1,0,-1,0,-2,0,0
1528185018855006,1,1,-1,-1,-1,-1,0,-2
1528185018855006,0,-2,-2,-4,2,-1,-2,0
1528185018855952,0,-1,-1,2,5,0,0,-3
1528185018855952,-2,0,-2,1,-2,0,-1,1
1528185018878889,0,-2,0,-1,0,0,-2,1
1528185018878889,0,0,0,0,0,-1,1,-1
1528185018879892,0,-1,0,-2,-3,-3,-1,-1
1528185018879892,0,-1,0,-2,-1,-2,0,0
1528185018900879,0,0,0,0,1,-1,0,-1
1528185018900879,1,0,0,1,-2,-1,1,-1
1528185018900879,0,0,-1,-4,-2,0,0,-2
1528185018900879,2,0,0,1,-1,-2,0,-2
1528185018914795,-2,-1,0,5,0,-1,0,1
1528185018914795,0,-2,1,0,-2,0,0,0
1528185018915794,1,0,-2,-1,1,-2,0,0
1528185018915794,0,-1,1,0,2,-1,-1,0
1528185018937734,0,-2,0,-4,-3,0,-1,-1
1528185018937734,-1,-1,-2,0,-3,-1,-1,0
1528185018938732,-1,1,1,2,-1,0,-2,-1
1528185018938732,-1,-2,-1,-2,-1,-1,-1,0
1528185018960743,0,-1,-2,-2,0,-1,0,-1
1528185018960743,-1,-3,0,0,1,0,-1,-1
1528185018960743,0,-3,0,-1,-2,0,-1,-1
1528185018960743,0,0,-1,0,-3,-1,-3,-2
1528185018975632,0,0,-1,0,-2,-1,-2,0
1528185018975632,0,0,-1,0,1,-2,0,-2
1528185018975632,-2,-1,-1,-1,0,-1,0,-1
1528185018975632,0,0,-1,-1,0,-1,-1,-1
1528185018997574,0,-1,0,0,0,1,-1,-1
1528185018997574,-1,0,-1,-1,-1,0,-2,-1
1528185018998571,0,0,0,-1,0,-1,-2,0
1528185018998571,0,-1,-2,-1,-1,0,-1,-2
1528185019020538,0,0,-2,-2,-2,0,-1,-1
1528185019020538,-1,-1,-1,-1,-1,1,-2,-1
1528185019021511,-1,1,-2,-1,-2,-1,1,0
1528185019021511,-1,0,1,0,0,1,-1,-2
1528185019044448,0,0,-1,-2,-1,-1,0,1
1528185019044448,-2,-1,0,-1,-2,1,-1,0
1528185019045481,-2,-1,0,-1,0,-1,0,-2
1528185019045481,0,-1,-1,-2,-2,-1,0,0
1528185019057413,-1,0,-2,1,1,0,-1,0
1528185019057413,0,-1,-1,-2,0,-2,0,1
1528185019058410,0,-1,1,0,0,0,-2,-1
1528185019058410,0,-1,-1,0,0,-2,-2,0
1528185019073370,-1,-1,-1,-1,0,-2,0,-1
1528185019073370,1,1,0,0,2,-1,2,-1
1528185019079355,0,-1,-2,0,-1,-1,0,-2
1528185019079355,-1,1,-1,0,0,0,0,-1
1528185019095369,-2,-1,-1,0,-1,-1,0,-3
1528185019095369,-2,-2,-1,1,-1,0,-1,-1
1528185019102296,-2,0,-1,-1,-1,-1,-2,-1
1528185019102296,0,0,-1,0,0,-1,-1,-1
1528185019119249,1,0,0,-1,-2,-2,-2,0
1528185019119249,0,0,0,0,-1,0,-1,-1
1528185019120246,-1,0,0,-1,-2,1,1,0
1528185019120246,-2,0,-1,-1,-1,1,0,0
1528185019132221,-2,-2,-2,0,-1,0,0,-1
1528185019132221,0,-1,-2,-2,0,0,-1,0
1528185019139238,-1,-3,2,-1,-2,-2,0,3
1528185019139238,-1,0,2,-1,1,1,0,-1
1528185019155186,-1,1,-2,-2,0,0,-2,-2
1528185019155186,-1,0,-2,0,-2,-1,0,-1
1528185019156150,-1,0,-3,-1,0,1,-1,-1
1528185019156150,0,-2,1,-2,1,-2,-1,0
1528185019186114,0,0,0,0,-1,0,0,0
1528185019186114,0,-1,1,0,-1,-2,0,-3
1528185019187069,2,-1,-3,0,-1,-1,-2,-3
1528185019187069,-1,0,-1,-1,-2,0,0,-1
1528185019192109,0,0,-2,-1,0,0,0,0
1528185019192109,0,-1,-2,0,-2,-1,0,-1
1528185019200092,-1,-1,2,-1,-1,0,-1,1
1528185019200092,-1,-2,-1,0,0,-1,-2,0
1528185019215035,0,-1,-1,-1,1,-1,-1,0
1528185019215035,-2,-1,0,-1,-1,0,0,-2
1528185019215991,-2,0,-1,0,-1,0,0,-2
1528185019215991,-1,-1,-1,0,-1,-2,-1,-2
1528185019237984,-2,-1,1,-1,0,-1,-1,1
1528185019237984,1,-1,1,0,0,-2,-2,0
1528185019238983,0,-2,-1,-2,1,0,-1,-2
1528185019238983,-1,-1,0,-1,-2,1,-1,-1
1528185019259928,-1,-1,-1,0,0,-2,0,-2
1528185019259928,-1,-1,0,-1,-2,0,0,-2
1528185019260895,0,1,-1,0,0,-1,-1,1
1528185019260895,-2,-1,-2,1,0,0,-1,-1
1528185019274891,-1,1,-1,1,0,-1,-1,0
1528185019274891,0,0,-2,-1,0,1,0,1
1528185019275832,0,0,-1,-1,0,0,-1,0
1528185019275832,0,-1,0,-2,1,-1,1,0
1528185019297807,-1,-2,0,-1,-1,0,-2,-1
1528185019297807,0,-1,-1,-1,0,-1,-1,-1
1528185019298802,-1,-1,0,0,-2,0,1,0
1528185019298802,0,1,-1,0,-1,0,-1,-2
1528185019319759,-1,0,0,-2,-1,-1,-1,1
1528185019319759,0,-1,0,-1,-1,-2,-1,1
1528185019320962,-1,-1,-1,0,-1,-2,-2,0
1528185019320962,0,-1,1,-1,0,-1,0,0
1528185019335719,2,1,-1,0,0,1,0,0
1528185019335719,-1,0,-1,0,-1,-1,-1,-1
1528185019335719,1,0,0,-2,-2,0,1,0
1528185019335719,-1,2,0,0,-1,-1,-2,2
1528185019358664,-1,0,0,0,-1,-1,1,-1
1528185019358664,-1,-1,0,0,0,0,-1,-2
1528185019358664,0,0,-1,1,0,-1,-1,-2
1528185019358664,0,-1,-1,0,-2,0,0,-2
1528185019380860,1,-1,0,-1,-1,0,-2,-2
1528185019380860,-1,0,-2,-1,-1,0,0,-1
1528185019381825,-2,0,-1,0,0,-1,-1,-3
1528185019381825,-2,-1,0,0,0,-1,-1,-2
1528185019396718,-2,-1,0,-1,-2,-2,1,-1
1528185019396718,-3,-1,-1,0,-1,-2,-1,0
1528185019397554,-1,-1,-4,-2,0,-1,0,0
1528185019397554,0,-1,0,0,-1,0,-1,0
1528185019417909,-1,-1,0,0,-1,0,1,-1
1528185019417909,1,0,0,0,-1,0,0,-1
1528185019433108,0,-1,0,0,-1,-1,-1,1
1528185019433108,1,-1,-1,-1,-1,-2,-3,1
1528185019440859,0,-1,-1,-1,-1,0,0,1
1528185019440859,-1,-1,0,-3,0,-3,0,-1
1528185019440859,0,1,0,0,-2,-2,-1,-2
1528185019440859,0,-1,0,1,0,-2,0,0
1528185019462950,-1,-1,0,0,-1,-1,-1,-1
1528185019462950,-1,-1,-1,0,2,1,-1,1
1528185019463683,-1,-3,0,0,-2,0,-1,-1
1528185019463683,0,0,-1,-1,-3,-1,0,1
1528185019477808,0,0,-1,0,-1,0,-1,0
1528185019477808,0,-1,1,-1,0,-1,0,-2
1528185019485625,-1,-2,0,1,-1,-2,1,-1
1528185019485625,0,-2,-2,-1,-1,0,2,-2
1528185019500908,-1,-1,-2,-1,1,-1,-1,1
1528185019500908,1,-1,0,-1,-1,0,0,1
1528185019500908,0,1,1,-1,-1,-1,0,0
1528185019500908,0,-1,-2,-1,1,-2,1,-2
1528185019523621,0,-1,-1,1,-1,0,0,-1
1528185019523621,-1,0,-2,1,-2,0,0,-2
1528185019523621,-1,0,-3,-3,0,-1,0,-1
1528185019523621,-1,0,0,1,0,0,1,0
1528185019537543,0,-2,-2,-2,-1,-1,-2,0
1528185019537543,0,-1,0,0,-1,-1,-1,0
1528185019545254,0,0,-1,-3,-1,-1,0,0
1528185019545254,-2,-1,0,-1,-2,1,-1,0
1528185019560588,-1,-1,0,-2,0,-2,0,-1
1528185019560588,-2,0,-1,-1,-2,-1,0,-1
1528185019561211,2,0,-1,-1,-1,1,0,-1
1528185019561211,0,-1,0,-1,1,-1,-1,-1
1528185019583151,1,-2,-1,-1,0,-1,-1,-1
1528185019583151,-1,0,-1,-2,1,-1,0,-1
1528185019583151,-2,-2,0,-1,1,0,-1,0
1528185019583151,0,-2,-1,-1,-1,0,-2,0
1528185019597351,-1,0,1,0,-2,0,0,-1
1528185019597351,-1,-1,-2,-1,-1,0,0,-1
1528185019605947,-1,0,-1,1,1,0,0,-1
1528185019605947,-2,-3,-2,-1,-2,0,-1,0
1528185019628915,-1,-3,-1,-1,0,-1,-2,-1
1528185019628915,1,-3,0,-1,-1,0,-1,0
1528185019629532,1,-1,-1,0,-1,-2,0,-1
1528185019629532,0,-1,0,0,0,0,0,-1
1528185019643494,0,1,-3,0,-2,-1,-1,0
1528185019643494,0,1,0,-1,0,-2,-2,-1
1528185019643494,-1,-2,0,1,1,1,-1,0
1528185019643494,-2,0,-1,-1,0,-1,0,-2
1528185019657780,0,1,0,0,-1,0,0,0
1528185019657780,0,-1,0,-1,-1,-3,-2,-3
1528185019665751,-1,-1,0,0,-1,-2,-2,0
1528185019665751,-1,-1,0,0,-2,0,-1,-1
1528185019680090,-2,-1,-1,-2,-1,1,-1,0
1528185019680090,0,-2,-2,0,-3,0,0,1
1528185019680809,-2,1,-1,-1,0,-1,0,-1
1528185019680809,0,0,-1,-2,1,-2,0,0
1528185019711855,-1,0,-1,1,1,-3,-1,-1
1528185019711855,-1,1,-1,0,0,-1,0,-1
1528185019711855,-1,-2,0,-1,-1,-3,-1,0
1528185019711855,-2,0,-1,-1,0,-2,0,0
1528185019717502,-1,0,0,-2,1,0,0,0
1528185019717502,-1,-1,-1,-2,0,-2,-1,-1
1528185019726177,-1,0,-1,0,-1,0,0,-1
1528185019726177,-1,-2,-1,-1,-2,0,-1,1
1528185019740084,1,0,-1,-1,-2,1,-3,-2
1528185019740084,-1,-2,-1,2,0,0,-1,0
1528185019741645,0,-1,-1,-1,0,-1,-1,0
1528185019741645,-1,-1,-1,-2,0,-2,-2,-1
1528185019763610,-1,-2,-2,0,0,-2,-1,-1
1528185019763610,-1,0,1,-1,-1,-1,-1,-1
1528185019764586,0,0,-1,-2,-2,0,0,0
1528185019764586,-1,0,0,-1,1,-2,0,-1
1528185019793509,-2,-2,-2,-1,-2,-2,0,-1
1528185019793509,0,-1,-2,0,0,-1,-1,-1
1528185019794507,0,-1,-1,-1,-2,-1,-1,0
1528185019794507,1,-1,-2,-1,-2,1,-1,-1
1528185019800730,-1,-1,1,1,-1,0,-2,0
1528185019800730,-2,-2,-1,-2,-1,-1,1,0
1528185019801506,0,-2,-1,-1,-1,-3,0,0
1528185019801506,-1,-2,-1,-1,-1,0,1,0
1528185019823920,1,-1,-2,0,0,0,0,0
1528185019823920,-1,0,1,0,0,1,-3,0
1528185019824949,1,0,-1,-1,-1,-3,-3,-2
1528185019824949,-1,-3,-1,-1,0,-1,-1,1
1528185019846101,1,0,-1,-1,-1,-2,0,-1
1528185019846101,-1,1,-1,-1,-1,0,0,0
1528185019846874,-3,1,-2,-1,-1,1,0,0
1528185019846874,-1,-2,-1,1,-1,0,0,-2
1528185019861146,-2,-2,-1,-1,-1,-1,1,-1
1528185019861146,0,1,1,0,0,-1,-1,-1
1528185019861146,-1,0,0,1,0,1,1,-2
1528185019861146,-1,0,-1,0,-2,0,-3,-2
1528185019884024,-1,-1,1,-1,0,0,-1,-1
1528185019884024,1,0,-2,-2,-1,-1,1,0
1528185019884774,0,-1,-2,-1,-2,-1,-1,-1
1528185019884774,-1,1,1,-1,0,-2,0,0
1528185019906814,0,-1,0,-1,-1,-1,-1,-1
1528185019906814,-2,-1,0,0,0,0,0,-2
1528185019906814,-1,-2,0,-2,1,-1,2,1
1528185019906814,0,-2,-2,0,0,-1,0,0
1528185019921049,1,1,1,-3,0,-2,1,-1
1528185019921049,0,0,0,-2,-1,-1,-1,-1
1528185019921049,0,0,-1,-1,-1,-2,-3,-1
1528185019921049,0,1,0,-1,-2,0,0,-2
1528185019943846,-2,-1,-2,0,1,-2,0,0
1528185019943846,0,0,-1,-1,-2,-1,-1,0
1528185019944839,-1,-1,-1,-1,-1,-1,-1,0
1528185019944839,-1,-1,-2,0,0,-1,0,0
1528185019966740,0,-2,1,-1,-2,0,-2,-1
1528185019966740,-1,0,0,1,2,1,-1,-1
1528185019966740,1,0,-1,0,-1,0,1,-1
1528185019966740,-1,1,-1,1,-1,0,-1,-2
1528185019980505,-2,-1,-1,0,1,-1,0,0
1528185019980505,0,-2,-2,-1,-1,-2,-2,0
1528185019981503,0,-1,-1,1,0,-1,-2,-1
1528185019981503,0,-1,-1,-2,-2,-1,0,0
1528185020003833,2,0,-1,0,-1,2,0,0
1528185020003833,-2,-2,0,-2,0,0,0,0
1528185020004446,-1,-1,-1,-1,-1,0,0,-1
1528185020004446,1,0,0,-1,0,-1,-1,1
1528185020026707,-1,-1,-1,-1,-1,0,-1,0
1528185020026707,1,-1,1,0,-1,-2,-1,0
1528185020026707,-2,-1,-2,0,-1,-2,0,-1
1528185020026707,1,-2,-1,1,-1,1,-1,-1
1528185020040685,-2,0,-1,0,-1,-2,-2,0
1528185020040685,1,0,-1,0,0,0,-1,-2
1528185020041870,-1,1,0,-1,-2,2,0,0
1528185020041870,-2,0,-1,-1,-1,-1,0,0
1528185020064073,-2,1,-1,-1,-1,-3,-1,-2
1528185020064073,0,-1,-1,0,-1,0,0,-1
1528185020065102,-1,0,0,-1,0,-2,-2,0
1528185020065102,-1,-1,-3,-1,0,0,0,-1
1528185020086792,1,-1,-3,-2,-1,1,-1,0
1528185020086792,-1,-1,0,0,-1,-2,0,0
1528185020086792,-2,-1,1,-1,0,0,-1,-2
1528185020086792,-1,-2,-1,0,-1,-1,0,-1
1528185020100445,0,0,-1,1,0,-2,1,-1
1528185020100445,1,-3,-3,-1,0,-1,-2,0
1528185020101146,0,0,-1,0,1,0,-1,0
1528185020101146,-1,0,-1,0,-1,-2,-2,-1
1528185020124205,-2,-1,-1,0,-1,-1,-1,0
1528185020124205,-1,0,0,0,0,0,-2,-1
1528185020124205,0,0,1,-1,0,0,-1,-1
1528185020124205,-2,1,-1,-1,0,1,0,0
1528185020146267,0,0,-1,-1,-1,0,0,-2
1528185020146267,-1,-1,1,1,-1,-4,0,-1
1528185020147023,-1,-1,-2,0,-1,-2,0,0
1528185020147023,-1,-1,-2,0,0,-1,0,-2
1528185020161208,0,-2,0,0,0,-1,0,0
1528185020161208,-1,-1,-1,0,-1,1,0,1
1528185020161208,-1,-1,-1,-1,-1,0,-1,-1
1528185020161208,-1,-2,-1,-2,0,-1,-1,1
1528185020183719,0,-1,0,-2,-1,0,-1,0
1528185020183719,0,1,-1,-1,0,0,-1,-1
1528185020184390,0,-1,1,-2,0,-1,0,1
1528185020184390,-1,0,2,-2,-1,-1,-1,-1
1528185020214346,-2,0,-1,0,-1,-1,-1,-1
1528185020214346,-2,0,0,-2,-2,-1,-1,0
1528185020214346,-1,-1,0,0,-1,1,-1,-1
1528185020214346,2,-2,-1,0,0,-2,-1,0
1528185020220313,-1,0,-2,0,-1,1,-1,0
1528185020220313,-1,1,-1,0,-1,-1,0,-1
1528185020221290,-1,0,-2,0,0,-3,-1,-1
1528185020221290,-1,-1,0,0,-3,0,-1,-1
1528185020243486,2,0,-1,0,1,-1,0,0
1528185020243486,0,-1,-2,-1,0,-1,0,0
1528185020244229,0,-1,-1,0,-1,-1,-2,-2
1528185020244229,-1,-1,1,0,-1,0,0,0
1528185020266489,-1,0,1,-1,-2,-1,-1,-1
1528185020266489,-2,0,-1,-1,-1,1,-2,0
1528185020267168,0,-1,0,-1,0,-1,0,0
1528185020267168,-1,1,-2,-1,-1,-1,-2,-1
1528185020280243,0,-1,-1,0,-2,-2,0,0
1528185020280243,0,-3,0,0,0,-1,0,-1
1528185020289117,0,0,-1,0,0,-1,1,0
1528185020289117,-1,1,-2,-1,1,1,-1,0
1528185020303129,1,-1,-2,-1,-2,1,-1,-3
1528185020303129,-1,0,-1,0,0,0,0,0
1528185020305066,0,-3,-1,0,0,0,-2,0
1528185020305066,-1,-1,-1,-1,0,-3,0,-2
1528185020326011,0,0,-1,-1,-2,0,1,0
1528185020326011,1,0,0,0,-1,-1,-1,-1
1528185020328006,-1,1,-1,0,-2,0,0,-1
1528185020328006,-2,0,-1,0,-1,-2,0,-1
1528185020340012,-2,0,-1,-1,0,0,-1,0
1528185020340012,0,0,-1,0,-1,-1,0,0
1528185020349002,-1,0,-3,-2,-2,0,-1,0
1528185020349002,0,-1,-1,0,-2,-1,1,-1
1528185020363909,-2,2,0,0,1,0,0,-1
1528185020363909,0,-1,-1,0,-1,-1,0,0
1528185020364925,0,-1,-1,0,0,0,-1,0
1528185020364925,0,0,0,-1,-1,0,0,-1
1528185020385851,-1,-1,-1,0,-1,-3,0,-2
1528185020385851,2,-2,-2,-1,0,-1,-1,0
1528185020387846,0,-2,0,1,-2,-2,-1,0
1528185020387846,0,0,-1,-1,0,-1,-1,0
1528185020399814,-1,-1,1,-1,-2,-1,0,-1
1528185020399814,-1,0,0,-1,0,0,1,-1
1528185020408800,-1,0,-1,-1,0,0,-1,-1
1528185020408800,-1,-1,0,-1,-3,0,-1,-1
1528185020423749,0,0,0,-2,1,0,-1,1
1528185020423749,-1,-1,-2,-1,0,-3,-1,0
1528185020424747,-1,-2,0,-1,-2,0,1,1
1528185020424747,-1,0,-1,1,0,-1,-1,-1
1528185020445691,-1,0,-1,0,-2,-1,-2,-2
1528185020445691,-2,0,-2,-1,0,0,0,0
1528185020447686,1,0,0,-1,-2,-1,0,0
1528185020447686,0,-1,0,-1,-1,-1,1,0
1528185020459654,-1,-1,0,0,0,0,0,-1
1528185020459654,0,0,0,0,-2,-1,-2,0
1528185020468644,0,-1,0,0,-1,-1,0,-1
1528185020468644,0,-1,-1,1,-1,0,-2,-1
1528185020483590,-1,0,0,-1,1,-2,-1,1
1528185020483590,-1,-2,-1,-1,-1,0,0,-1
1528185020485587,-1,-1,0,-1,1,-1,-1,0
1528185020485587,0,0,-2,0,-2,-2,0,0
1528185020505531,1,-4,-2,-1,-1,-1,-1,1
1528185020505531,-1,0,0,-1,-1,0,1,-2
1528185020507545,-1,-1,-1,-1,0,-1,1,-2
1528185020507545,0,-1,-1,-1,-1,0,0,-1
1528185020519494,-3,-1,0,0,-1,-1,0,-2
1528185020519494,1,-1,-2,-1,-2,-2,1,-1
1528185020528470,-1,-2,-1,-1,-1,0,-2,0
1528185020528470,-1,-1,0,0,0,-1,-1,0
1528185020542432,-1,-1,-1,-1,0,-2,2,-2
1528185020542432,-1,-1,0,0,-1,0,-2,0
1528185020549414,0,0,-2,-1,-2,-1,-1,-1
1528185020549414,-1,-1,0,-1,-1,0,0,-1
1528185020573350,0,-1,-2,0,2,0,-2,0
1528185020573350,-1,1,-1,-1,0,-2,0,-1
1528185020575344,-1,0,0,0,0,1,-2,0
1528185020575344,-1,-1,-2,-2,-1,1,-2,-1
1528185020579333,-2,0,-1,-1,-3,1,0,-1
1528185020579333,1,1,0,0,0,0,0,0
1528185020588355,0,-1,-1,-2,0,-1,2,1
1528185020588355,-2,0,-1,0,-1,-1,-1,0
1528185020603319,0,0,0,-2,-1,-1,1,1
1528185020603319,0,-2,-1,-1,-1,-1,-1,-1
1528185020603319,0,-2,-1,-1,-1,-1,-1,-1
1528185020603319,0,-2,-1,-1,-1,-1,-1,-1
1528185020603319,0,-2,-1,-1,-1,-1,-1,-1
1528185020603319,0,-2,-1,-1,-1,-1,-1,-1
1528185020603319,0,-2,-1,-1,-1,-1,-1,-1
1528185020603319,0,-2,-1,-1,-1,-1,-1,-1
1528185020603319,0,-2,-1,-1,-1,-1,-1,-1
1528185020603319,0,-2,-1,-1,-1,-1,-1,-1
1528185020603319,0,-2,-1,-1,-1,-1,-1,-1
1528185020603319,0,-2,-1,-1,-1,-1,-1,-1
1528185020603319,0,-2,-1,-1,-1,-1,-1,-1
1528185020603319,0,-2,-1,-1,-1,-1,-1,-1
1528185020603319,0,-2,-1,-1,-1,-1,-1,-1
1528185020603319,0,-2,-1,-1,-1,-1,-1,-1
1528185020603319,0,-2,-1,-1,-1,-1,-1,-1
1528185020603319,0,-2,-1,-1,-1,-1,-1,-1
1528185020603319,0,-2,-1,-1,-1,-1,-1,-1
1528185020603319,0,-2,-1,-1,-1,-1,-1,-1
1528185020603319,0,-2,-1,-1,-1,-1,-1,-1
1528185020603319,0,-2,-1,-1,-1,-1,-1,-1
1528185020603319,0,-2,-1,-1,-1,-1,-1,-1
1528185020603319,0,-2,-1,-1,-1,-1,-1,-1
