timestamp,emg1,emg2,emg3,emg4,emg5,emg6,emg7,emg8
1528184753448669,4,6,10,7,1,-5,0,0
1528184753448669,-1,-9,-20,8,6,5,-5,-2
1528184753449667,4,10,12,-1,-4,-7,-4,0
1528184753449667,0,-4,9,15,8,9,5,1
1528184753451661,-7,-8,-19,-18,-13,-4,-5,-5
1528184753451661,-2,2,0,-11,-10,-5,-3,-1
1528184753451661,3,7,19,7,4,-1,0,-1
1528184753451661,-7,-2,-22,-6,-2,-3,2,0
1528184753461635,0,3,19,8,2,-3,-7,1
1528184753461635,0,-4,0,-1,3,3,6,0
1528184753474600,-2,-6,-8,-3,-4,-2,-1,-4
1528184753474600,8,17,7,-8,-8,-4,-4,-1
1528184753477592,-5,-9,-1,-2,-2,-3,-1,-3
1528184753477592,1,5,8,7,7,-3,1,0
1528184753491555,3,-7,-20,-5,-3,-6,-4,-1
1528184753491555,-7,-11,1,2,1,4,-3,-4
1528184753496541,-7,-1,2,6,5,1,5,-3
1528184753496541,4,11,3,-3,-2,2,-1,-2
1528184753511500,-5,-20,-2,3,-1,0,-1,2
1528184753511500,2,6,3,-4,-7,-11,0,-1
1528184753520503,9,-9,-7,-4,-5,2,-1,3
1528184753520503,-17,-11,12,7,1,1,-4,-5
1528184753559374,2,4,-10,-2,2,0,5,1
1528184753559374,1,8,15,-11,-6,-3,1,2
1528184753560372,4,-1,7,27,5,-5,-2,1
1528184753560372,8,-9,-12,-1,13,4,1,-2
1528184753561369,-9,-17,7,-4,-21,-13,-11,-4
1528184753561369,10,12,-2,5,2,8,2,0
1528184753565356,-5,-8,-7,17,11,2,4,1
1528184753565356,-10,0,10,-15,5,6,2,-1
1528184753571343,-1,0,3,-2,-1,1,1,-1
1528184753571343,3,7,-5,-3,-6,-5,-3,1
1528184753580319,-8,-7,1,6,8,1,0,-4
1528184753580319,5,8,0,8,-2,-3,-1,1
1528184753586301,-2,1,2,15,5,-2,-2,1
1528184753586301,-10,-8,-7,-13,-6,0,4,-1
1528184753602258,0,8,-1,-10,-7,-6,-6,-5
1528184753602258,3,10,-13,11,-4,1,0,0
1528184753608243,-3,-18,11,-31,-6,-4,-3,-1
1528184753608243,-8,-6,1,16,6,16,6,-3
1528184753632178,5,-6,-10,-26,-15,1,0,4
1528184753632178,-1,13,15,14,3,-13,-11,-4
1528184753632178,-1,16,-13,-8,-18,-5,4,-1
1528184753632178,-9,-17,-5,-6,11,-8,-10,-6
1528184753647141,-6,-13,0,-13,1,11,5,1
1528184753647141,2,10,10,-22,-18,-8,-2,-1
1528184753647141,-2,-13,-15,15,20,9,-3,0
1528184753647141,1,1,6,-2,-7,-5,0,1
1528184753669083,-3,3,-4,11,-9,-16,-4,-2
1528184753669083,-1,-7,34,-37,-16,2,0,-1
1528184753670078,6,4,-26,-16,6,4,-7,1
1528184753670078,3,-2,-8,17,0,-2,4,2
1528184753692018,4,10,13,-6,-1,-8,-5,0
1528184753692018,2,-6,-8,-5,-5,1,2,2
1528184753693030,-4,0,18,11,7,4,0,1
1528184753693030,2,-7,-19,-7,-2,1,-2,-1
1528184753707004,-1,4,-6,1,4,6,0,-2
1528184753707004,-2,-3,-5,16,6,-14,-3,-4
1528184753707981,2,6,11,-6,-9,0,-2,1
1528184753707981,1,-1,16,4,-6,-12,-10,-1
1528184753728920,2,-2,-4,13,18,11,1,-4
1528184753728920,-7,2,-17,-18,0,8,7,-2
1528184753729917,-5,-14,14,38,-3,-11,0,-4
1528184753729917,4,15,-2,-27,-1,-7,-5,-2
1528184753751859,-7,-13,3,-10,-11,-5,-6,-3
1528184753751859,-5,-6,-5,20,10,6,4,-1
1528184753752856,5,2,-16,-38,-3,-1,0,1
1528184753752856,-4,2,16,6,-12,-8,-4,-3
1528184753766820,-1,0,-7,-4,2,0,1,1
1528184753766820,0,-1,8,15,-4,-2,-3,-2
1528184753767816,1,3,-8,-15,7,13,7,0
1528184753767816,-4,-3,2,-3,-3,-5,-5,-4
1528184753788761,2,4,-3,2,11,6,5,3
1528184753788761,-1,-6,-4,21,-5,-7,-7,-1
1528184753789757,-4,4,-2,-9,-6,-3,-13,-5
1528184753789757,-1,-9,-7,0,5,9,19,4
1528184753811712,-9,-6,-2,-5,-5,-2,1,-1
1528184753811712,4,-2,-3,-28,-13,-5,-3,0
1528184753812696,-2,2,4,-6,-7,-2,-5,-4
1528184753812696,6,2,-8,-3,-5,-14,-14,2
1528184753826659,-10,-5,3,8,2,5,2,-5
1528184753826659,3,-4,-7,17,12,14,7,7
1528184753827655,0,4,2,-7,-16,-14,-7,1
1528184753827655,-5,-6,0,0,-2,-7,-1,-1
1528184753849634,5,7,3,-27,-12,12,9,4
1528184753849634,-7,-4,-6,12,4,-2,-4,-3
1528184753849634,-1,0,4,-7,-6,-8,-4,-5
1528184753849634,-6,1,-6,2,1,3,-4,-6
1528184753871576,1,-4,1,-14,-14,-12,-6,-5
1528184753871576,0,-1,-5,-7,8,-1,-23,-8
1528184753872536,-1,-2,-6,-1,-1,12,22,4
1528184753872536,-2,-5,1,22,10,-1,1,2
1528184753886537,0,6,-2,-27,-9,-2,1,-2
1528184753886537,2,-1,-3,-21,-14,-13,-16,-9
1528184753887496,-10,-10,0,23,14,5,4,-5
1528184753887496,-3,-5,-5,-25,-9,4,-4,-3
1528184753909437,6,3,-1,19,6,-4,-7,2
1528184753909437,-2,-3,-2,6,-6,-9,5,5
1528184753910434,4,0,-1,3,7,0,2,3
1528184753910434,2,10,3,40,14,3,-4,0
1528184753931427,5,2,-2,-10,-7,-3,5,6
1528184753931427,-1,-4,1,11,7,-1,-2,-4
1528184753932381,3,5,-1,-10,-14,-5,10,0
1528184753932381,0,4,-6,-1,11,11,-1,0
1528184753946367,-4,0,-2,5,-4,-9,-5,-4
1528184753946367,-7,-6,0,-3,10,12,11,1
1528184753953321,5,5,-2,20,9,5,5,2
1528184753953321,-6,-9,-1,-5,-5,-3,0,-3
1528184753969278,-2,1,-5,-25,-22,-20,-33,-8
1528184753969278,0,-2,0,14,15,12,19,4
1528184753970276,-3,-1,0,12,2,2,-13,-4
1528184753970276,2,9,-1,-25,-1,3,9,4
1528184753992216,-4,-19,-1,25,3,-9,-9,-5
1528184753992216,-3,1,-1,-8,-8,-4,-3,-3
1528184753992216,2,-2,0,-1,4,-3,-1,7
1528184753992216,0,1,2,7,6,4,0,0
1528184754006178,-2,5,3,10,2,3,6,3
1528184754006178,2,1,-6,0,-2,-2,-4,-3
1528184754013198,-4,1,1,11,9,-2,-3,-5
1528184754013198,1,2,-10,7,2,2,-3,-4
1528184754029128,-4,-4,7,-4,-4,-3,0,-3
1528184754029128,-4,-9,-3,10,-2,-5,0,0
1528184754030115,2,9,-3,-11,-1,0,-6,-4
1528184754030115,-2,-23,-1,-9,-6,-4,-7,0
1528184754052067,2,19,19,11,8,4,8,0
1528184754052067,-2,-3,-16,-16,-9,-4,-5,0
1528184754053057,-1,2,3,6,3,-2,-3,-2
1528184754053057,23,-1,1,1,3,3,1,3
1528184754066020,-20,-15,-24,-12,-2,3,1,-4
1528184754066020,-2,-15,5,-35,-24,-8,-5,2
1528184754073997,-6,8,23,8,-2,-1,1,4
1528184754073997,0,3,-12,-5,1,-7,-2,-4
1528184754090960,0,6,4,9,2,5,3,1
1528184754090960,7,-2,-11,-14,3,2,1,0
1528184754091949,-2,-1,0,-13,-13,-10,-4,-5
1528184754091949,-4,-2,-14,-4,-3,2,1,1
1528184754111937,12,3,7,-11,-1,-8,-17,-3
1528184754111937,-5,6,-3,-18,-8,0,3,0
1528184754112930,1,2,11,-3,-5,4,1,1
1528184754112930,-4,-9,-10,-3,-3,-6,-3,-5
1528184754125911,9,15,41,11,7,0,-2,-1
1528184754125911,-9,3,-1,6,2,3,1,1
1528184754133839,0,-15,-26,-1,-7,-5,-6,-2
1528184754133839,4,15,33,21,6,-1,-2,3
1528184754148850,1,-13,-25,-7,-3,-6,2,3
1528184754148850,3,7,12,32,14,6,4,3
1528184754149795,10,-10,1,7,9,4,5,-1
1528184754149795,-11,-5,-18,-25,-22,-6,-2,-2
1528184754171738,-5,-1,-23,-1,1,-1,-1,1
1528184754171738,3,-18,-7,24,6,-6,-6,-2
1528184754172734,6,3,9,-15,-11,-2,0,1
1528184754172734,-26,-12,-15,-1,-1,1,0,-4
1528184754185717,4,-2,4,12,10,5,4,1
1528184754185717,0,6,1,3,0,-2,-4,0
1528184754201669,1,-4,-10,2,8,-1,-2,-2
1528184754201669,1,-6,2,-22,-11,-1,1,0
1528184754209668,0,3,-4,-5,-4,2,3,-2
1528184754209668,-4,-4,-1,-7,-5,-2,-2,-1
1528184754209668,-9,0,3,-14,-5,-5,-5,-10
1528184754209668,0,0,14,9,-3,-1,1,3
1528184754233592,-2,-4,-6,-7,-4,-3,-4,-2
1528184754233592,6,7,6,-16,-6,1,0,0
1528184754233592,-4,-4,-4,18,8,1,-1,-1
1528184754233592,-2,-5,1,-10,-4,-2,-2,-4
1528184754246537,5,6,-6,14,11,7,7,0
1528184754246537,-3,-2,7,9,-4,-8,-4,-2
1528184754253518,-1,1,1,-3,0,3,0,1
1528184754253518,0,0,-5,1,1,-1,-1,-4
1528184754269517,-1,0,9,-30,-13,-6,-13,-4
1528184754269517,-5,0,-9,6,4,-2,-7,-5
1528184754270504,-8,-4,-1,-2,-4,-5,-3,-3
1528184754270504,3,2,18,1,3,3,3,-2
1528184754291656,-3,-1,-10,20,3,0,4,0
1528184754291656,-7,-3,-4,-12,-9,-5,-1,-4
1528184754292414,2,2,-1,3,10,11,4,4
1528184754292414,3,-1,-9,0,-9,-6,-2,1
1528184754314387,-2,-5,2,1,-2,2,4,-2
1528184754314387,1,5,3,-6,-2,2,6,2
1528184754315353,-1,-13,-9,10,5,-5,-7,-1
1528184754315353,2,15,3,8,8,-8,-7,1
1528184754329332,-3,-4,-5,10,4,3,-8,-10
1528184754329332,5,15,4,-15,-3,8,21,9
1528184754330537,-5,-22,-7,14,0,-1,-6,-4
1528184754330537,-2,6,1,-6,-5,-4,-4,-6
1528184754351754,-3,-5,-2,-14,-7,-4,-10,-5
1528184754351754,2,2,1,-3,2,4,0,-1
1528184754352481,0,6,-1,-2,-6,-6,5,3
1528184754352481,-1,-2,-3,-3,-12,-8,-2,-2
1528184754374426,-1,-2,-2,-1,-2,-7,-8,-1
1528184754374426,-3,-8,-10,-1,3,10,4,1
1528184754375420,0,4,2,-6,-6,1,1,2
1528184754375420,0,-3,-2,9,5,11,3,0
1528184754389430,1,4,1,-2,-4,-6,18,7
1528184754389430,3,0,-3,10,1,-6,0,0
1528184754390412,-7,-9,-5,-8,1,-3,1,-2
1528184754390412,4,6,4,13,14,7,-12,1
1528184754420373,-1,-11,-5,-3,-11,-4,11,10
1528184754420373,-4,-1,3,13,2,-4,-9,-14
1528184754420373,3,7,-4,-22,-4,0,3,1
1528184754420373,-3,0,1,-12,-4,-5,-11,-5
1528184754434671,0,-3,0,3,3,5,-3,5
1528184754434671,-6,-8,-2,-25,-11,-1,3,-5
1528184754435333,4,12,-1,-1,-2,-2,-12,1
1528184754435333,-3,-5,-4,-29,-19,-7,17,4
1528184754449295,-2,-4,-2,-1,-3,-6,-4,-6
1528184754449295,3,3,3,9,8,3,-3,2
1528184754450292,-2,2,-1,-1,-4,3,1,-1
1528184754450292,1,5,7,13,8,-2,-2,1
1528184754471237,0,-5,-2,-1,-6,0,-6,-3
1528184754471237,-1,-6,-1,-13,0,-1,-11,1
1528184754472233,2,10,-3,-11,-1,2,11,-2
1528184754472233,-9,-24,-3,5,1,0,-3,-1
1528184754494174,3,3,1,-26,-11,-3,2,1
1528184754494174,-6,-7,-2,-2,-6,-7,-4,4
1528184754495180,8,-2,5,6,-1,-3,-6,0
1528184754495180,-2,-3,-4,3,8,9,-1,-4
1528184754509435,-3,-12,-3,-1,3,6,-1,-1
1528184754509435,0,7,2,2,-1,-2,15,0
1528184754510149,-6,-7,1,-2,-5,-7,-4,-1
1528184754510149,1,-5,-3,14,7,3,4,-7
1528184754531505,18,7,5,13,11,4,-10,7
1528184754531505,-24,-3,-3,-10,-7,-2,8,-2
1528184754539422,1,0,-1,8,0,1,-1,0
1528184754539422,4,8,-2,7,7,1,-4,-2
1528184754562994,-9,-13,-5,-10,-6,-1,2,-4
1528184754562994,10,5,-2,5,3,-2,-11,-4
1528184754562994,2,12,-4,7,-2,-3,-2,-2
1528184754562994,-13,-17,-2,-30,-13,-4,-1,-2
1528184754578191,4,2,-13,7,-1,-5,-5,0
1528184754578191,2,-1,12,7,5,-1,-1,1
1528184754578191,-2,0,-2,-1,-2,1,1,-4
1528184754578191,10,17,10,12,-1,-1,5,3
1528184754591213,-4,0,-28,1,9,5,6,0
1528184754591213,0,-7,-2,-21,-12,-6,-11,-5
1528184754600015,-1,2,7,10,6,-1,-1,-1
1528184754600015,4,1,-5,-20,-11,-1,1,1
1528184754615082,-9,4,21,2,2,0,6,-4
1528184754615082,-3,-11,-7,11,-6,-5,-2,-2
1528184754615082,2,4,-22,-34,-25,-5,-5,-1
1528184754615082,4,-6,-3,7,2,-1,2,5
1528184754638026,-1,6,7,11,3,0,1,0
1528184754638026,1,8,-7,-7,1,7,3,3
1528184754638026,1,-18,-8,1,5,-3,-3,-4
1528184754638026,-23,-13,-11,-25,-24,-9,-4,-2
1528184754651483,7,9,19,-1,-5,-2,-1,-3
1528184754651483,1,8,15,15,5,-3,-5,-1
1528184754659218,-8,-16,-14,0,4,7,4,0
1528184754659218,11,25,19,23,8,-4,-1,-1
1528184754674691,-4,-17,-9,-26,-11,1,-5,-1
1528184754674691,3,5,17,-2,-2,1,0,-1
1528184754675473,-1,-2,4,16,11,0,-1,1
1528184754675473,2,-1,-13,3,-2,1,-2,-2
1528184754697696,-3,0,0,5,0,-4,-3,-3
1528184754697696,4,1,-5,-19,-9,-1,-2,-1
1528184754698366,-1,-7,-6,-2,8,0,-2,-1
1528184754698366,-1,-5,-11,-12,-12,-1,-1,0
1528184754711592,-3,5,-17,19,4,0,1,-2
1528184754711592,2,-1,10,1,5,-4,-3,-2
1528184754719309,-1,0,12,7,1,-2,-2,2
1528184754719309,-6,-8,-7,-37,-8,-1,-2,-3
1528184754734270,0,1,-3,4,4,2,2,0
1528184754734270,-1,-4,-11,13,0,-4,-3,-4
1528184754735267,-3,3,6,-19,-20,-4,2,-2
1528184754735267,3,-1,-4,14,17,0,0,-1
1528184754757483,-2,0,5,-1,-2,-1,0,-3
1528184754757483,-1,-6,2,11,3,0,-3,2
1528184754759202,-6,-2,-14,-12,-9,-5,-4,-3
1528184754759202,4,6,3,18,11,5,4,-6
1528184754771206,-5,-5,3,-15,-8,-1,-2,3
1528184754771206,-2,-3,-9,-12,4,3,-1,2
1528184754780146,-1,0,12,38,13,3,0,-2
1528184754780146,-3,-7,-17,-16,-14,-4,-4,-2
1528184754794109,0,5,22,8,6,2,-2,-2
1528184754794109,1,-5,-21,-16,-11,-3,-1,-3
1528184754810067,1,-6,8,-3,8,0,-1,3
1528184754810067,-2,1,-7,5,0,-6,-7,-2
1528184754817102,-3,1,-6,4,1,-3,-4,-2
1528184754817102,1,2,17,8,-2,4,11,2
1528184754819043,-4,-8,-21,-22,-7,1,-3,-4
1528184754819043,0,6,30,0,-2,-2,-1,0
1528184754840045,1,-1,-13,3,3,-5,1,-1
1528184754840045,-4,-2,14,-11,-10,-2,-4,-3
1528184754842060,-1,0,-37,-22,-13,-7,-5,-1
1528184754842060,1,-1,5,-1,10,5,0,1
1528184754854004,0,3,17,21,-6,-3,3,1
1528184754854004,-1,-2,-7,-25,-6,0,0,-2
1528184754862979,0,5,16,12,3,-2,-2,-2
1528184754862979,-3,-2,-10,-6,0,4,3,-2
1528184754877911,2,-3,0,4,1,-1,1,1
1528184754877911,-10,-17,-13,-6,-8,-2,-1,-2
1528184754878883,3,10,9,2,6,1,1,2
1528184754878883,0,-5,2,-2,-8,-6,-5,-2
1528184754899827,-6,-2,-2,-10,-1,3,-1,-5
1528184754899827,8,7,-10,13,11,6,6,5
1528184754901820,-3,-3,12,-7,-7,-9,-10,-5
1528184754901820,-1,-2,-6,5,6,8,-1,-2
1528184754913790,-4,-6,-13,-24,-9,-4,0,-2
1528184754913790,-2,0,6,10,4,-5,-8,-4
1528184754922766,0,1,7,13,6,4,6,4
1528184754922766,-1,-1,-6,-20,-16,-8,-4,-1
1528184754937726,0,-3,0,16,10,2,-3,0
1528184754937726,1,3,-8,1,-3,-2,-5,4
1528184754938724,-1,1,1,-2,2,4,-2,-3
1528184754938724,-2,-4,3,12,7,1,4,2
1528184754959667,-3,1,-7,8,-3,-8,-8,-4
1528184754959667,4,4,-2,-28,-12,-8,3,1
1528184754961662,-1,2,-5,8,1,2,5,-2
1528184754961662,-3,-2,-1,5,-1,-3,-3,-4
1528184754973630,2,3,0,9,7,6,-4,-3
1528184754973630,-2,-12,-6,2,-3,-4,-5,3
1528184754982606,-3,7,-1,-9,-8,-8,-7,-2
1528184754982606,-2,-2,0,15,6,6,16,5
1528184754997566,2,3,-7,-13,-6,-5,-4,0
1528184754997566,-4,-3,-2,9,12,1,3,-5
1528184754999568,0,-4,6,17,-6,-5,-5,-3
1528184754999568,-1,2,3,11,5,-2,-6,-2
1528184755019507,-4,-5,-8,-32,-13,-5,-4,-6
1528184755019507,-2,2,0,6,1,-1,-6,-5
1528184755021515,-2,-8,0,-7,-2,1,8,5
1528184755021515,-4,-2,-2,-11,0,2,2,-2
1528184755033470,1,4,1,-8,0,-2,-4,0
1528184755033470,-2,-3,-1,13,8,1,-3,-3
1528184755042446,1,-3,-1,-7,-3,-2,-9,1
1528184755042446,0,-1,-2,3,-1,1,21,4
1528184755057406,-3,-5,-6,-18,-12,-9,-12,-4
1528184755057406,-6,0,-1,4,0,3,-7,-6
1528184755059402,0,-3,3,8,0,2,17,2
1528184755059402,1,4,-2,-5,-3,-3,6,-5
1528184755080615,-6,-3,-2,0,-4,-1,5,3
1528184755080615,2,-2,0,24,7,0,-11,1
1528184755081341,-3,4,-1,-34,-15,-12,-11,-9
1528184755081341,-2,-5,0,2,-5,-7,-13,-1
1528184755093321,-1,-1,0,-9,-3,4,9,-1
1528184755093321,-3,0,-4,16,6,3,-7,-5
1528184755102285,3,2,-6,-23,-6,4,7,4
1528184755102285,-2,-6,0,1,1,-4,-6,-2
1528184755117492,3,5,1,10,-2,-2,-5,5
1528184755117492,-1,-4,-1,-3,0,0,7,1
1528184755119241,-4,-5,-2,5,1,3,9,0
1528184755119241,1,4,0,-9,-3,-2,-19,-1
1528184755140433,-4,-14,3,10,5,2,1,-4
1528184755140433,-2,6,-3,-10,-7,-6,6,-1
1528184755142373,2,0,-1,6,1,-2,-7,3
1528184755142373,1,0,0,3,4,1,-1,-1
1528184755154278,3,-9,5,3,0,4,1,-1
1528184755154278,-4,-10,-13,0,-5,-4,0,-10
1528184755170121,-2,-9,-29,-5,1,-1,-4,0
1528184755170121,-4,-8,-10,2,1,-1,-4,-1
1528184755178165,0,3,11,0,-1,-1,3,2
1528184755178165,-2,-12,-13,7,3,-1,1,2
1528184755179090,1,12,19,-10,-4,0,1,-2
1528184755179090,-6,-17,-6,-14,-7,0,-4,-5
1528184755200270,-1,3,-13,-3,-2,-2,-2,-1
1528184755200270,4,6,20,-4,-4,-4,-1,4
1528184755202045,1,1,-3,14,5,-2,-3,-1
1528184755202045,1,14,12,5,6,6,3,0
1528184755213874,-2,-6,-11,-29,-10,-1,2,-1
1528184755213874,1,0,15,2,-9,-7,-8,2
1528184755223029,-2,1,10,16,0,-4,-5,-1
1528184755223029,-3,3,2,-37,-11,2,4,-1
1528184755238308,-3,-4,-7,1,-2,0,3,-1
1528184755238308,-1,3,-7,-13,-5,0,1,-7
1528184755238947,-1,-1,13,1,-4,2,3,5
1528184755238947,0,-11,-39,11,8,0,0,-1
1528184755260210,2,7,3,1,-4,-5,-7,-2
1528184755260210,-3,2,3,-2,-2,-1,-2,0
1528184755261894,-3,-4,1,14,10,7,1,-6
1528184755261894,1,-1,6,2,-5,-6,-2,-1
1528184755273970,1,4,-18,3,3,-1,-2,-1
1528184755273970,3,10,14,-5,-9,-2,-1,2
1528184755282829,1,1,-1,-7,2,-1,-2,-2
1528184755282829,0,-3,13,19,5,2,0,1
1528184755298040,0,1,1,4,-1,-3,-4,-2
1528184755298040,1,2,-1,1,4,4,5,2
1528184755298866,-2,-4,-13,12,8,4,1,0
1528184755298866,1,6,15,-1,-10,-7,-2,-1
1528184755335688,2,4,7,-15,-7,0,1,2
1528184755335688,-3,-8,-16,2,7,1,-1,0
1528184755337683,0,0,10,7,4,3,-3,-1
1528184755337683,0,1,-8,6,1,0,0,1
1528184755337683,-1,2,2,16,7,1,2,1
1528184755337683,-1,4,18,-11,-6,0,-2,1
1528184755343008,-2,-3,-18,-10,-5,-4,-1,-3
1528184755343008,-8,-4,4,3,-4,-6,-5,-4
1528184755365277,1,-2,1,-7,-2,1,2,-1
1528184755365277,-1,-4,-6,4,3,0,-2,-2
1528184755366909,-3,-3,-2,13,-2,-2,-1,-2
1528184755366909,-1,0,-12,-13,-3,-5,-8,-3
1528184755380871,-3,0,0,8,5,-1,-1,1
1528184755380871,0,-3,14,3,-1,1,1,3
1528184755381869,-1,0,-25,4,6,-1,-2,-4
1528184755381869,1,13,20,-12,-7,0,-2,2
1528184755393836,-6,-17,-1,7,4,0,-3,-5
1528184755393836,-1,7,-4,1,1,0,2,-2
1528184755402814,0,2,7,-8,-2,-2,-2,-1
1528184755402814,1,-4,-4,-2,-8,0,-1,-3
1528184755418138,-2,-1,-1,11,12,1,-1,-1
1528184755418138,0,0,-3,-30,-20,-6,-2,0
1528184755418771,-6,-14,-18,-6,-4,-1,0,0
1528184755418771,1,3,24,7,4,1,2,-1
1528184755439164,-3,-7,-18,2,-3,-2,0,-2
1528184755439164,-2,-3,-7,1,0,-1,-4,0
1528184755447693,-1,1,-1,-8,-6,-3,-3,-1
1528184755447693,0,-3,-16,-3,0,-2,1,1
1528184755453991,-3,1,8,-3,-1,-2,-1,-1
1528184755453991,0,-2,-4,0,-1,-1,-2,-2
1528184755462700,2,-3,-5,-13,-4,-4,-1,-2
1528184755462700,-3,-6,12,7,1,-3,-7,-2
1528184755477922,-3,-2,-3,-2,-3,2,3,-2
1528184755477922,-4,-3,-14,-10,-3,-3,-1,-1
1528184755478658,-1,-5,7,1,2,1,-1,-2
1528184755478658,-1,-1,-12,1,-1,-1,1,-2
1528184755499828,-1,0,3,-5,-4,-2,-6,-1
1528184755499828,1,2,1,13,5,-2,5,4
1528184755501596,1,-1,6,-15,-10,-4,-3,0
1528184755501596,-1,0,-5,10,6,2,0,2
1528184755513565,-1,-2,0,-9,-2,1,2,-1
1528184755513565,-2,-7,-7,2,-1,0,-4,-2
1528184755522594,-1,3,7,2,-2,-3,-4,-1
1528184755522594,-6,-5,-10,-2,2,1,-1,-5
1528184755537856,0,-1,2,1,-3,-1,1,-3
1528184755537856,5,7,-1,2,4,3,1,4
1528184755539548,-2,-2,1,-14,-10,-4,-3,-3
1528184755539548,2,-2,1,5,3,-1,-1,0
1528184755560696,-3,1,4,-4,-4,-2,-2,1
1528184755560696,-5,-9,-19,1,2,-1,-1,-5
1528184755561498,3,6,16,-9,-1,2,3,1
1528184755561498,1,0,1,2,-4,0,3,4
1528184755573714,0,1,-2,-3,3,-3,-3,-1
1528184755573714,3,2,2,4,3,3,2,1
1528184755582513,-2,-3,3,5,0,-5,-2,-1
1528184755582513,-2,-3,-11,-5,0,-1,-2,-1
1528184755596962,1,0,-3,-2,-5,-4,1,1
1528184755596962,-3,1,12,-1,-1,-1,1,-2
1528184755603947,-2,0,-9,7,3,2,-3,-2
1528184755603947,-1,-2,3,-6,-7,-3,-4,1
1528184755620673,-1,0,2,0,-1,-1,0,-1
1528184755620673,-3,0,2,-4,-1,-3,-7,-4
1528184755621639,-2,-1,-3,5,0,-1,0,0
1528184755621639,-1,0,-4,0,1,0,9,-4
1528184755633865,0,3,-2,-2,-2,3,2,6
1528184755633865,1,-3,-6,-4,-6,-3,-3,-4
1528184755642589,-2,0,-3,1,2,-2,-4,-3
1528184755642589,-3,-3,-1,3,4,1,-3,-2
1528184755656786,1,0,1,-4,-4,1,0,-4
1528184755656786,-6,-2,0,4,3,-2,1,2
1528184755664766,3,-1,-7,1,0,1,-3,-1
1528184755664766,2,-2,0,-1,-2,-7,-7,-1
1528184755680757,-3,0,3,-8,-2,4,1,-2
1528184755680757,-5,-4,-5,1,1,1,0,-3
1528184755682475,-1,0,5,2,1,-2,-1,-2
1528184755682475,2,2,-2,-5,-3,-2,-2,-1
1528184755693445,-8,-5,1,3,1,-4,-3,-2
1528184755693445,-2,-3,-4,-8,-4,-4,-3,-3
1528184755702421,-1,-7,-18,-5,-3,2,2,2
1528184755702421,-1,-2,-3,2,1,-1,-3,0
1528184755717677,3,-1,-3,-15,-2,-2,-1,-2
1528184755717677,-3,-2,0,1,-2,-2,-3,-1
1528184755724505,-5,-5,4,0,-4,-1,-1,-2
1528184755724505,-1,0,-14,-6,-7,-5,0,0
1528184755740468,-2,-2,-2,7,3,-2,-3,-4
1528184755740468,-2,-4,-4,-2,-1,2,-1,0
1528184755741475,3,8,17,-4,1,-1,0,0
1528184755741475,-1,-13,-25,-4,-3,-2,-4,-2
1528184755762651,1,4,6,3,-1,-1,0,-2
1528184755762651,2,2,-3,-1,0,-1,-2,-3
1528184755764657,-2,-2,-3,-2,-1,-2,2,-1
1528184755764657,-3,2,10,-2,-1,-1,0,-1
1528184755777377,-2,-8,-11,6,2,-2,-2,-1
1528184755777377,-1,-3,7,-3,-5,1,0,1
1528184755783606,-3,0,1,2,-1,0,-1,-2
1528184755783606,-3,3,16,0,0,2,-1,-1
1528184755800565,2,-1,-11,-3,-3,-3,-2,0
1528184755800565,1,3,2,-1,-2,-6,-4,-1
1528184755801509,-2,-3,-15,-3,2,3,1,0
1528184755801509,1,4,21,6,5,10,4,1
1528184755823381,-1,-1,3,6,4,3,4,2
1528184755823381,-2,-4,-5,5,-1,-4,-2,-2
1528184755824241,3,0,3,-5,-5,-5,-3,0
1528184755824241,3,-2,-16,-11,-1,-3,-1,0
1528184755837480,-3,1,25,4,-3,-2,0,-2
1528184755837480,-1,-1,-22,-3,1,2,2,-2
1528184755844340,-4,-16,-14,-2,-10,-9,-3,-1
1528184755844340,-4,-1,6,1,9,4,-1,-1
1528184755860407,0,3,6,-5,-4,-3,-4,-1
1528184755860407,1,-2,-11,2,10,4,0,-1
1528184755862347,-3,3,11,2,-3,-4,0,-4
1528184755862347,3,3,-3,-1,-1,-1,0,-1
1528184755883187,0,-2,-17,-1,-2,1,-3,-1
1528184755883187,0,-2,11,-1,-7,-3,1,1
1528184755884081,-1,1,-4,-3,1,2,1,-2
1528184755884081,-11,-3,8,1,-3,-5,-2,-1
1528184755896049,9,14,-4,4,1,-1,3,4
1528184755896049,-3,-8,3,-1,-7,-8,-3,-3
1528184755905025,1,4,4,4,3,6,1,1
1528184755905025,-2,-5,-9,7,-1,5,2,-1
1528184755927964,0,-2,2,-10,-3,0,-3,-2
1528184755927964,-3,-5,3,-1,-4,-2,-3,0
1528184755928962,-2,-1,-4,-3,0,-5,-3,-2
1528184755928962,3,-1,2,-5,-4,-4,0,-1
1528184755943183,-9,-6,-4,9,4,1,-3,-4
1528184755943183,2,2,-7,-12,-7,-3,-2,2
1528184755943921,-2,-1,10,0,2,-1,0,-1
1528184755943921,-1,-4,-3,-8,-5,-1,-2,-2
1528184755956150,-3,-3,-3,2,-1,-3,-2,-1
1528184755956150,3,5,-3,4,3,3,0,-1
1528184755965046,-1,6,-4,-5,-6,-2,-3,-2
1528184755965046,0,3,-1,-12,-2,-4,-7,-1
1528184755980067,0,2,-8,-2,-5,-3,-2,0
1528184755980067,2,3,10,18,5,2,2,1
1528184755981819,1,5,-2,-9,-5,-1,-3,2
1528184755981819,2,4,3,29,3,-2,-1,-2
1528184756003056,-2,-8,-5,-28,-3,-3,-1,-1
1528184756003056,-3,-1,6,13,-1,-2,-4,-2
1528184756004954,-2,0,0,-2,-2,0,2,0
1528184756004954,-4,-3,-12,-7,-4,-3,-1,-2
1528184756016895,-1,0,-12,-12,-2,-1,-1,-4
1528184756016895,0,0,1,-19,-6,-1,4,3
1528184756025302,-2,-6,5,8,1,-1,-4,-3
1528184756025302,1,-2,-9,-8,3,3,-5,-1
1528184756040522,-5,-5,-13,-1,-6,-4,2,-2
1528184756040522,-2,-1,-5,-17,-2,-2,-7,-4
1528184756042337,0,-1,-1,-2,7,-2,0,-3
1528184756042337,1,0,9,12,0,-1,4,2
1528184756063350,0,0,5,4,1,-1,-6,0
1528184756063350,3,2,3,7,-1,0,1,1
1528184756064198,-3,-13,4,16,5,3,2,0
1528184756064198,5,13,1,6,-10,-7,-6,-1
1528184756076500,-2,-3,-4,-14,0,3,1,0
1528184756076500,-2,-10,9,5,3,0,-2,-2
1528184756085142,1,1,-6,-2,-2,-1,-2,0
1528184756085142,0,0,1,-8,-6,-6,-3,0
1528184756100141,0,-2,3,8,1,1,5,0
1528184756100141,-3,0,-7,-5,-4,-1,-6,-1
1528184756102102,3,4,-7,-11,-3,-4,-2,0
1528184756102102,-2,-5,-1,4,3,3,3,0
1528184756122044,-2,-1,6,9,1,-3,-1,-3
1528184756122044,-2,2,-3,-4,0,2,1,-2
1528184756124039,-1,-2,5,2,-2,0,2,0
1528184756124039,-2,-3,-7,-14,0,0,1,-2
1528184756136007,2,4,0,6,-2,0,-3,0
1528184756136007,-1,-3,-1,0,0,1,-2,-1
1528184756145010,-1,0,-4,-4,-2,-1,-1,-3
1528184756145010,-1,-7,4,0,1,2,4,0
1528184756159943,0,-1,0,5,-1,-2,-5,-4
1528184756159943,-4,-2,-4,-2,1,0,2,-2
1528184756161937,1,2,1,-3,-2,-1,-4,0
1528184756161937,-1,0,3,-3,-3,-1,-5,0
1528184756182883,-3,-6,3,1,4,1,10,1
1528184756182883,-2,0,-1,-3,-1,-2,-1,-1
1528184756183880,-2,-3,-1,3,3,1,1,-3
1528184756183880,-6,-10,0,3,4,1,3,2
1528184756196900,1,-1,-1,0,-3,-2,-1,0
1528184756196900,2,1,-3,-4,-3,-2,0,1
1528184756204846,-4,0,-3,1,-3,1,-2,-1
1528184756204846,-2,-1,-1,1,0,-2,-3,-3
1528184756220005,-2,0,0,2,2,1,0,1
1528184756220005,-2,-1,-3,-7,0,-2,-11,-5
1528184756221776,-1,1,3,1,-2,-4,7,1
1528184756221776,-3,-1,-15,-10,-4,-2,1,-1
1528184756249945,-1,-4,7,8,-4,-1,-6,-4
1528184756249945,-1,0,-4,-5,-3,0,0,-1
1528184756251698,-3,-8,5,3,2,1,-1,1
1528184756251698,0,4,0,-4,-4,-5,-3,-4
1528184756256730,-3,-2,3,1,0,2,-2,1
1528184756256730,-2,-3,-8,-2,-2,-3,2,0
1528184756265663,0,0,-2,-1,0,-1,0,-1
1528184756265663,1,-1,-2,-4,-2,-3,-2,-1
1528184756280798,-1,0,2,4,-1,0,-2,-2
1528184756280798,-1,0,3,4,0,1,2,0
1528184756281617,-3,-6,-9,-4,-5,-1,-8,-3
1528184756281617,-2,0,-2,1,0,-1,-2,-2
1528184756302561,1,0,-2,-3,-2,0,3,1
1528184756302561,-2,-2,-5,-2,-1,0,-3,-2
1528184756304555,-1,0,-4,-5,-2,-3,-2,-1
1528184756304555,-1,4,-6,-1,0,-1,0,0
1528184756316526,3,12,-5,-3,-4,-3,-1,3
1528184756316526,0,1,6,1,0,-1,5,2
1528184756325500,-1,-1,-3,-1,-1,-2,-7,-2
1528184756325500,-2,-3,3,0,0,2,1,-3
1528184756339709,2,-2,-4,-7,-5,-3,-3,1
1528184756339709,1,-1,1,5,-2,-1,-2,-1
1528184756341457,-2,2,5,1,1,0,1,0
1528184756341457,-1,0,-4,-6,-3,-2,-1,-1
1528184756362707,-5,-8,4,4,5,3,-1,-4
1528184756362707,-2,-3,-9,-6,-3,-5,-7,-3
1528184756364062,-3,-5,0,1,0,3,7,5
1528184756364062,-1,-1,-1,0,-2,2,-4,-3
1528184756376698,-1,-10,7,4,4,2,0,1
1528184756376698,0,3,2,0,1,2,-1,-1
1528184756385647,3,9,-9,-6,-6,-4,1,0
1528184756385647,-2,-6,2,1,-1,-3,-3,-3
1528184756400831,1,0,-6,-4,-4,-2,-3,-3
1528184756400831,0,1,3,-2,-3,-1,5,4
1528184756401604,1,1,-1,-2,-2,-1,-1,-2
1528184756401604,-1,0,2,-1,-2,0,3,1
1528184756422895,-3,0,-5,-2,-1,-3,-6,0
1528184756422895,2,0,-5,-3,-2,-1,-7,-3
1528184756424557,0,-1,1,0,0,0,-3,-2
1528184756424557,0,-3,2,3,4,0,1,-1
1528184756436782,-1,-2,-3,-3,-2,-3,-1,-1
1528184756436782,-1,-12,7,3,3,2,0,1
1528184756445070,-2,-2,-1,-2,-1,-4,-3,-3
1528184756445070,-2,-1,-3,-2,-4,0,-3,-1
1528184756460238,1,2,-2,-3,-4,-4,5,2
1528184756460238,-4,-4,1,1,3,2,1,0
1528184756461996,0,0,1,-1,-2,-2,-3,-2
1528184756461996,1,1,-1,-1,-6,-4,-1,6
1528184756483307,-1,-1,5,1,-1,0,-3,-1
1528184756483307,1,7,-4,-1,-2,-2,2,-1
1528184756484272,0,1,-5,-3,0,-1,-1,-2
1528184756484272,0,1,1,1,1,-1,-4,-1
1528184756496501,-4,-4,-2,1,3,-1,3,-3
1528184756496501,0,2,-5,-1,-5,-3,-1,-1
1528184756505215,-3,0,-1,-1,-1,1,-8,-2
1528184756505215,1,-2,-1,-2,0,-2,8,1
1528184756519178,0,0,-4,-4,-6,-4,3,2
1528184756519178,-2,-3,-1,-3,0,-4,-3,-2
1528184756527406,-2,-6,0,-2,-2,-3,-4,-4
1528184756527406,-2,-6,0,-2,1,-1,-1,-2
1528184756542266,0,4,-4,-3,-1,-2,-5,-3
1528184756542266,0,2,1,-1,-4,-4,-1,0
1528184756544256,1,1,-1,-1,-2,0,0,1
1528184756544256,-2,1,-3,-3,0,-1,-2,-4
1528184756556373,1,2,2,0,-3,-1,-6,-1
1528184756556373,0,2,-5,-2,-1,-1,2,1
1528184756565199,-2,-3,-2,-2,0,-1,1,0
1528184756565199,-1,-1,-1,1,-2,-1,-5,-4
1528184756580492,-1,-2,-2,-2,-1,-1,-2,-1
1528184756580492,-1,-3,2,1,-2,0,-3,0
1528184756582306,0,-3,2,0,0,-2,0,0
1528184756582306,-1,-2,-1,-2,-2,-1,2,-1
1528184756603227,0,-2,-2,-2,0,-2,-1,-1
1528184756603227,-3,-2,-2,0,2,-1,0,0
1528184756604095,-1,1,-2,-1,-2,0,-4,-1
1528184756604095,-1,-1,0,0,-1,-1,-4,0
1528184756616318,-2,-3,-2,1,0,1,3,-2
1528184756616318,1,-2,-1,-1,0,1,-2,-2
1528184756625038,-1,-2,-3,0,0,-1,2,-1
1528184756625038,-2,-1,-3,-2,1,2,-4,-2
