timestamp,emg1,emg2,emg3,emg4,emg5,emg6,emg7,emg8
1528282179941879,-1,-2,0,1,0,1,0,-1
1528282179941879,1,-1,-2,-1,-1,-2,-1,-2
1528282179942876,0,-2,0,1,0,0,1,-1
1528282179942876,-1,-1,1,-1,0,1,-1,-3
1528282179942876,-2,-1,-1,-1,-1,-2,-2,-1
1528282179942876,0,-1,0,-1,0,0,-2,0
1528282179944872,-2,0,-1,-1,0,-1,-2,0
1528282179944872,-2,0,-2,0,-2,0,0,0
1528282179955847,-2,0,-1,-1,-1,-2,-1,-1
1528282179955847,0,-1,-1,0,1,0,1,-2
1528282179964817,-1,-1,-1,-2,-2,1,0,-2
1528282179964817,0,-1,0,-2,-2,-1,-2,-1
1528282179969805,-2,-2,-1,-1,-1,0,-2,0
1528282179969805,-2,-1,-1,0,0,0,-3,0
1528282179984766,-1,-1,0,-1,-2,-2,0,-2
1528282179984766,1,-1,-1,0,-1,0,1,0
1528282179995734,0,0,-2,-1,-1,0,1,1
1528282179995734,1,0,-1,0,-2,0,-1,1
1528282179999725,0,-1,0,0,1,-1,1,0
1528282179999725,-1,-3,0,1,0,-1,-2,-1
1528282180015682,0,0,0,-1,-1,0,-1,0
1528282180015682,-1,-1,0,-2,0,0,-1,0
1528282180023661,0,0,-1,-1,-3,0,-1,-1
1528282180023661,0,0,-1,1,-1,-2,0,-1
1528282180063555,0,0,-1,-1,-1,-1,-1,-1
1528282180063555,-1,0,1,0,0,-1,-2,0
1528282180064552,0,0,1,0,0,-1,-1,-1
1528282180064552,-1,0,-2,-1,0,-3,-2,0
1528282180065550,0,-2,-2,-2,0,1,1,-1
1528282180065550,0,-1,-2,-1,-2,0,0,1
1528282180067543,1,-1,-1,0,0,-1,1,-1
1528282180067543,0,0,-1,-1,-1,-1,1,-1
1528282180075522,-1,0,1,0,-1,-2,-1,-1
1528282180075522,-2,-2,-1,0,0,0,0,1
1528282180082504,-2,-2,-3,0,-1,0,0,0
1528282180082504,-1,-2,0,-1,1,0,-1,2
1528282180089485,-1,0,-1,0,0,0,-1,1
1528282180089485,-2,1,-1,-1,-3,0,-1,0
1528282180104444,0,1,1,-1,0,-2,-1,0
1528282180104444,0,-1,0,0,0,0,-1,-1
1528282180113420,-1,0,0,-1,0,-2,-1,0
1528282180113420,1,-2,1,0,-1,-2,-1,-1
1528282180119404,0,-1,-1,-1,-1,1,-1,0
1528282180119404,-1,-2,0,0,-3,-1,-1,-1
1528282180135361,-1,-2,-1,0,0,2,1,1
1528282180135361,-1,-1,-1,0,-1,-1,0,-2
1528282180142343,0,0,-1,-3,-1,0,-1,-2
1528282180142343,0,0,-2,0,0,1,-2,0
1528282180149324,0,0,-1,0,-2,-1,-1,-1
1528282180149324,0,0,1,0,1,0,-1,-2
1528282180164284,1,-1,-2,-1,1,-2,-1,-1
1528282180164284,-3,1,0,0,-2,-4,-1,-1
1528282180173260,-1,-1,0,-1,0,0,-1,-1
1528282180173260,0,0,-1,0,0,0,0,0
1528282180179244,-1,0,-1,1,0,-1,1,-2
1528282180179244,1,1,-1,-1,0,0,1,-1
1528282180195202,-2,0,0,-1,-1,-3,-1,1
1528282180195202,-1,-1,-1,-1,0,-1,-1,0
1528282180202183,-3,-2,-1,-1,-1,0,0,-1
1528282180202183,-1,0,0,-2,-1,1,0,0
1528282180210162,-1,1,1,-1,0,-1,-1,-2
1528282180210162,1,0,0,-2,1,-1,-1,-1
1528282180224125,1,-1,1,-1,0,-3,-2,0
1528282180224125,0,-1,-1,-1,0,-2,-1,-1
1528282180233100,2,-1,-2,0,-1,-1,0,0
1528282180233100,-2,0,0,-1,0,1,-2,2
1528282180239085,-1,1,0,1,-1,-1,-2,-3
1528282180239085,-1,-1,0,1,0,-1,0,-3
1528282180255043,1,0,-2,-1,-2,-1,1,-1
1528282180255043,-1,-1,-2,0,-1,-1,0,0
1528282180262026,-1,0,1,-1,-2,-1,-2,1
1528282180262026,-1,-1,0,-2,0,-1,-2,-1
1528282180270002,0,-2,2,1,0,0,-1,0
1528282180270002,1,-1,0,-1,-1,0,0,-1
1528282180284961,1,-1,-2,0,0,0,0,1
1528282180284961,1,-1,1,-1,-1,0,1,1
1528282180292940,-3,-1,-1,0,-1,0,2,-1
1528282180292940,-1,-1,-2,-1,-3,-2,1,-1
1528282180299922,-2,0,0,1,-1,1,1,0
1528282180299922,0,2,-1,0,-2,-2,-3,0
1528282180314882,-1,0,-1,0,-1,-2,-4,0
1528282180314882,-1,0,0,0,-2,0,-2,-1
1528282180321864,1,-2,1,-1,-2,0,1,-1
1528282180321864,-1,0,-1,-1,1,3,1,0
1528282180329856,0,1,-2,-3,1,-1,-2,0
1528282180329856,-1,-1,-1,-1,1,-3,0,-1
1528282180344802,-2,1,-1,1,-2,-1,-3,0
1528282180344802,-1,-1,0,-1,-2,0,0,-1
1528282180352780,-2,-1,-2,0,0,0,0,-2
1528282180352780,-1,0,-1,-1,0,1,-1,-1
1528282180366743,-1,-1,-2,-1,0,-1,1,-1
1528282180366743,0,-1,-1,0,-2,-4,-2,-1
1528282180375719,1,-1,0,0,0,-1,0,0
1528282180375719,1,-1,-2,0,-1,-1,0,0
1528282180381703,1,0,0,-2,1,0,1,0
1528282180381703,-1,-2,-1,1,0,0,0,-1
1528282180389682,0,0,0,-1,-2,1,0,-1
1528282180389682,-2,0,1,1,-2,-1,0,1
1528282180404651,0,0,0,-1,-2,-1,-1,-2
1528282180404651,0,-1,1,0,-1,-1,1,0
1528282180412621,-3,1,-1,-2,-3,-1,0,-1
1528282180412621,0,0,0,-1,0,-1,-1,0
1528282180426584,0,-2,-2,1,0,-1,-2,0
1528282180426584,1,0,-2,-1,2,-2,-1,-1
1528282180435559,-2,-1,-1,1,0,-1,1,-1
1528282180435559,0,-1,0,0,1,-2,1,-3
1528282180442541,-1,-1,0,0,-1,-2,0,0
1528282180442541,-1,0,-3,0,1,2,-1,0
1528282180449521,1,-2,-1,-1,-1,1,-3,0
1528282180449521,-1,-2,-1,0,-2,1,-2,1
1528282180464482,-1,-2,0,-1,0,2,-1,-1
1528282180464482,-2,-1,1,-1,-1,0,-2,-1
1528282180472460,-1,2,-3,0,1,-3,-2,-2
1528282180472460,-1,2,-2,0,-2,1,0,-2
1528282180487420,0,-1,-1,-2,-2,-1,0,-1
1528282180487420,0,0,1,0,0,-2,0,0
1528282180495399,1,-1,1,1,1,0,-1,0
1528282180495399,0,-1,-2,-2,-1,1,0,-1
1528282180502380,1,-1,-1,0,0,-3,0,-1
1528282180502380,-1,0,-2,-2,-2,-3,0,0
1528282180509362,-1,0,1,-1,-1,-2,-1,1
1528282180509362,-1,-1,-2,1,-2,-2,0,0
1528282180524322,1,-1,-1,-1,-1,0,-1,2
1528282180524322,0,-1,1,-2,-2,-2,0,-1
1528282180532301,3,-1,0,-1,0,0,0,0
1528282180532301,-2,-1,-1,-2,0,-2,-2,-2
1528282180547261,-1,-1,-1,0,-2,0,1,-1
1528282180547261,-1,-1,-2,-2,0,0,-1,-2
1528282180555240,-1,-1,-2,0,-1,-1,0,-1
1528282180555240,-1,0,-1,-1,-2,-2,-1,-1
1528282180562220,-1,-1,0,-1,0,0,-2,-1
1528282180562220,1,-2,-2,-2,-1,1,-1,-1
1528282180569202,0,-1,0,-1,-2,-1,-1,-1
1528282180569202,0,-2,-1,-2,2,0,-1,0
1528282180584162,0,-1,0,0,0,-3,0,-2
1528282180584162,-1,-1,0,1,-1,1,1,1
1528282180593188,-1,-3,0,-1,0,0,1,-1
1528282180593188,0,-1,-2,-1,-1,-1,0,1
1528282180607126,0,-1,-2,0,-1,-1,-1,1
1528282180607126,-1,-1,-1,-1,0,0,-1,-2
1528282180615081,1,-1,0,0,0,1,0,-2
1528282180615081,-1,-1,2,-1,1,-1,-3,-1
1528282180622063,-2,-2,1,-1,0,-2,-2,0
1528282180622063,-2,0,-1,1,0,-2,-1,0
1528282180639016,0,-1,-2,0,0,-3,-2,1
1528282180639016,1,1,0,0,0,0,1,-1
1528282180645000,0,-1,-1,0,-1,-2,1,0
1528282180645000,0,2,0,0,-1,0,1,-3
1528282180653975,-2,-1,-1,-1,0,-1,-1,-1
1528282180653975,-1,0,0,-2,1,2,-1,-1
1528282180666977,-2,-2,-2,-1,0,0,0,-1
1528282180666977,0,-1,-1,0,1,2,0,2
1528282180675916,-1,0,-2,-1,-1,-1,-1,0
1528282180675916,0,0,-2,-1,-2,-1,-1,-1
1528282180681923,-1,-1,0,0,-1,0,1,0
1528282180681923,0,-2,1,-1,-1,-3,-1,0
1528282180698855,1,-1,1,0,0,-1,0,2
1528282180698855,-2,-1,-1,0,-1,0,0,0
1528282180704840,-1,1,0,-1,0,-1,-1,-1
1528282180704840,1,1,0,-2,0,-2,0,-1
1528282180713817,0,1,0,0,-1,-1,-1,-1
1528282180713817,0,1,0,-1,-1,0,1,-1
1528282180726815,-1,0,1,-1,-1,0,0,-1
1528282180726815,0,-2,-2,0,1,1,1,-2
1528282180735757,-1,0,-2,-2,-1,1,-2,-1
1528282180735757,1,-2,-1,1,-2,1,-1,-1
1528282180741789,0,-1,0,0,-1,-1,-1,0
1528282180741789,-1,-1,-1,0,0,-1,-1,0
1528282180759184,-1,-1,-1,-1,-1,-1,0,-2
1528282180759184,-2,1,0,-1,-1,-1,1,-1
1528282180765114,-3,-1,-1,0,-2,2,0,-2
1528282180765114,-2,-2,-1,0,-3,0,-3,2
1528282180773032,0,0,-1,0,0,0,0,-1
1528282180773032,1,-1,0,0,-1,-2,1,-2
1528282180786995,0,-1,-2,0,1,0,0,-1
1528282180786995,-1,0,-3,-1,1,-1,0,-1
1528282180795971,-1,0,0,-1,-2,-2,0,-1
1528282180795971,-1,0,0,0,-2,-3,-1,-2
1528282180802101,-1,1,0,0,0,-1,0,1
1528282180802101,-1,0,0,-2,-2,1,1,1
1528282180819156,-2,-2,-1,-1,-1,0,-1,-1
1528282180819156,-2,0,0,-1,-1,2,-2,-1
1528282180825093,-1,-2,-2,-1,-1,2,-2,0
1528282180825093,1,1,1,0,1,-2,-1,1
1528282180833263,0,-1,1,-2,-1,0,0,2
1528282180833263,1,-1,0,-1,1,-2,2,2
1528282180847587,0,-1,-1,0,0,-1,-2,-2
1528282180847587,-1,0,-1,-1,0,-1,-2,-2
1528282180856447,-1,-1,-1,-1,-1,-3,1,-3
1528282180856447,-2,-1,1,-2,2,0,0,-1
1528282180862585,-1,0,-2,-1,-2,-1,0,-2
1528282180862585,-1,-2,-2,-2,-1,0,-1,0
1528282180878583,-2,0,0,-1,-1,-2,-2,0
1528282180878583,1,1,-2,2,-2,-2,-2,0
1528282180884778,0,-1,0,-2,-1,-1,1,0
1528282180884778,0,-1,0,1,-2,0,2,1
1528282180893857,1,1,-1,-1,0,1,0,0
1528282180893857,-2,0,-1,-1,0,-2,0,-1
1528282180907073,-1,2,1,-1,1,-3,-2,0
1528282180907073,-2,0,-2,-2,0,-1,-2,-2
1528282180916010,0,-1,-1,0,0,0,-1,1
1528282180916010,-2,-3,1,0,-2,1,-2,1
1528282180921994,0,1,-1,-1,-1,1,0,-1
1528282180921994,-1,-1,0,-1,-1,1,1,-2
1528282180938957,-1,1,-1,1,-1,0,-1,-2
1528282180938957,1,0,-1,-1,-1,-1,-1,0
1528282180944933,-2,-1,-1,0,0,-2,-1,0
1528282180944933,0,-1,-1,2,-1,-2,0,1
1528282180953278,-2,-1,0,0,-2,-1,0,0
1528282180953278,-2,-1,-2,0,0,-2,1,0
1528282180967240,0,-2,-2,-2,-1,-1,2,0
1528282180967240,2,1,1,-1,-2,1,-1,-1
1528282180976052,1,0,-1,-1,0,1,-1,-1
1528282180976052,0,-2,-2,0,0,2,0,0
1528282180982200,0,1,0,0,0,-1,0,0
1528282180982200,-1,0,-1,0,0,-3,-2,0
1528282180998048,-3,-1,-1,-1,-1,1,-2,-1
1528282180998048,0,0,-1,0,-1,-1,-1,-3
1528282181004974,0,1,-2,-1,0,-1,-3,-2
1528282181004974,-1,-1,-1,1,-1,-1,-1,-1
1528282181013952,-1,1,-1,1,-2,-1,1,1
1528282181013952,0,1,0,0,-2,-1,1,-1
1528282181026916,0,-1,1,-1,-2,1,1,1
1528282181026916,-1,1,0,0,0,-1,0,-1
1528282181035948,0,-2,-1,-2,1,1,0,-1
1528282181035948,2,0,-2,1,0,0,-1,-1
1528282181049985,-2,0,-2,0,-1,-2,-1,-1
1528282181049985,0,-2,-2,-1,0,-3,-1,-3
1528282181058831,0,-1,0,-1,-1,-3,-1,2
1528282181058831,1,-1,0,-2,-1,-1,0,0
1528282181073791,0,-1,0,0,0,1,-1,-1
1528282181073791,-2,0,-1,-2,-3,0,0,0
1528282181074805,1,-1,-1,0,-1,-1,0,-1
1528282181074805,0,-1,-1,0,1,-1,-3,-2
1528282181087003,0,-1,0,0,0,1,0,-2
1528282181087003,-1,-1,-2,2,-1,0,-2,3
1528282181096134,-3,0,1,-2,1,0,-2,0
1528282181096134,-1,-2,1,-1,0,0,-1,0
1528282181110131,1,-1,0,0,1,-1,0,1
1528282181110131,-2,0,-1,-2,-4,-1,0,0
1528282181119139,-1,-1,-2,0,-1,-1,0,-1
1528282181119139,-4,0,-1,0,-2,1,-1,-1
1528282181133039,-2,-1,-1,-2,-2,-3,0,-1
1528282181133039,-1,-2,-1,0,0,-2,0,-1
1528282181135031,0,-1,1,-2,-1,0,-1,-2
1528282181135031,-1,0,-1,-3,0,0,-1,-2
1528282181147134,-1,-1,-2,0,1,1,-1,-1
1528282181147134,0,0,0,-2,0,1,0,-2
1528282181155974,-1,-3,0,0,1,-3,-1,1
1528282181155974,0,-1,-1,0,0,-1,0,3
1528282181169384,-1,-1,-2,-2,0,-1,-1,2
1528282181169384,0,0,-1,-1,0,0,-1,-2
1528282181179492,0,1,-1,0,-1,-1,1,-1
1528282181179492,-3,-1,0,-1,0,-1,2,1
1528282181193613,1,0,-1,1,-2,2,0,-1
1528282181193613,-1,-1,-1,0,-1,0,0,-2
1528282181195449,-2,-1,0,1,-2,1,0,-2
1528282181195449,0,1,-1,-1,-1,1,-2,-3
1528282181215396,-1,-2,0,0,-1,-2,0,-1
1528282181215396,1,-2,-1,-1,-1,-3,-1,-1
1528282181217390,1,0,-1,0,0,-3,-1,1
1528282181217390,0,0,-1,1,-2,-1,1,0
1528282181229358,-2,0,0,-1,-1,0,-2,0
1528282181229358,-2,0,-1,1,0,0,0,1
1528282181238334,1,1,-1,-2,0,-3,0,-1
1528282181238334,0,-1,0,0,-2,-2,-2,-1
1528282181253438,0,0,-2,0,0,-1,-3,-2
1528282181253438,-1,0,1,-1,-1,1,-2,0
1528282181255289,0,-2,-1,-1,0,2,0,0
1528282181255289,-1,-1,-2,-1,-2,-2,-1,-3
1528282181267415,-2,0,-1,-1,-1,1,2,-3
1528282181267415,-2,-1,-2,0,-1,-2,0,0
1528282181276233,0,1,-2,0,1,0,-2,1
1528282181276233,0,-1,0,-2,-2,0,-1,1
1528282181289356,-1,0,0,-1,-3,-1,0,0
1528282181289356,-1,-1,0,-2,0,-1,0,-1
1528282181299172,-2,-2,2,1,-1,0,-1,0
1528282181299172,0,-3,-1,0,-1,0,-2,2
1528282181313292,1,-2,-2,0,0,0,-3,-1
1528282181313292,-1,1,-2,0,0,-1,-1,0
1528282181315128,-1,0,-2,-3,-1,-2,1,-2
1528282181315128,-1,-1,-1,0,0,-3,-1,-2
1528282181327238,1,-2,-1,1,-1,-3,1,-2
1528282181327238,1,-1,0,-1,1,-1,-1,-1
1528282181336073,0,-1,-1,-1,-1,0,0,-1
1528282181336073,0,-2,-2,-3,-1,1,0,0
1528282181350035,0,0,-1,-2,-1,0,-1,0
1528282181350035,0,-1,0,-1,-1,0,1,-1
1528282181359044,-1,1,0,-2,-1,1,-2,-1
1528282181359044,0,-1,1,0,-1,0,-2,0
1528282181372975,1,-1,-2,-1,0,-1,-1,1
1528282181372975,-1,-2,-1,0,0,0,1,-1
1528282181374990,0,0,-3,-1,-1,0,0,-2
1528282181374990,-2,-2,-3,0,-1,-3,1,0
1528282181386937,1,-2,-1,-1,0,-1,0,1
1528282181386937,1,0,-1,0,-2,0,-2,-1
1528282181395926,-1,-2,-2,0,-1,-1,0,-1
1528282181395926,-3,1,-2,0,-1,-1,-1,-2
1528282181409876,-3,0,-3,-2,-1,-2,-2,-3
1528282181409876,-1,0,0,-1,-1,-1,-1,-2
1528282181418904,1,-1,-1,1,-2,-2,-1,0
1528282181418904,0,1,0,0,0,-1,0,1
1528282181433812,-1,-1,-1,1,1,-1,0,0
1528282181433812,-1,0,-1,0,0,1,-1,0
1528282181434810,0,-1,-1,-1,-1,0,1,-1
1528282181434810,2,-1,-1,-2,1,1,0,-2
1528282181446836,0,-1,1,-1,-3,1,-1,1
1528282181446836,-1,-2,0,-1,-2,-1,-4,-2
1528282181455754,-3,-2,0,0,-2,-1,-2,-1
1528282181455754,-2,0,-2,-1,-1,2,3,0
1528282181469771,0,0,0,1,-1,-2,-2,0
1528282181469771,0,0,0,0,-2,-3,-2,0
1528282181478692,-2,-1,-1,-1,-1,-2,-2,-1
1528282181478692,-1,0,0,-1,1,-1,-2,0
1528282181493652,1,0,1,0,-1,-2,-1,-1
1528282181493652,0,0,-2,0,-1,-2,0,-1
1528282181494649,0,1,-2,-2,0,1,-2,-2
1528282181494649,0,-2,0,-1,0,0,0,-3
1528282181506677,-2,-1,-3,-2,1,-1,0,-1
1528282181506677,-1,-1,-2,0,-1,-1,-1,0
1528282181516593,-1,0,0,2,-2,2,1,2
1528282181516593,2,1,1,1,1,0,-1,-1
1528282181529610,-1,-1,0,-2,-2,0,-2,-1
1528282181529610,1,-1,-2,1,2,1,-1,0
1528282181538531,1,-2,0,0,1,-2,0,0
1528282181538531,-2,-2,-3,1,-2,-2,-1,0
1528282181553547,-1,0,0,-1,-1,-1,0,0
1528282181553547,0,0,0,-2,0,0,0,-1
1528282181555486,0,-1,-1,-1,0,1,-4,1
1528282181555486,0,0,1,-1,-2,-2,-1,0
1528282181567454,-1,-1,1,1,-1,2,1,-1
1528282181567454,-2,-1,-2,-3,-2,1,1,-1
1528282181576485,0,2,-1,-2,2,0,0,-1
1528282181576485,-1,-2,-1,-1,1,-3,-3,-1
1528282181589451,-1,-1,-2,0,-1,-1,1,-3
1528282181589451,1,-1,1,0,-1,-2,-1,0
1528282181598372,1,-1,-3,-1,-2,-2,-1,-1
1528282181598372,-2,-1,-1,-1,-1,-1,1,2
1528282181612386,0,-1,-1,-2,-1,0,-1,0
1528282181612386,-3,0,1,-1,-2,-2,-1,-2
1528282181619315,1,-1,0,-2,-1,-2,-3,-4
1528282181619315,0,1,0,-1,-2,-2,-1,0
1528282181627294,0,-1,-2,-2,-2,-1,0,0
1528282181627294,-1,-2,0,-1,1,1,2,-1
1528282181636271,-1,-2,0,1,0,-1,-2,-1
1528282181636271,-2,-1,-1,1,-2,1,-3,-2
1528282181649261,1,-2,0,-2,-1,-1,1,-1
1528282181649261,0,-1,-2,0,-1,0,-2,0
1528282181658326,-2,0,0,-1,-3,1,3,-1
1528282181658326,-2,0,-1,-1,0,0,0,-2
1528282181673372,-3,0,1,1,0,-1,-1,-1
1528282181673372,-1,0,-1,1,0,1,-1,0
1528282181679515,-3,-2,-1,0,0,-1,1,0
1528282181679515,0,-3,0,-1,0,-2,-2,0
1528282181687493,-1,-2,-1,0,0,-1,-2,-1
1528282181687493,-1,2,0,-1,-2,0,-3,0
1528282181696671,0,0,-1,-1,-2,-3,-1,-2
1528282181696671,-2,1,1,0,1,-2,-1,-2
1528282181709466,-2,2,-1,0,0,-2,-1,-1
1528282181709466,-2,-1,-3,-1,0,-1,2,-1
1528282181718443,1,-2,-2,-2,-3,-1,1,1
1528282181718443,2,0,0,-2,-1,1,2,1
1528282181732404,1,-2,0,-1,0,0,0,1
1528282181732404,1,-2,0,0,-2,-2,-1,1
1528282181741380,1,1,1,0,-1,-1,-2,-1
1528282181741380,0,-1,0,-1,-1,0,-1,-2
1528282181747364,1,1,-1,-2,-2,-2,0,-2
1528282181747364,0,0,-1,0,-1,-3,1,-3
1528282181756340,-1,0,-1,-2,0,-1,0,1
1528282181756340,1,-1,0,0,0,-2,-2,0
1528282181769446,-2,-3,-1,-1,-1,-2,-2,-1
1528282181769446,0,-1,0,-2,-1,-1,-2,-2
1528282181778334,-4,-2,1,-1,-1,0,-1,1
1528282181778334,1,-2,-1,-1,-1,1,0,2
1528282181793246,2,-1,0,0,-1,3,0,1
1528282181793246,0,0,-1,0,0,-1,1,0
1528282181799576,-3,-1,-1,0,0,-1,1,-1
1528282181799576,-2,0,-2,-2,0,0,-2,0
1528282181815534,-1,1,0,0,0,-1,-1,-1
1528282181815534,-1,0,0,-1,0,-1,-1,0
1528282181817528,1,-1,0,-1,0,-1,-1,-2
1528282181817528,-2,-1,-1,-2,-1,-2,-2,-2
1528282181829640,1,-2,-2,-1,0,0,-2,0
1528282181829640,0,-2,-1,0,-1,-1,-1,0
1528282181838491,0,-2,-1,0,0,-1,0,0
1528282181838491,0,0,1,0,-1,0,2,-2
1528282181852592,-2,0,0,-1,-1,-1,0,0
1528282181852592,0,-3,-2,0,-2,0,1,-1
1528282181859578,1,0,0,-1,-2,1,-1,-3
1528282181859578,0,0,-1,-1,-1,0,-2,-2
1528282181875576,-2,1,-2,-3,-2,-1,-1,0
1528282181875576,0,1,-1,-1,0,0,-1,0
1528282181877574,-2,-2,-2,0,0,-1,-2,0
1528282181877574,0,-1,-2,0,-1,1,0,-3
1528282181889347,-1,0,-2,0,1,-2,0,-1
1528282181889347,-1,0,-1,-1,-1,-1,1,0
1528282181898385,1,0,-2,-2,1,0,-1,1
1528282181898385,0,-2,-1,0,0,-2,0,2
1528282181913343,-2,-2,-1,-2,-1,0,0,0
1528282181913343,-1,-3,0,-1,-1,0,-1,-2
1528282181919322,-1,0,-2,-1,-3,0,-2,-1
1528282181919322,-2,-1,0,-1,-4,0,-2,-1
1528282181936494,0,0,1,0,-1,0,0,-2
1528282181936494,0,-1,0,1,1,-1,-1,2
1528282181937368,0,-2,1,1,-1,-3,0,-1
1528282181937368,-1,-1,-1,-1,1,-2,0,-1
1528282181949494,-1,-1,0,-1,-1,-2,-2,0
1528282181949494,0,1,-1,0,0,1,0,0
1528282181958531,0,0,-2,-2,-1,0,0,-1
1528282181958531,0,0,-2,0,0,1,-1,-2
1528282181972621,-1,-2,1,-2,-1,-1,0,-1
1528282181972621,-1,-2,0,0,1,-1,1,0
1528282181979463,1,-1,1,0,0,-3,0,0
1528282181979463,-2,-1,-3,-2,0,-1,-1,-1
1528282181996416,0,0,-1,0,0,-1,-1,-2
1528282181996416,-2,1,-1,-1,-2,0,1,0
1528282181997412,-2,-1,0,0,-2,1,1,0
1528282181997412,-1,-1,0,0,-1,-2,-1,1
1528282182009553,1,-2,-2,-1,0,-2,-2,-2
1528282182009553,0,-1,2,-1,-2,-1,-1,-1
1528282182018526,0,-2,-1,1,-1,0,0,-1
1528282182018526,1,0,-2,-2,-2,-1,0,1
1528282182032492,0,0,1,0,-1,0,-2,-1
1528282182032492,1,0,-2,-1,2,-1,-4,-4
1528282182039470,0,0,-1,-3,0,1,-3,-1
1528282182039470,-3,-1,2,1,1,0,0,-1
1528282182055428,-2,-1,-1,-2,-2,-1,0,0
1528282182055428,-1,-2,-2,0,-2,-2,0,0
1528282182057435,0,-1,0,-1,-2,-2,1,-1
1528282182057435,0,0,0,-1,-2,0,0,-1
1528282182069393,-2,1,-3,-1,-2,0,1,1
1528282182069393,-2,-1,-2,-3,-2,0,-2,-1
1528282182078366,-2,-1,-2,-2,-2,0,0,-1
1528282182078366,-2,-2,-1,-1,0,-1,-1,-2
1528282182092602,-1,-2,0,0,-1,1,-1,-1
1528282182092602,1,-1,-2,1,1,0,-3,0
1528282182100192,0,-3,1,0,1,-1,-2,0
1528282182100192,-1,-1,0,-1,-2,-3,0,0
1528282182116292,0,-2,-2,-1,1,0,0,-1
1528282182116292,0,-3,-2,-1,-2,-3,0,-1
1528282182117289,0,0,-2,-1,0,-1,0,0
1528282182117289,-1,-1,-1,0,-2,1,0,1
1528282182129120,0,-1,-1,-1,-2,-2,-1,1
1528282182129120,0,-1,-1,-1,-1,-1,0,0
1528282182138093,-1,1,0,0,0,-1,-1,-1
1528282182138093,-1,0,0,-1,0,0,-2,-1
1528282182153320,-2,-1,-1,0,-1,-1,-2,-1
1528282182153320,-1,0,0,-1,-2,1,-1,-1
1528282182159516,-1,0,-1,-2,0,0,1,0
1528282182159516,0,-1,1,1,0,-2,0,-1
1528282182176486,-1,-1,-2,1,0,-1,1,-3
1528282182176486,-1,1,-1,0,0,-3,-1,-1
1528282182177423,-1,1,-1,0,-2,-1,-1,-1
1528282182177423,1,0,0,0,0,-1,-2,0
1528282182189893,-2,-1,-1,-2,0,-1,-2,0
1528282182189893,0,-2,-1,-1,-1,0,1,0
1528282182198875,0,-2,-3,1,-1,0,0,0
1528282182198875,-1,-1,-1,-2,1,-1,-1,0
1528282182212834,-2,0,-1,0,-1,-1,-1,0
1528282182212834,-3,-1,0,0,1,-1,0,0
1528282182219977,-2,0,0,-1,-1,-2,-4,-1
1528282182219977,-1,0,0,-2,-2,0,0,2
1528282182235937,1,0,2,0,-1,-1,1,0
1528282182235937,0,-1,0,-2,-1,1,-1,0
1528282182237929,1,-2,-1,-1,0,-2,0,-2
1528282182237929,0,-2,-1,0,0,-1,-1,-1
1528282182249916,1,1,0,1,-2,1,0,1
1528282182249916,-1,-1,0,0,-2,0,-1,-1
1528282182258908,-1,-1,1,2,-1,1,-1,0
1528282182258908,-1,0,-2,-1,-1,-2,-2,-1
1528282182272960,-2,-1,-1,0,0,-2,-1,-2
1528282182272960,0,0,-1,-1,0,-2,-1,0
1528282182279820,-1,-2,-1,0,0,-1,1,0
1528282182279820,-1,1,-1,0,0,-1,2,-3
1528282182295779,1,0,0,0,0,-1,4,0
1528282182295779,-2,-1,-1,-1,-1,-1,0,0
1528282182297769,-2,2,0,-2,-1,-2,-2,0
1528282182297769,1,-2,-1,-1,-2,1,-4,0
1528282182309877,-1,0,0,-1,-2,0,-3,-2
1528282182309877,-2,1,-3,0,-2,-1,-1,-2
1528282182318713,0,0,-1,-1,0,0,-1,1
1528282182318713,0,0,-1,-1,-2,-1,1,-2
1528282182332837,0,-1,-1,-1,0,1,-3,0
1528282182332837,0,0,1,0,0,1,-1,0
1528282182339850,-1,-2,0,-1,0,-3,1,1
1528282182339850,-2,-2,-2,-1,0,-3,-1,0
1528282182356001,-2,-1,-2,-1,1,-3,1,0
1528282182356001,-1,-3,0,-2,2,-2,-1,0
1528282182358122,0,1,0,-1,0,1,-2,0
1528282182358122,-1,-3,1,0,-2,2,-1,2
1528282182369805,-1,-1,1,1,-2,1,-1,0
1528282182369805,1,-1,0,-2,0,-2,-1,-3
1528282182378644,-1,0,-2,0,1,0,1,-2
1528282182378644,0,0,-1,-1,1,-1,-1,-3
1528282182392609,-1,-2,-2,0,-3,-1,-2,-2
1528282182392609,-1,-2,-1,1,-2,-1,0,-1
1528282182399728,-1,-2,-1,-1,0,0,-1,-1
1528282182399728,-1,-1,-2,0,0,-2,0,0
1528282182415688,0,-1,-2,-2,1,-3,0,3
1528282182415688,-1,0,0,-1,-1,-1,-2,1
1528282182417540,0,0,-1,-2,-1,0,-2,-1
1528282182417540,-2,0,-2,0,-1,2,0,0
1528282182429648,1,-2,0,0,0,0,-1,-1
1528282182429648,2,-2,-2,-1,0,-1,1,0
1528282182438489,3,0,-1,0,-3,-3,1,-1
1528282182438489,0,0,0,-2,1,-2,-2,-1
1528282182452573,-1,0,-3,-1,0,2,0,0
1528282182452573,-3,-1,0,-1,-1,1,0,1
1528282182459431,-3,-1,1,0,-2,0,-1,-2
1528282182459431,1,-1,0,-1,-2,-2,0,-2
