timestamp,emg1,emg2,emg3,emg4,emg5,emg6,emg7,emg8
1528279439344764,0,0,-2,-1,-1,0,-1,-1
1528279439344764,-2,-1,0,-2,-2,-1,0,-1
1528279439344764,-1,-1,-1,-1,-1,-1,0,0
1528279439344764,-1,-1,-3,0,-2,2,1,0
1528279439345760,-2,-3,-2,-2,-3,5,-1,-1
1528279439345760,0,-1,-1,-2,0,-1,-2,0
1528279439346757,0,-1,-1,0,-1,0,-1,-1
1528279439346757,-2,-1,0,0,0,-1,-1,0
1528279439357753,-1,1,-1,-1,0,-3,-1,0
1528279439357753,0,-1,0,-1,0,-1,-1,0
1528279439367702,-1,-1,-1,-3,-2,-1,0,-1
1528279439367702,0,-1,0,-3,-4,-1,-3,-2
1528279439372688,1,-1,1,0,0,-2,-1,-1
1528279439372688,-1,-1,0,0,1,-1,-1,0
1528279439387650,1,0,-1,0,-1,-1,0,-2
1528279439387650,-2,2,0,1,3,-2,-3,1
1528279439398618,0,-1,-1,0,-5,-4,-1,0
1528279439398618,-3,0,-3,-1,-2,0,-1,-1
1528279439410587,0,0,2,1,-1,0,-1,-1
1528279439410587,2,0,1,0,0,0,0,0
1528279439418565,0,0,0,-1,-1,0,1,-2
1528279439418565,0,0,-1,-2,-1,0,-1,1
1528279439432529,-2,-1,-2,0,1,-2,-1,-2
1528279439432529,-1,-3,-1,-1,0,-1,-1,0
1528279439473420,-2,-2,-1,-1,-3,0,0,-1
1528279439473420,1,2,0,-2,-2,-2,0,-1
1528279439473420,-1,-1,-2,0,1,1,0,-1
1528279439473420,1,0,-1,0,-2,-2,-4,0
1528279439474435,0,-1,1,0,0,-2,-2,-1
1528279439474435,-1,-1,-1,-1,-1,1,-2,-1
1528279439477408,-1,-3,-1,-2,-4,1,-2,0
1528279439477408,1,-1,0,0,0,0,1,0
1528279439484390,1,0,-1,0,2,-3,-1,-2
1528279439484390,-1,-1,0,0,-1,-1,-1,0
1528279439492369,-2,0,-1,-1,-1,-1,0,-1
1528279439492369,-2,-1,-1,-2,-3,-2,-1,-1
1528279439499388,0,-1,-1,0,3,2,1,1
1528279439499388,-1,-1,0,1,-2,-1,0,-1
1528279439515306,0,0,1,0,0,-1,0,0
1528279439515306,-1,1,-1,0,-1,2,1,0
1528279439522312,-1,0,-2,-1,-2,3,0,0
1528279439522312,-1,0,-1,-1,1,-1,-2,-1
1528279439546225,-2,0,0,0,1,-1,-3,-2
1528279439546225,-1,0,1,-2,-3,-1,0,-2
1528279439547221,-1,0,0,-1,-2,-1,-1,-1
1528279439547221,1,1,-1,2,1,-3,1,-1
1528279439559198,0,-1,-2,-3,-1,-2,-1,0
1528279439559198,0,-2,-1,0,-1,1,-1,-2
1528279439568170,0,1,-1,-1,0,-2,-1,-1
1528279439568170,-1,-1,0,-1,-1,1,0,0
1528279439583127,-1,0,-1,0,-3,0,1,0
1528279439583127,-2,-1,-1,-1,1,-3,-1,0
1528279439585129,1,-2,0,1,-1,-1,-1,0
1528279439585129,-1,-2,-3,-1,-1,-1,-1,-1
1528279439606064,1,0,0,-1,-1,1,-1,-1
1528279439606064,-1,-1,-1,-1,2,1,0,-1
1528279439608070,0,-1,-1,-1,-1,-1,0,-2
1528279439608070,-1,0,-2,-2,1,1,1,-2
1528279439620026,0,-1,-1,-1,0,-3,-1,0
1528279439620026,0,-1,-2,-1,-1,1,0,-1
1528279439629030,-2,0,0,0,1,-1,-2,-2
1528279439629030,0,-1,0,-1,1,0,-1,0
1528279439642966,0,0,-2,0,2,-1,-3,0
1528279439642966,0,0,1,0,0,-2,-2,0
1528279439644960,0,-2,-2,0,0,2,2,-2
1528279439644960,0,-1,0,0,1,2,0,0
1528279439665959,0,-1,0,1,-2,-1,-1,-1
1528279439665959,1,0,0,-1,0,-2,-2,-2
1528279439667953,0,0,0,-2,-4,0,-2,0
1528279439667953,-2,-1,-1,-2,-3,1,0,2
1528279439679867,0,0,-1,-2,-1,1,1,-1
1528279439679867,-1,0,0,1,2,-2,-1,0
1528279439688843,-1,-1,0,-3,1,-1,-1,0
1528279439688843,0,-1,0,-2,-1,-1,-3,-1
1528279439703861,-1,-1,-1,1,0,-1,-1,-1
1528279439703861,0,-1,-1,-1,-1,-1,-1,-1
1528279439704802,-1,0,0,1,1,-2,1,-2
1528279439704802,-1,-1,-1,2,-1,-4,-1,0
1528279439725769,1,-1,0,0,1,0,0,-1
1528279439725769,-1,1,1,1,2,-1,-2,-1
1528279439727738,-1,0,-2,0,-2,-1,-1,0
1528279439727738,-2,-1,-1,0,0,-2,0,-1
1528279439748711,0,-1,1,0,1,-1,-2,-1
1528279439748711,-1,-2,0,0,0,0,0,-1
1528279439749735,-1,1,1,0,-2,-1,-1,0
1528279439749735,-1,1,1,-1,0,0,-1,0
1528279439763668,0,0,0,-2,-1,0,-2,0
1528279439763668,-1,0,0,-1,-1,0,-1,-1
1528279439764640,0,0,0,2,-2,-1,-3,-2
1528279439764640,1,0,-1,-1,-1,-1,-1,-2
1528279439785622,-2,-1,0,1,1,-2,-3,0
1528279439785622,-1,1,-2,-1,-1,-1,-1,-1
1528279439785622,0,-2,1,0,0,0,-1,1
1528279439785622,1,-1,0,-1,-1,-2,0,-1
1528279439807525,0,0,1,0,0,-1,0,-1
1528279439807525,0,-2,0,-2,-3,0,0,0
1528279439808523,-1,-1,-1,-2,0,0,0,-1
1528279439808523,-1,0,-2,-1,-1,-2,-1,-2
1528279439822486,-2,0,-1,-1,0,-2,1,0
1528279439822486,-1,-1,-1,-1,0,0,-1,0
1528279439823484,-1,-1,-2,-1,0,-1,-1,0
1528279439823484,1,0,0,-2,0,-1,-1,0
1528279439845424,-1,0,-1,-1,-1,0,-1,-1
1528279439845424,-1,-1,0,1,-2,-2,-3,0
1528279439846421,-3,-1,-1,-2,-1,0,0,-1
1528279439846421,0,-2,-1,0,-1,0,0,-2
1528279439867366,-1,-1,-1,-2,-1,-2,-1,-1
1528279439867366,0,-1,0,0,1,-2,-2,0
1528279439868363,0,0,1,-1,1,-1,-2,1
1528279439868363,-2,0,0,1,1,1,-1,0
1528279439883345,0,0,1,-1,-1,-2,0,-1
1528279439883345,-1,-1,-2,-3,0,2,1,-2
1528279439883345,0,-3,-1,-1,0,0,0,-1
1528279439883345,0,0,-1,-1,-3,-1,-1,0
1528279439905275,1,0,1,0,0,0,0,-2
1528279439905275,-2,1,-1,1,-1,-1,-1,-1
1528279439906261,1,-1,0,2,0,-2,0,-1
1528279439906261,-1,-1,-1,0,0,-2,-1,-1
1528279439928203,-1,-1,-3,-2,-3,0,-2,0
1528279439928203,2,0,-1,-1,-2,0,-2,-1
1528279439928203,-1,1,0,1,0,0,-1,0
1528279439928203,-1,-2,-1,1,0,0,-1,-1
1528279439944162,-2,1,-1,-1,0,0,-1,0
1528279439944162,1,-1,0,0,2,-1,-2,-1
1528279439945160,1,1,1,-3,-1,1,0,-1
1528279439945160,0,-1,0,-2,-1,0,0,-1
1528279439965105,-1,0,0,-1,-1,0,-1,-2
1528279439965105,-1,-1,-1,-1,0,0,-1,-2
1528279439966112,-1,-1,0,-2,-1,-1,0,-1
1528279439966112,-2,-1,2,-1,-1,-1,-1,-1
1528279439988043,0,-1,0,-1,0,-1,1,0
1528279439988043,-2,1,1,1,0,-2,-1,-2
1528279439989042,-2,0,-3,-1,0,-1,-1,0
1528279439989042,0,-1,-1,0,-1,0,-1,0
1528279440003003,1,-1,-1,-1,-2,-1,-2,-1
1528279440003003,0,-1,0,0,0,-1,0,-1
1528279440003999,0,0,0,0,0,-1,-1,-1
1528279440003999,-1,0,-1,0,0,-2,-2,-2
1528279440024981,-1,-1,-1,0,0,0,0,0
1528279440024981,-2,0,0,-2,0,-1,1,0
1528279440025941,-1,1,0,-1,-1,1,-2,-2
1528279440025941,2,0,-1,1,-1,-3,-3,0
1528279440047919,-1,-1,0,0,0,-2,0,-1
1528279440047919,1,-1,-1,1,0,-3,-2,-1
1528279440048881,1,-1,-2,0,-1,-1,0,1
1528279440048881,0,-2,-1,-1,-2,1,-1,1
1528279440062876,-1,-1,-1,0,0,1,0,0
1528279440062876,-1,-1,0,-2,0,0,-1,0
1528279440063840,0,-2,-2,0,0,-1,0,-2
1528279440063840,-1,0,0,-1,3,-1,-1,-2
1528279440085810,0,-3,0,0,1,0,-1,-2
1528279440085810,-1,0,-1,1,0,2,0,1
1528279440085810,-2,-2,-1,0,-1,2,1,-1
1528279440085810,0,0,-1,-1,-2,0,1,-1
1528279440109719,1,0,1,-1,-2,-2,-1,-1
1528279440109719,-1,-1,0,-1,-1,-2,-1,1
1528279440109719,0,-1,-1,-2,0,-1,-2,-1
1528279440109719,-3,0,-2,0,0,1,0,0
1528279440122727,-1,2,-1,-1,1,0,0,-2
1528279440122727,-1,0,-1,0,-1,0,0,-2
1528279440123681,0,1,1,-1,-1,-2,-2,-1
1528279440123681,0,0,-2,-1,-1,0,0,-1
1528279440145676,-1,0,0,0,1,-3,-2,0
1528279440145676,-3,-1,-3,-2,-2,1,-1,-1
1528279440145676,-2,0,-2,-1,0,-1,0,-2
1528279440145676,-1,-1,0,0,-1,-2,-1,0
1528279440167599,-1,0,0,-2,-1,-1,0,-1
1528279440167599,0,0,0,-2,0,-1,0,0
1528279440168561,1,0,0,-1,1,-1,-1,-1
1528279440168561,0,-1,-1,0,0,0,0,-1
1528279440182575,-2,-1,-2,-1,-2,-2,-2,0
1528279440182575,1,1,-1,1,-1,-1,-2,-3
1528279440183521,-1,-2,-1,1,-2,0,-1,-1
1528279440183521,-1,-1,0,-1,0,0,-1,0
1528279440205480,-1,-1,0,-1,-2,1,1,0
1528279440205480,-1,0,-1,-3,-1,-1,0,-1
1528279440206486,-2,1,0,1,-1,-1,-1,-2
1528279440206486,0,0,-1,-1,-1,-1,0,-1
1528279440227457,-1,0,-3,0,-1,0,-2,0
1528279440227457,0,-1,-1,0,0,0,0,0
1528279440228412,0,-1,2,0,-1,0,-1,-2
1528279440228412,-1,-1,1,0,-1,0,-1,0
1528279440242419,0,-2,0,-1,0,-1,0,0
1528279440242419,-1,-2,0,2,-1,-3,2,0
1528279440243412,0,1,0,-1,0,-1,-3,-1
1528279440243412,-2,-1,-1,0,-1,-1,-1,-3
1528279440265301,-1,0,-2,-1,-2,-2,-1,-1
1528279440265301,-2,0,-1,-3,-1,0,0,0
1528279440266299,0,-1,0,-1,-2,-2,0,1
1528279440266299,0,1,1,-1,-1,0,0,0
1528279440288240,1,-2,0,0,0,1,0,-1
1528279440288240,-1,-2,-1,-1,-2,-1,0,0
1528279440288240,-1,1,-1,-1,-1,-2,0,1
1528279440288240,1,-1,-1,-1,-1,-1,-2,0
1528279440303644,-2,-1,0,0,0,0,-2,-1
1528279440303644,1,-1,0,-1,-1,-1,-2,-1
1528279440303644,0,-1,-2,0,0,1,0,-1
1528279440303644,-1,-1,0,-2,1,0,-1,-1
1528279440326545,-1,0,0,0,-1,-1,0,-2
1528279440326545,0,-2,0,2,0,0,-1,0
1528279440327543,0,-1,-2,-1,-1,0,0,-2
1528279440327543,0,-2,-2,-1,0,-1,2,-1
1528279440347754,-2,-2,0,0,0,0,-1,-2
1528279440347754,-2,0,0,-2,0,-1,-1,-1
1528279440348744,-1,-1,0,-1,-1,0,-2,-1
1528279440348744,0,0,-1,0,-1,-1,0,0
1528279440362710,0,-1,0,0,0,-1,0,0
1528279440362710,2,-1,0,-2,0,0,-3,-2
1528279440363704,-1,-3,0,0,0,-1,0,0
1528279440363704,-2,0,0,-1,-1,-1,-2,-1
1528279440385951,-1,0,0,0,1,0,-1,0
1528279440385951,-2,-1,-1,1,1,0,-1,-1
1528279440386644,-2,0,0,-1,1,0,-1,1
1528279440386644,0,0,-1,0,-1,0,0,-1
1528279440408188,1,0,-1,0,0,0,1,-2
1528279440408188,1,0,-1,0,-1,1,1,-2
1528279440408874,-1,0,1,0,0,-1,-1,-2
1528279440408874,-3,-1,-1,-3,-1,-1,-1,0
1528279440423342,0,-2,-1,-2,-2,-2,-1,1
1528279440423342,-2,-1,-1,0,-1,-3,-1,-1
1528279440424299,0,-2,-2,-1,-1,-2,-1,-1
1528279440424299,-1,0,0,-1,-1,1,-1,-1
1528279440444764,0,1,0,0,0,0,-1,-1
1528279440444764,0,0,0,0,-3,-1,0,0
1528279440452720,-1,1,1,-1,-1,-1,-2,0
1528279440452720,0,-1,0,-1,0,1,0,0
1528279440467710,-2,-2,-1,-2,-2,-2,-1,-1
1528279440467710,0,-2,0,-1,0,0,-1,-1
1528279440468669,-1,0,-2,0,-1,-1,0,-1
1528279440468669,0,-1,-2,-1,0,0,-1,0
1528279440490648,1,-3,-2,-1,0,0,-1,-1
1528279440490648,0,-1,0,1,1,-2,-2,-1
1528279440490648,2,-2,-1,0,-1,0,1,-1
1528279440490648,0,-1,2,-1,0,-2,-2,-2
1528279440504573,-1,1,-1,0,0,0,-1,-1
1528279440504573,-1,1,0,-1,-1,0,-2,-1
1528279440512550,-1,-1,-2,0,1,1,-1,-1
1528279440512550,-1,-2,0,-1,0,-1,0,-1
1528279440527512,-1,-1,-1,-2,0,0,-1,0
1528279440527512,-1,-1,-1,-1,0,0,0,0
1528279440528508,-1,1,1,-1,-1,-3,2,-2
1528279440528508,1,-2,-2,0,-1,0,0,-1
1528279440550686,-1,-1,0,1,-2,0,0,-1
1528279440550686,0,-1,-1,-1,-1,-1,1,0
1528279440551448,0,0,-1,-1,-2,0,0,1
1528279440551448,0,0,0,1,0,-1,0,-2
1528279440565477,0,-1,0,0,-1,-1,-1,-1
1528279440565477,-1,-1,0,0,-1,-1,0,-1
1528279440573514,-1,1,-2,-1,0,2,-1,-1
1528279440573514,-2,-1,0,0,-1,-3,0,-1
1528279440587354,-2,0,-1,0,-2,1,-1,1
1528279440587354,0,-1,-3,-2,0,1,-1,-1
1528279440588348,0,-2,-1,-1,0,-2,0,0
1528279440588348,-2,1,-1,-2,0,-2,-1,0
1528279440610708,0,-1,0,-1,-1,-2,0,0
1528279440610708,-3,0,-3,1,0,0,1,0
1528279440611889,-2,-1,1,1,-1,-1,-1,-1
1528279440611889,-2,-3,-1,-1,-1,0,1,-1
1528279440624772,-1,-1,-2,-1,-1,0,1,-1
1528279440624772,-1,0,0,-1,-1,-2,0,-2
1528279440633567,1,-1,0,-1,-1,-2,-1,0
1528279440633567,1,1,-1,1,0,-1,0,-1
1528279440647453,-1,0,0,-1,-1,1,-1,-1
1528279440647453,1,-2,0,0,-1,0,-1,0
1528279440662407,-2,-1,0,-1,-1,0,-1,-1
1528279440662407,0,0,1,0,0,1,0,0
1528279440670524,1,0,-1,-2,0,-3,-1,-2
1528279440670524,-1,0,0,-1,-2,1,-1,-1
1528279440671383,-1,-2,-3,0,-3,-2,-2,-1
1528279440671383,1,0,-3,-1,-1,-1,-2,1
1528279440693646,-1,0,0,1,-3,1,1,0
1528279440693646,0,1,1,-1,-1,-1,0,-1
1528279440694334,1,0,-1,-1,1,-1,2,0
1528279440694334,-1,-1,-1,-1,-1,1,-1,-1
1528279440716530,-1,0,-1,0,1,0,-2,0
1528279440716530,0,1,-1,-1,0,-4,0,0
1528279440717528,-2,-1,-2,-1,0,0,-2,0
1528279440717528,-1,-2,-1,0,0,0,-1,-2
1528279440730237,-1,-1,1,0,-1,-2,0,-1
1528279440730237,0,-2,-1,-1,0,0,0,-2
1528279440731223,0,0,-3,-2,0,-1,-1,-2
1528279440731223,-1,0,0,-3,0,0,0,-1
1528279440754353,-1,-3,-1,0,-2,0,1,-2
1528279440754353,0,-1,-1,-1,-1,0,1,0
1528279440754353,-1,0,0,0,-1,-1,-1,0
1528279440754353,-2,0,-1,-1,-2,0,0,0
1528279440768432,-1,-1,-1,-2,0,1,0,0
1528279440768432,0,-1,1,-1,-1,1,-1,0
1528279440768432,0,-1,0,-2,-2,1,-1,-1
1528279440768432,1,0,-1,-1,0,0,-1,0
1528279440790540,-1,1,-2,-2,0,-1,-1,-1
1528279440790540,-1,-1,0,-1,-1,0,1,0
1528279440791063,-1,-2,0,-1,-2,0,0,-1
1528279440791063,-1,-1,0,-1,0,-2,-1,0
1528279440813869,0,0,-1,-3,-1,0,-2,0
1528279440813869,-2,-1,-2,0,-2,0,-1,1
1528279440814470,-1,0,0,-2,-1,-1,0,0
1528279440814470,1,0,0,1,0,-1,0,0
1528279440828571,0,-1,0,-1,-1,0,0,-3
1528279440828571,-1,-2,0,-1,0,-2,0,-1
1528279440828571,0,1,0,0,-1,-1,-1,0
1528279440828571,-3,-1,-2,0,-1,-1,-2,1
1528279440850778,-1,-1,0,-1,-1,-1,-1,0
1528279440850778,-1,-1,-1,1,-1,0,0,0
1528279440851372,-1,-1,-2,-1,0,0,0,-1
1528279440851372,-1,1,0,-1,-1,1,0,-1
1528279440873717,-1,-1,-1,-2,-1,-2,-1,0
1528279440873717,-2,-2,0,-1,-1,-1,-2,-2
1528279440874311,-1,-1,-1,2,-1,0,-1,-1
1528279440874311,1,-2,-1,-2,-1,-1,-1,0
1528279440888278,0,-1,-2,1,0,0,1,0
1528279440888278,0,1,-1,-1,0,-2,1,1
1528279440888278,0,0,0,-1,0,0,0,0
1528279440888278,-1,-1,0,0,-1,-2,1,0
1528279440910534,-1,-2,0,0,-1,-1,1,-1
1528279440910534,0,-1,-1,0,0,0,0,-2
1528279440911212,0,-1,0,-1,-2,0,1,-1
1528279440911212,-1,-2,-2,0,-1,0,-1,0
1528279440934751,1,-2,-1,-2,1,0,-1,1
1528279440934751,0,0,-2,-2,1,0,-2,-1
1528279440934751,-1,-1,0,-1,0,-2,-1,0
1528279440934751,0,-3,1,-1,-1,-3,0,-2
1528279440948661,0,-2,-1,0,-2,0,-2,-2
1528279440948661,-2,-1,0,-1,-2,1,-1,1
1528279440948661,-1,-1,-1,-1,-1,1,-2,-1
1528279440948661,0,-1,-1,-1,-2,0,1,-2
1528279440970958,0,0,-1,-1,0,1,-1,1
1528279440970958,0,-2,-1,0,0,-1,-1,1
1528279440970958,-1,-1,-1,-1,-1,-2,-2,-1
1528279440970958,-1,1,-1,0,0,-1,0,-1
1528279440993843,-1,-2,0,-1,-2,-2,0,-1
1528279440993843,0,-1,-2,0,-1,-1,-1,-2
1528279440993843,-2,-3,-1,-2,-1,-1,0,0
1528279440993843,-1,-2,-2,0,1,-1,-1,-1
1528279441007828,-1,0,-2,-2,-2,-1,0,-2
1528279441007828,-2,-1,-2,-2,-2,0,0,-1
1528279441008808,-1,-1,0,0,-1,0,0,0
1528279441008808,1,-1,0,-1,-2,0,0,0
1528279441030277,0,-1,-1,0,0,-2,0,-1
1528279441030277,0,-2,-1,-2,-1,0,-1,-1
1528279441031045,0,0,0,-2,0,-2,0,-1
1528279441031045,-1,0,-1,-1,-1,1,0,-2
1528279441054090,0,-1,0,0,-1,-1,0,1
1528279441054090,-1,0,1,-2,-2,1,0,-2
1528279441054090,-2,-1,0,-1,-1,0,0,1
1528279441054090,1,0,1,-2,1,-2,-1,0
1528279441068284,-1,-1,0,-1,0,-1,-2,0
1528279441068284,-1,-1,-1,0,0,-2,0,0
1528279441068935,-1,1,-1,0,-1,1,-1,-2
1528279441068935,-3,-2,2,0,0,-2,-2,-1
1528279441090877,-1,-1,0,-2,0,0,0,1
1528279441090877,-1,-1,-1,0,-2,-1,-1,1
1528279441090877,1,0,-1,-2,-3,-2,0,0
1528279441090877,-1,-1,-1,-1,0,0,-1,1
1528279441114077,-2,0,-1,0,0,-3,0,0
1528279441114077,-1,0,2,-1,-1,-2,0,0
1528279441115065,0,0,-1,0,0,-1,-1,1
1528279441115065,-1,-1,-1,-1,-3,0,-2,-1
1528279441127827,-2,-2,-1,0,-1,0,0,-1
1528279441127827,-1,-1,-1,0,-2,-1,0,-1
1528279441128774,-1,-3,1,-1,-1,-1,-1,-1
1528279441128774,-2,0,-1,0,0,0,1,-1
1528279441151105,-1,0,0,-1,0,0,0,0
1528279441151105,0,1,-1,-1,-1,-1,-1,-1
1528279441151105,-1,-1,-1,0,0,-1,-1,0
1528279441151105,-2,-1,0,-2,0,0,-2,-1
1528279441173658,2,-1,-1,-1,-2,-2,-2,0
1528279441173658,0,0,0,-1,-1,0,0,-1
1528279441174652,-2,0,-3,0,-1,0,0,0
1528279441174652,0,0,1,1,-2,-3,0,-1
1528279441195596,-1,0,-2,-1,-1,0,0,-2
1528279441195596,-1,-1,-2,1,1,-1,0,-1
1528279441197591,1,-2,-1,0,-1,-2,0,0
1528279441197591,0,-1,-1,-3,-2,0,0,1
1528279441209559,-1,0,1,1,-1,0,0,1
1528279441209559,-2,0,-2,-1,-1,-2,-1,1
1528279441218497,1,0,0,-1,0,1,-1,-1
1528279441218497,-1,-1,-1,-1,0,1,1,-1
1528279441233605,0,0,0,-1,-1,-1,1,-2
1528279441233605,1,0,-1,0,0,-1,-1,-1
1528279441235601,1,0,-1,-1,-1,-1,-1,-1
1528279441235601,0,-1,-2,0,-1,0,-2,0
1528279441256558,-1,0,0,-2,2,-2,-1,-1
1528279441256558,-1,0,0,-1,1,1,-1,0
1528279441257557,0,-1,-1,-1,1,0,-1,0
1528279441257557,-1,-1,1,0,0,-1,-1,1
1528279441269510,0,-1,-2,-1,-2,0,0,0
1528279441269510,0,-1,-1,0,-1,-1,-1,-1
1528279441278548,-2,-1,-2,-1,-2,-1,0,-1
1528279441278548,0,0,0,-1,-1,-2,-2,-1
1528279441293445,-1,1,-1,0,-1,-1,0,1
1528279441293445,-1,-2,0,-2,0,-1,-1,1
1528279441295437,0,0,-3,1,-2,1,-1,-1
1528279441295437,-1,0,-3,0,-1,0,1,-1
1528279441316381,0,0,-2,1,-1,-1,-2,-1
1528279441316381,1,-1,-1,-2,-1,-1,-1,0
1528279441317382,-1,-1,2,1,0,-2,-1,-1
1528279441317382,-1,0,-2,-2,0,-2,-1,0
1528279441329347,-1,-1,-1,-1,-1,0,0,0
1528279441329347,-1,0,0,0,-1,1,1,-1
1528279441338324,0,1,0,-2,-2,0,-1,-1
1528279441338324,-1,-1,-1,0,-2,-1,-2,-1
1528279441353283,-2,1,-1,-1,1,-1,0,-1
1528279441353283,-1,0,-1,0,0,-2,0,0
1528279441355278,-2,1,-2,0,1,-1,-1,-3
1528279441355278,-1,-1,0,-1,0,0,2,0
1528279441376222,0,0,-1,-1,0,-1,-1,-2
1528279441376222,0,-1,-1,-1,-1,-1,-2,-1
1528279441378216,1,-1,-1,1,0,-2,-2,0
1528279441378216,0,0,-2,0,-2,-1,-1,0
1528279441389187,-1,-3,0,0,-1,1,0,0
1528279441389187,0,0,-2,0,-1,-1,0,-1
1528279441398163,-1,-1,-2,-2,-1,-1,-1,1
1528279441398163,2,-1,-1,-1,0,-1,1,0
1528279441413123,-2,-2,-1,-1,-2,1,-1,0
1528279441413123,-2,-1,0,0,0,-1,-2,0
1528279441415120,-1,-1,-1,0,-1,0,-1,0
1528279441415120,0,-1,0,-1,-1,-1,0,-1
1528279441436061,0,0,0,-1,-2,0,-2,0
1528279441436061,-1,0,0,-1,0,0,-2,1
1528279441438056,-1,0,1,0,-1,0,-2,-1
1528279441438056,2,-2,-1,0,2,-2,0,-1
1528279441450057,0,0,-1,0,0,-1,0,0
1528279441450057,-1,-1,-1,-1,0,-2,0,-1
1528279441451021,-1,0,-1,-2,-1,-2,0,0
1528279441451021,-2,-1,-3,-1,-2,0,-2,0
1528279441472965,1,-2,-1,-1,-1,-1,-2,0
1528279441472965,0,0,0,0,-1,0,0,-2
1528279441474963,-2,-1,0,1,0,-2,-1,-1
1528279441474963,-2,0,0,-2,-1,0,-1,-1
1528279441486926,-1,0,-1,0,-2,-1,-1,0
1528279441486926,1,-1,-1,1,0,-1,-1,-1
1528279441495902,1,-2,-1,0,1,-1,1,-1
1528279441495902,-1,0,-1,0,0,1,1,-1
1528279441509864,0,-2,-1,1,-3,-1,-1,-1
1528279441509864,0,-1,-2,-2,0,0,1,0
1528279441518840,-1,0,-1,1,-2,0,0,0
1528279441518840,0,0,0,-3,0,-2,-2,-1
1528279441533800,0,-1,-1,-2,0,0,0,-1
1528279441533800,0,1,0,-1,-1,-1,-1,0
1528279441534797,-1,0,-2,-2,-1,-1,0,-1
1528279441534797,-2,-1,-1,-1,-1,0,0,2
1528279441546765,-2,0,-1,-1,0,-1,-1,-2
1528279441546765,-3,-2,-1,-1,-1,-2,0,-1
1528279441555742,0,0,-1,-1,1,-2,0,-1
1528279441555742,0,0,-1,1,0,-1,-1,-1
1528279441569704,-1,0,-1,-1,-2,0,0,0
1528279441569704,0,0,0,-1,-2,-1,0,0
1528279441578680,-1,-2,-1,-1,-1,-2,0,1
1528279441578680,-3,0,-1,1,0,-1,-2,-1
1528279441593673,1,-1,-2,-2,0,0,0,1
1528279441593673,-2,-1,-1,-1,0,1,-2,0
1528279441594673,-1,-2,0,-1,0,0,-1,0
1528279441594673,-1,-1,0,0,0,-1,-1,-1
1528279441615615,0,0,0,0,-1,0,0,-1
1528279441615615,-1,-1,0,0,-2,0,-1,-2
1528279441617583,0,-2,-2,1,0,0,0,0
1528279441617583,-1,-2,-1,-1,-2,0,-1,0
1528279441617583,-1,-2,-1,-1,-2,0,-1,0
1528279441617583,-1,-2,-1,-1,-2,0,-1,0
1528279441617583,-1,-2,-1,-1,-2,0,-1,0
1528279441617583,-1,-2,-1,-1,-2,0,-1,0
1528279441617583,-1,-2,-1,-1,-2,0,-1,0
1528279441617583,-1,-2,-1,-1,-2,0,-1,0
1528279441617583,-1,-2,-1,-1,-2,0,-1,0
1528279441617583,-1,-2,-1,-1,-2,0,-1,0
1528279441617583,-1,-2,-1,-1,-2,0,-1,0
1528279441617583,-1,-2,-1,-1,-2,0,-1,0
1528279441617583,-1,-2,-1,-1,-2,0,-1,0
1528279441617583,-1,-2,-1,-1,-2,0,-1,0
1528279441617583,-1,-2,-1,-1,-2,0,-1,0
1528279441617583,-1,-2,-1,-1,-2,0,-1,0
1528279441617583,-1,-2,-1,-1,-2,0,-1,0
1528279441617583,-1,-2,-1,-1,-2,0,-1,0
1528279441617583,-1,-2,-1,-1,-2,0,-1,0
1528279441617583,-1,-2,-1,-1,-2,0,-1,0
1528279441617583,-1,-2,-1,-1,-2,0,-1,0
1528279441617583,-1,-2,-1,-1,-2,0,-1,0
1528279441617583,-1,-2,-1,-1,-2,0,-1,0
1528279441617583,-1,-2,-1,-1,-2,0,-1,0
1528279441617583,-1,-2,-1,-1,-2,0,-1,0
1528279441617583,-1,-2,-1,-1,-2,0,-1,0
1528279441617583,-1,-2,-1,-1,-2,0,-1,0
1528279441617583,-1,-2,-1,-1,-2,0,-1,0
1528279441617583,-1,-2,-1,-1,-2,0,-1,0
1528279441617583,-1,-2,-1,-1,-2,0,-1,0
1528279441617583,-1,-2,-1,-1,-2,0,-1,0
1528279441617583,-1,-2,-1,-1,-2,0,-1,0
1528279441617583,-1,-2,-1,-1,-2,0,-1,0
1528279441617583,-1,-2,-1,-1,-2,0,-1,0
