timestamp,emg1,emg2,emg3,emg4,emg5,emg6,emg7,emg8
1528877658530136,-4,-4,-4,-6,3,2,-1,-4
1528877658530136,12,-3,19,-3,-4,0,2,2
1528877658537117,-17,-4,-21,17,12,1,-2,-3
1528877658537117,-5,-2,15,-4,-4,-1,-1,0
1528877658552077,-5,-2,-7,5,-4,-3,0,-5
1528877658552077,-5,-7,3,-9,-6,-3,0,0
1528877658561068,9,6,9,-13,-5,1,-4,-1
1528877658561068,2,3,8,24,6,1,3,0
1528877658576025,-6,-2,-3,-6,2,-1,-6,0
1528877658576025,2,-1,0,7,6,2,5,-1
1528877658576025,9,-1,0,-7,-9,-5,-3,2
1528877658576025,-4,-1,-5,-6,-2,1,-2,-1
1528877658597954,-6,-7,-2,-1,-3,-2,2,-2
1528877658597954,-7,-2,-6,-1,-2,-2,-7,-11
1528877658598964,-2,1,-2,-4,1,-1,0,-2
1528877658598964,2,-1,5,4,2,-3,-1,3
1528877658613912,1,1,1,-4,-1,-2,0,1
1528877658613912,-1,-4,4,-7,-5,-2,-1,2
1528877658620893,-1,0,-10,-8,-4,-1,-2,-5
1528877658620893,2,1,7,8,1,3,5,2
1528877658635853,-4,1,1,18,9,0,-9,-12
1528877658635853,-4,-7,-10,-8,-1,1,4,-1
1528877658636850,-8,2,-1,-1,1,0,-6,-4
1528877658636850,24,-3,8,-6,0,-4,1,2
1528877658657795,-2,1,5,-8,-5,-1,18,7
1528877658657795,-4,-1,-4,7,1,-3,-11,-6
1528877658658792,6,2,4,-5,-5,-2,-16,1
1528877658658792,-9,-1,-7,-4,-4,-4,-2,-5
1528877658672755,-1,1,-4,-3,0,2,0,-2
1528877658672755,7,-1,0,-3,1,7,18,16
1528877658680734,-6,-5,1,0,-3,-4,1,-5
1528877658680734,1,1,-1,1,2,-1,-11,-9
1528877658695694,5,1,-1,-4,-2,-3,3,0
1528877658695694,-4,-3,-10,-2,-5,-2,-5,2
1528877658696691,3,-1,1,3,1,1,5,5
1528877658696691,-8,-2,-3,-7,0,0,0,-1
1528877658726615,0,-4,-8,-7,-5,-5,-7,-2
1528877658726615,-1,-1,-2,10,-4,-2,-3,-3
1528877658726615,0,1,2,-4,9,2,4,-1
1528877658726615,-6,2,5,10,-1,-3,0,-5
1528877658732596,0,0,9,-10,-6,-2,-1,4
1528877658732596,1,-6,-48,0,9,1,-4,-1
1528877658740575,16,-5,5,-5,-10,-2,7,4
1528877658740575,-22,1,4,0,4,3,5,2
1528877658755571,-11,-1,10,19,-1,-5,-30,-10
1528877658755571,-4,-3,-29,-28,-6,-4,-4,-9
1528877658756570,0,1,1,3,-1,-1,12,-9
1528877658756570,9,0,-15,-6,2,2,-2,21
1528877658778475,-2,-6,-12,-2,-3,-2,-2,-5
1528877658778475,-3,6,32,6,-3,-4,-9,-11
1528877658778475,-5,-10,-25,-2,4,-1,-3,-1
1528877658778475,0,1,3,-6,-5,-4,9,-4
1528877658792436,-10,0,0,-2,3,10,0,-17
1528877658792436,6,0,5,-3,-8,-8,-5,12
1528877658800442,-2,3,4,2,-1,1,3,-6
1528877658800442,-7,-3,-6,-4,0,0,-6,-6
1528877658815375,11,2,-8,0,5,0,8,9
1528877658815375,-1,3,16,9,2,-1,-3,-4
1528877658816371,0,11,2,1,0,2,-2,0
1528877658816371,-12,-19,-1,-5,-7,-6,-7,-9
1528877658838372,-5,5,24,-5,-4,-2,1,-4
1528877658838372,1,1,2,20,9,-1,3,0
1528877658839313,-4,-1,24,-1,-7,-3,-1,9
1528877658839313,7,11,6,19,18,4,-10,-4
1528877658861251,5,-4,-4,-4,-6,1,5,21
1528877658861251,0,1,36,1,-5,-2,3,-2
1528877658862249,-7,-2,-14,-5,-4,-6,-10,4
1528877658862249,7,10,7,-7,-6,-5,-6,-6
1528877658875215,-7,16,-5,10,4,1,3,-13
1528877658875215,0,-28,-34,-12,-1,-2,-3,-2
1528877658876212,3,-13,-6,0,-2,0,1,6
1528877658876212,0,3,1,-11,-11,-2,7,7
1528877658898153,-2,-5,-5,5,8,0,-8,-1
1528877658898153,2,9,-3,-3,-5,0,3,0
1528877658899152,0,-2,-8,-6,-1,-4,3,-6
1528877658899152,-4,-7,9,8,1,-1,2,-10
1528877658921091,-2,3,-11,-4,-1,-1,-8,10
1528877658921091,7,-9,3,-1,3,3,-4,34
1528877658922088,9,23,28,10,1,2,-2,-15
1528877658922088,1,4,-28,-5,-8,-4,-6,-8
1528877658935108,-1,-17,-8,-6,-5,1,28,-11
1528877658935108,-2,16,0,-5,-2,-6,-47,2
1528877658943045,-9,-13,26,7,2,-1,-6,-2
1528877658943045,-2,-12,-75,-4,3,1,4,-1
1528877658958003,7,-9,-7,-10,-8,-2,2,5
1528877658958003,-10,1,11,2,-1,2,7,-1
1528877658959030,3,10,13,2,1,-2,-3,-3
1528877658959030,-10,19,42,3,-2,-2,-1,-13
1528877658980932,-13,-25,-44,-19,-9,-7,-5,-13
1528877658980932,15,-22,-7,-2,2,2,28,2
1528877658981929,-14,-9,-11,-5,-4,-10,-33,17
1528877658981929,3,3,12,-2,-4,1,-9,-9
1528877658995894,1,13,17,4,0,-2,-4,5
1528877658995894,5,9,3,-8,-11,-11,-25,-12
1528877658996888,12,-18,-42,-5,0,10,47,-14
1528877658996888,23,62,38,10,9,0,1,13
1528877659017872,-16,-70,2,-1,-4,-1,-6,3
1528877659017872,-9,9,24,2,-1,-3,4,-30
1528877659018843,-20,-13,-35,-10,-6,-4,0,5
1528877659018843,1,-1,-2,1,3,4,7,7
1528877659040783,13,12,7,-2,-2,-6,-13,-5
1528877659040783,-10,14,8,7,4,2,7,-15
1528877659041770,2,-2,27,1,-1,0,-4,6
1528877659041770,-8,4,-25,-4,-1,-1,10,-10
1528877659055732,-1,-31,9,8,6,2,3,7
1528877659055732,3,5,14,-2,-2,-1,-12,-2
1528877659056730,4,8,-40,-5,2,2,-2,1
1528877659056730,-2,11,23,3,-3,-4,-8,4
1528877659077712,-1,-32,21,28,13,3,5,-7
1528877659077712,-12,-19,-40,-15,-13,-6,-8,14
1528877659078670,12,31,45,-6,-5,3,12,-2
1528877659078670,-7,-26,16,15,1,-3,-5,-3
1528877659101610,-3,-3,-83,-34,-2,0,-7,-4
1528877659101610,-2,-4,19,12,4,4,14,-8
1528877659101610,-2,0,-1,-11,-8,-2,16,7
1528877659101610,3,-20,11,-1,-5,-10,-47,25
1528877659115572,6,94,65,8,-2,-2,2,-13
1528877659115572,-1,-67,-8,-19,-9,-1,7,9
1528877659116570,-15,-46,-30,6,-5,-3,-6,-15
1528877659116570,4,-16,15,5,6,0,4,-2
1528877659138510,-8,11,-43,-2,1,-1,-3,-4
1528877659138510,-7,40,71,-3,-2,0,2,-18
1528877659138510,21,11,31,18,-9,-5,-2,4
1528877659138510,-13,-32,-49,-45,3,3,6,-11
1528877659161449,4,-18,10,56,20,7,1,1
1528877659161449,6,33,-7,-19,3,1,2,11
1528877659162446,-1,47,73,2,-3,0,-7,-7
1528877659162446,11,-40,-29,4,-2,0,4,9
1528877659175413,-34,5,-48,-38,-24,-14,-13,-30
1528877659175413,2,3,7,13,8,4,10,24
1528877659176410,-10,-4,-10,4,6,-2,-8,-13
1528877659176410,6,-33,13,-1,-8,-2,-5,16
1528877659206357,29,17,34,-1,0,4,13,43
1528877659206357,-14,-26,-33,1,-7,-9,-8,0
1528877659207333,26,34,-4,-6,4,16,-1,-5
1528877659207333,-6,-7,8,10,0,5,15,-3
1528877659221289,12,-2,2,-13,-8,-6,-2,17
1528877659221289,-3,18,-13,3,1,-4,-6,2
1528877659222331,-33,-33,-14,3,6,-4,-4,-25
1528877659222331,16,13,-9,-1,-4,-5,-1,4
1528877659244235,8,-8,-12,-6,-1,1,-5,14
1528877659244235,-5,15,15,-12,-11,-6,3,-5
1528877659244235,-7,-6,-11,4,3,-1,-4,0
1528877659244235,-3,8,-4,-7,-3,1,6,-10
1528877659258218,-15,83,33,4,2,-3,5,-6
1528877659258218,5,-86,-47,12,6,3,0,-22
1528877659259216,0,-61,-43,-19,-6,0,13,28
1528877659259216,-8,28,24,-2,-2,-1,4,-18
1528877659281131,12,3,7,0,-4,-10,-49,23
1528877659281131,-7,12,4,10,8,10,16,-24
1528877659282127,25,21,-2,1,1,-7,-26,-9
1528877659282127,-32,-32,-22,-11,-12,-7,8,-19
1528877659295092,9,-19,4,-8,-3,5,13,-12
1528877659295092,-24,14,-4,-22,-8,0,-2,8
1528877659296089,7,-10,-1,49,30,7,-7,7
1528877659296089,-9,13,18,-1,2,-3,-2,-3
1528877659318039,0,-13,-28,-13,-10,-2,5,-10
1528877659318039,-4,22,20,6,-9,-4,-22,7
1528877659319028,5,-20,-52,-11,2,3,28,7
1528877659319028,3,57,37,6,-1,-3,-21,-8
1528877659340970,-34,-41,-28,-6,-3,1,5,-19
1528877659340970,24,2,4,-3,-2,0,-3,-5
1528877659341968,5,18,6,-8,-9,-6,7,21
1528877659341968,-9,54,10,8,4,-1,-34,0
1528877659354932,5,-29,18,3,-3,-3,6,5
1528877659354932,8,20,-43,-2,3,0,7,-13
1528877659362910,-12,-10,18,-5,-8,-3,-8,-1
1528877659362910,12,-13,-29,-8,-6,-2,19,6
1528877659377870,7,15,17,1,6,1,-16,4
1528877659377870,11,-19,-10,5,-1,-3,6,7
1528877659378883,-7,18,1,-7,-2,-3,-8,-6
1528877659378883,-4,-58,-12,-10,-11,-2,-4,4
1528877659400809,0,25,4,6,3,5,49,-3
1528877659400809,-9,7,-2,-5,0,0,-9,-5
1528877659401806,-5,35,-3,-15,-7,-3,0,15
1528877659401806,-6,-8,7,43,12,3,-5,-20
1528877659414773,17,27,26,5,19,4,-9,17
1528877659414773,-20,-2,-73,-15,-7,-6,-2,5
1528877659422752,14,-29,-16,-34,-15,-5,4,-15
1528877659422752,5,24,20,-10,-9,-3,-3,0
1528877659437758,2,-25,-4,7,-5,-1,0,3
1528877659437758,2,1,-3,5,4,1,1,-5
1528877659438709,-10,28,28,10,-1,-6,-26,5
1528877659438709,8,-19,-36,-6,5,6,11,-3
1528877659461115,0,15,25,12,2,1,-6,13
1528877659461115,4,-1,14,-7,-3,1,15,-18
1528877659467985,-20,-5,11,10,0,-2,-3,-18
1528877659467985,12,-19,-14,-10,-2,-1,4,11
1528877659484073,-4,-7,-5,-7,-4,-2,-11,1
1528877659484073,18,17,21,11,7,0,25,2
1528877659485969,5,4,15,2,-3,3,-6,11
1528877659485969,-11,47,-23,-8,1,-3,0,6
1528877659506062,-16,-45,-16,-13,-9,-4,-2,-68
1528877659506062,31,48,1,7,1,0,6,-11
1528877659508060,34,28,43,14,6,-2,-22,27
1528877659508060,-18,-16,-27,-5,1,6,18,-14
1528877659520229,-8,-35,-23,-12,-10,-8,-7,13
1528877659520229,-19,-1,17,2,1,-4,-4,14
1528877659530206,-21,-35,3,6,2,8,17,-19
1528877659530206,-5,3,-1,2,-3,-3,-9,13
1528877659544255,0,4,-45,-57,-19,-7,-4,-19
1528877659544255,-17,-33,13,77,28,3,-10,9
1528877659545165,-16,-6,-2,-14,-8,-5,-4,-4
1528877659545165,4,-13,19,21,0,0,4,12
1528877659566249,-2,15,-54,-30,-7,-2,6,-19
1528877659566249,4,-6,18,-34,-9,0,-16,29
1528877659568104,3,3,-2,-19,2,-3,-4,-9
1528877659568104,8,-26,7,-27,-8,-4,4,-12
1528877659580212,0,68,41,64,-3,-1,-4,-4
1528877659580212,-3,1,2,25,21,7,16,-12
1528877659589049,16,3,-58,13,0,0,-10,0
1528877659589049,-23,-12,18,-18,-4,-1,-21,11
1528877659604290,18,16,35,-10,-1,4,13,2
1528877659604290,-3,35,73,3,-17,3,-3,0
1528877659605205,-35,-101,-80,-6,-2,-12,-6,-35
1528877659605205,-5,58,49,3,4,3,33,-20
1528877659626149,51,-4,-5,15,14,1,-37,22
1528877659626149,13,-20,25,-8,-6,-1,1,34
1528877659628143,-8,-71,-19,-13,-8,-1,0,-13
1528877659628143,6,13,-29,-5,-5,-4,-1,-4
1528877659640114,-22,-43,23,12,5,-3,9,8
1528877659640114,12,6,-6,-9,-3,-2,-4,9
1528877659649450,20,35,2,-3,-2,0,-15,38
1528877659649450,-5,-33,15,12,0,1,5,17
1528877659664290,-13,9,-28,-5,5,5,3,5
1528877659664290,-23,-24,-87,-26,-15,-7,-7,-31
1528877659665246,14,34,7,8,1,-23,-26,34
1528877659665246,-26,-20,25,3,-5,-2,-37,-71
1528877659686713,-6,11,35,1,-1,0,31,31
1528877659686713,16,-13,-37,-12,1,22,-13,-59
1528877659687603,12,16,32,7,7,13,45,-3
1528877659687603,24,-6,-16,-1,1,-9,-43,12
1528877659700514,9,16,17,-3,-5,-19,-25,-2
1528877659700514,-38,6,-3,-8,-9,-15,-7,-12
1528877659708650,12,34,40,-9,-14,-5,9,-20
1528877659708650,27,-1,-29,54,43,8,14,29
1528877659723453,6,-3,-24,1,-14,5,-2,0
1528877659723453,-29,3,7,11,16,1,1,0
1528877659725448,-11,19,12,4,6,9,12,5
1528877659725448,-8,-8,-45,-17,-7,-1,0,12
1528877659746599,-7,-5,17,17,6,6,5,-7
1528877659746599,11,-12,-47,-23,-11,-5,4,18
1528877659747680,-9,15,-3,-5,-7,-4,-12,-17
1528877659747680,-5,10,11,-4,-8,-2,8,0
1528877659759926,-1,-7,1,3,8,1,1,-7
1528877659759926,3,-19,-3,-16,-12,-8,-1,-3
1528877659768740,-15,6,-13,-1,2,2,-15,-3
1528877659768740,13,2,14,-10,-6,0,8,3
1528877659783700,-6,21,26,11,3,4,6,1
1528877659783700,-2,-1,-19,-26,-9,-4,-2,14
1528877659785695,-5,-16,40,30,-5,0,2,-9
1528877659785695,1,3,-24,-10,12,4,10,-1
1528877659806676,-4,-9,-3,-16,-15,-7,-9,0
1528877659806676,16,-2,4,8,7,3,7,3
1528877659807637,-15,29,-9,-10,-7,-6,-33,9
1528877659807637,10,1,28,-20,-18,-8,-2,-2
1528877659819748,-13,16,-26,-1,2,-1,3,-8
1528877659819748,10,-2,0,3,-4,-1,7,8
1528877659836559,-5,-8,7,-8,1,3,2,-4
1528877659836559,-3,19,15,9,-3,-2,-1,26
1528877659843893,-2,-10,3,-3,7,0,-9,-12
1528877659843893,-7,-18,9,1,-4,-5,-1,7
1528877659845887,5,13,-10,-2,1,1,8,-8
1528877659845887,-10,1,-7,-10,-2,-2,-3,-3
1528877659866816,-4,-13,1,4,1,3,4,-3
1528877659866816,4,8,8,-3,-1,-2,0,2
1528877659867816,-8,-20,-16,2,1,0,6,4
1528877659867816,5,1,-4,-5,-7,-2,-6,-10
1528877659880010,-6,-9,2,-5,-3,2,-1,3
1528877659880010,-1,10,15,-22,-8,-3,-7,-5
1528877659889295,-1,-9,-15,12,8,2,7,-2
1528877659889295,0,-7,11,-1,-9,-1,6,1
1528877659903597,1,-1,-16,6,17,1,-1,-3
1528877659903597,0,-2,7,9,1,1,-5,2
1528877659905594,2,0,5,2,-9,-3,1,-3
1528877659905594,-2,-9,-10,-16,-10,-2,-3,-2
1528877659926684,-6,-7,1,-1,-4,-2,0,2
1528877659926684,1,7,4,1,-1,-2,-6,1
1528877659927611,-2,-3,-5,-5,1,-2,1,-2
1528877659927611,-2,0,1,11,3,0,-1,-4
1528877659939660,-1,-1,-3,-6,-4,-2,-2,0
1528877659939660,-1,-4,4,7,4,0,-1,0
1528877659955461,0,3,3,-6,-2,-1,1,-3
1528877659955461,-8,-10,-3,-2,3,1,3,0
1528877659963440,-1,-10,1,11,-2,-3,-1,-1
1528877659963440,1,2,-6,4,-1,-1,-4,-1
1528877659965433,-2,-1,1,-9,-1,-1,1,0
1528877659965433,3,1,17,-7,-6,-1,1,-2
1528877659986576,-3,-3,-30,-7,-2,0,0,-1
1528877659986576,0,2,10,7,-1,-2,-3,-2
1528877659988411,-3,-3,-8,0,5,2,2,1
1528877659988411,-1,-3,-2,2,-2,-3,-2,-1
1528877660000432,-1,3,16,-1,-3,0,-2,-2
1528877660000432,-3,1,-2,16,7,0,0,0
1528877660008321,1,-7,-3,-17,-6,-1,0,-3
1528877660008321,0,-4,0,12,11,1,1,0
1528877660023300,-3,-3,14,-1,-7,-3,-2,-1
1528877660023300,-1,3,2,-11,-7,-3,-2,-2
1528877660025275,-1,1,0,1,-4,-2,0,-3
1528877660025275,0,-7,-31,-14,1,2,-1,0
1528877660046380,0,-2,-9,-15,-7,-3,0,-1
1528877660046380,0,2,18,31,16,4,2,2
1528877660048369,1,4,4,15,8,-1,0,0
1528877660048369,-3,-8,-20,-9,-12,-2,-3,-5
1528877660060337,0,0,8,-3,0,1,-1,-1
1528877660060337,-3,-4,-15,-26,-11,-3,-3,-3
1528877660069313,-1,1,12,13,-8,-2,-3,-9
1528877660069313,0,1,0,2,2,3,7,3
1528877660083275,-2,-2,-2,4,4,-3,-10,-2
1528877660083275,-1,0,-2,0,-3,-3,0,-2
1528877660090101,1,-3,-6,-11,5,-1,0,-1
1528877660090101,-2,0,8,2,-6,-3,-2,-3
1528877660106451,-2,-4,-2,0,-2,0,1,0
1528877660106451,1,0,-3,-5,-2,-2,0,0
1528877660108284,2,2,-3,-5,-2,1,0,1
1528877660108284,-6,-4,-1,1,0,0,-1,0
1528877660120416,0,-1,0,0,0,-1,2,0
1528877660120416,-2,0,8,4,0,-1,-4,-1
1528877660129228,-1,-3,-11,-11,-2,0,1,-1
1528877660129228,2,6,32,15,3,-1,-2,1
1528877660144222,-4,-13,-89,-26,-12,-2,-2,-4
1528877660144222,0,0,16,6,0,0,-2,-2
1528877660152207,-2,1,6,-5,-1,-1,0,1
1528877660152207,0,0,5,-2,-7,-3,-2,-2
1528877660167283,-2,4,25,5,-2,-5,0,-1
1528877660167283,-1,-1,-12,-8,1,4,3,0
1528877660170265,-2,-2,-6,5,3,-1,-1,1
1528877660170265,-1,-3,-8,-2,-1,-2,-2,-1
1528877660172269,0,3,18,0,-1,1,1,1
1528877660172269,2,-2,-13,-2,-5,-2,-3,0
1528877660181146,-9,0,19,-2,-1,-2,1,0
1528877660181146,3,-5,-11,-1,2,1,-1,0
1528877660195417,2,-1,31,2,-1,-2,-3,1
1528877660195417,0,3,-22,2,4,1,0,1
1528877660204471,0,-10,-37,-16,-10,-5,-2,2
1528877660204471,-4,-2,7,-5,-3,-4,-3,-2
1528877660217681,1,0,3,6,2,0,0,2
1528877660217681,2,2,14,4,2,0,-3,-3
1528877660227677,0,3,15,3,0,-1,-1,0
1528877660227677,-1,-1,-8,-8,-7,-2,-2,-1
1528877660241620,-1,-3,-1,3,1,-1,-2,-1
1528877660241620,-3,-1,1,1,-4,-1,-1,2
1528877660242706,-1,-3,-20,-8,-3,-2,-2,0
1528877660242706,0,1,0,-9,-1,-2,-1,-3
1528877660254921,0,4,10,1,-1,1,0,-1
1528877660254921,1,-3,7,3,4,-2,0,0
1528877660263748,-2,-8,-42,-10,-8,-5,-5,-2
1528877660263748,4,5,3,0,4,2,-1,0
1528877660277845,-4,-2,10,7,-1,0,-1,1
1528877660277845,1,3,11,4,4,-1,-1,0
1528877660287070,4,-5,10,-2,-3,1,-2,1
1528877660287070,3,9,-1,-4,-3,-3,0,2
1528877660292248,-4,0,-17,2,3,1,-1,0
1528877660292248,-1,-4,-8,-11,-5,-2,-1,0
1528877660301227,-1,3,10,8,2,1,-3,0
1528877660301227,1,-9,-7,-1,-2,-2,-3,3
1528877660315239,12,16,8,-1,-2,-1,1,2
1528877660315239,-17,-24,-10,3,-4,-3,-1,-4
1528877660324220,1,17,41,-11,-2,0,1,-2
1528877660324220,0,-3,-49,1,1,-1,-1,-1
1528877660338320,0,-5,3,-6,2,1,0,0
1528877660338320,5,-1,-7,4,2,1,-1,-1
1528877660345425,3,13,25,5,1,-1,0,0
1528877660345425,-4,-7,-21,11,2,-2,-1,0
1528877660352504,1,1,7,-21,-4,-1,0,0
1528877660352504,2,6,-4,5,-1,-2,-1,-1
1528877660361318,-5,-9,6,6,-1,-1,-1,-2
1528877660361318,-1,4,7,3,1,2,1,-1
1528877660375482,-7,-9,4,-7,-7,-3,-3,-2
1528877660375482,2,7,17,0,0,-2,0,0
1528877660384473,0,7,-21,-3,-1,-1,1,1
1528877660384473,1,3,27,7,0,-1,0,-1
1528877660398468,-1,6,5,1,-2,-1,-1,-5
1528877660398468,-3,-7,15,-3,-2,-1,-2,1
1528877660405444,0,-2,-31,-1,-1,0,-2,-1
1528877660405444,-2,-2,13,-3,-1,-1,-3,-1
1528877660412427,-3,-8,-20,2,1,1,0,-1
1528877660412427,0,5,-19,-5,-2,-2,-1,-2
1528877660421244,-2,-9,3,1,0,0,0,-3
1528877660421244,-1,5,9,-1,-2,0,-3,-1
1528877660435207,-4,-11,-12,-4,-2,-2,0,-2
1528877660435207,-2,-8,-10,-4,-4,-2,-3,-2
1528877660444183,-1,-7,11,3,0,-2,-1,0
1528877660444183,-4,-13,-13,-10,-3,-2,0,-3
1528877660458147,1,0,16,-4,-1,-3,-1,-2
1528877660458147,-1,5,-10,4,3,1,0,-4
1528877660465160,0,-1,10,0,1,1,-2,0
