timestamp,emg1,emg2,emg3,emg4,emg5,emg6,emg7,emg8
1529307656487459,2,53,45,0,-6,-2,0,0
1529307656487459,-2,-25,7,-2,-8,0,0,1
1529307656502446,2,12,-7,3,1,7,1,-1
1529307656502446,-7,-13,31,7,0,-5,-2,-5
1529307656509402,1,-4,-31,-7,-3,8,1,3
1529307656509402,0,-10,5,-5,1,-6,-3,-3
1529307656518376,-1,18,-1,2,-10,-10,-3,-2
1529307656518376,-8,-23,9,2,-4,7,3,3
1529307656532338,7,35,-15,-3,0,-4,-1,-1
1529307656532338,-7,-9,17,0,2,7,1,-1
1529307656539335,0,-7,-28,-3,6,2,-1,0
1529307656539335,-7,-14,23,2,0,-8,-5,-5
1529307656547298,-2,-28,-16,-2,-8,1,0,-1
1529307656547298,1,20,-3,6,-4,-2,-1,1
1529307656562259,7,41,31,3,6,4,4,3
1529307656562259,6,23,-1,2,2,-9,-2,-1
1529307656569241,-6,-14,3,-4,4,9,2,-2
1529307656569241,-4,-28,-14,3,-3,-9,-4,-2
1529307656578216,-12,-7,-9,-9,3,-1,0,-2
1529307656578216,0,-1,-3,-5,-15,1,1,1
1529307656592233,9,-15,-30,2,20,8,1,3
1529307656592233,3,42,22,3,-11,-10,-3,1
1529307656599188,5,11,25,0,-5,-3,-2,-1
1529307656599188,-6,-12,-31,-6,13,1,-5,-2
1529307656607176,-11,-13,58,13,-10,-7,-1,-2
1529307656607176,2,-3,-32,-6,9,12,3,0
1529307656622099,-2,-35,3,2,7,1,0,-2
1529307656622099,8,27,-14,7,-8,-2,0,3
1529307656629081,3,4,-17,-14,-11,-8,-1,-1
1529307656629081,0,16,10,-2,23,8,1,0
1529307656638100,1,7,23,21,-6,-13,0,-1
1529307656638100,-3,-12,-11,-22,1,5,-1,-2
1529307656653016,-4,-3,-14,-10,-11,-2,-2,-3
1529307656653016,0,-34,-8,-10,-24,-18,-3,0
1529307656659000,2,12,14,16,-1,9,0,-1
1529307656659000,4,20,-18,0,8,3,0,2
1529307656674958,2,14,21,4,9,-5,-2,-1
1529307656674958,-5,-15,8,-4,-13,-5,0,-2
1529307656681957,-1,-20,-31,-3,9,16,5,-1
1529307656681957,2,11,24,13,-9,-11,-2,-2
1529307656689944,-3,-8,-12,-4,7,4,-2,-2
1529307656689944,-3,-11,-14,3,5,-8,-2,-1
1529307656698913,-1,0,-7,-12,1,-6,-4,-1
1529307656698913,1,13,13,-6,7,9,2,0
1529307656712905,0,-3,11,-7,-10,-1,1,0
1529307656712905,3,2,-9,-1,6,-8,1,1
1529307656719875,3,15,7,0,-3,-12,-4,1
1529307656719875,-5,-27,-32,13,21,6,1,0
1529307656734808,-3,1,2,-9,-7,-3,-3,-2
1529307656734808,2,19,18,-2,-5,10,2,2
1529307656741823,3,4,15,-7,1,-3,0,2
1529307656741823,-2,-11,-4,2,-2,6,1,-1
1529307656749796,-2,-2,-24,5,-5,-9,0,-2
1529307656749796,-6,-5,3,-2,-7,12,-3,-1
1529307656758734,-4,0,5,-4,-16,-14,-2,-1
1529307656758734,-3,-9,-20,14,20,6,-2,-1
1529307656772733,0,6,-26,-23,-4,9,2,1
1529307656772733,1,1,25,8,2,-6,-2,-2
1529307656779736,-2,-1,-1,-1,6,-2,-1,-1
1529307656779736,-3,-5,12,-1,-30,-7,-5,-2
1529307656795676,1,7,2,7,19,11,3,-1
1529307656795676,4,10,3,6,5,-2,-1,1
1529307656802804,3,-7,-5,4,-9,1,-1,-2
1529307656802804,-1,-1,-15,-7,-6,-2,1,-2
1529307656809608,1,-5,-8,-5,-3,-4,-2,1
1529307656809608,-2,2,17,9,11,6,3,1
1529307656818575,-1,9,28,15,6,3,2,1
1529307656818575,-5,-7,9,-21,-22,-10,-2,-4
1529307656832798,3,-7,-13,13,-6,-8,-4,-1
1529307656832798,-4,2,-23,-11,2,7,0,-2
1529307656839565,-1,-6,0,-4,12,-9,-3,0
1529307656839565,5,6,4,2,1,-9,0,2
1529307656855529,0,-5,-5,-10,-2,2,1,1
1529307656855529,-3,-8,0,3,-13,2,-1,-1
1529307656862495,-5,-6,-17,-12,0,2,-4,-4
1529307656862495,0,-4,-1,6,17,6,0,-1
1529307656869438,2,7,14,16,13,-9,-5,0
1529307656869438,1,-5,-10,-9,-26,-11,0,-2
1529307656878427,-4,5,-3,-2,5,11,3,-1
1529307656878427,3,3,10,-1,-1,-7,2,1
1529307656892376,2,1,3,3,-3,-5,-5,0
1529307656892376,-3,-7,-17,0,8,6,3,0
1529307656899360,-1,-2,7,-9,-12,6,0,-3
1529307656899360,-4,-3,-9,6,11,2,-1,-1
1529307656915316,0,-3,33,2,-6,-8,-1,0
1529307656915316,-1,-16,-13,2,9,4,-2,-2
1529307656922297,3,25,-5,0,-3,-10,-1,1
1529307656922297,0,1,7,2,-1,9,1,0
1529307656929279,1,2,-4,5,0,-2,0,-1
1529307656929279,-1,-6,-3,-1,-11,-1,-3,-1
1529307656938254,-1,-11,-12,-5,3,-5,2,0
1529307656938254,-1,2,-4,-11,-2,-6,-2,-1
1529307656953344,-2,-5,-2,-7,-14,9,0,-2
1529307656953344,3,10,6,5,24,-1,-3,1
1529307656967402,-2,-7,-6,-1,-4,6,-1,-1
1529307656967402,-1,-5,-26,5,-5,-2,0,-2
1529307656975155,0,6,15,-6,6,4,0,-1
1529307656975155,1,10,23,6,13,-2,0,0
1529307656982162,-1,-5,-2,2,-4,-1,-3,0
1529307656982162,1,-10,3,-4,4,12,1,1
1529307656990243,1,13,-30,2,7,-5,3,0
1529307656990243,-1,6,35,7,-18,-5,-4,-1
1529307657005161,0,0,-4,-2,3,3,0,-1
1529307657005161,-2,-6,10,-3,-11,5,-3,-1
1529307657012321,-1,-4,-6,0,-2,-11,3,-1
1529307657012321,-2,-3,-21,-12,-1,-2,-1,0
1529307657019587,-3,-8,-36,-5,-2,-3,-2,-3
1529307657019587,6,8,25,3,-7,0,2,1
1529307657035921,1,11,-2,0,5,9,1,1
1529307657035921,0,18,37,-5,2,-5,1,0
1529307657041954,2,-1,10,12,-3,1,0,2
1529307657041954,-6,-13,-34,-10,3,2,0,-3
1529307657050767,-4,-6,13,-10,-12,-3,-4,-1
1529307657050767,-1,-8,-23,-2,9,-8,1,0
1529307657065229,-1,2,24,-8,-30,-2,-3,1
1529307657065229,0,13,38,6,16,-10,-2,0
1529307657073436,-2,-11,-12,2,-6,6,-3,0
1529307657073436,-1,-3,-26,-7,2,1,22,-1
1529307657079760,0,-3,6,2,8,3,-8,-1
1529307657079760,-3,-2,-19,-6,6,-4,-1,2
1529307657095628,-1,-1,-7,5,-1,1,-1,-4
1529307657095628,2,4,19,5,-9,-1,-19,2
1529307657110158,0,-2,-18,-5,13,6,25,-2
1529307657110158,-1,-1,-6,-2,-7,-2,2,0
1529307657111156,-7,-10,-9,-1,-2,-6,4,-2
1529307657111156,-2,-18,-11,15,2,4,-2,-2
1529307657125228,9,33,69,12,20,8,2,3
1529307657125228,-1,7,1,3,-32,-23,-10,2
1529307657141495,0,-2,6,-12,5,8,35,4
1529307657141495,-4,-15,-38,-11,-4,-14,-38,-4
1529307657142395,-4,-4,-4,9,0,2,-9,-2
1529307657142395,-3,-3,1,-12,-17,2,-2,-3
1529307657155362,2,5,7,22,25,7,65,11
1529307657155362,-3,-1,0,-7,-18,-10,-82,-13
1529307657162342,-1,-3,-6,3,30,4,33,7
1529307657162342,3,5,5,9,-18,3,2,0
1529307657177302,-3,-8,-6,-20,-24,-11,-16,-5
1529307657177302,0,3,-3,-3,5,13,24,2
1529307657184324,-1,5,13,4,3,5,-8,-1
1529307657184324,-1,-4,-11,0,5,0,-4,-6
1529307657201302,0,-2,-1,5,-1,-4,-26,3
1529307657201302,3,7,5,-1,17,2,34,1
1529307657202235,-4,-13,-52,-6,-17,-11,-10,-3
1529307657202235,2,-1,27,-1,17,4,6,3
1529307657215227,-1,-3,11,-6,-26,3,-21,-5
1529307657215227,5,22,24,21,20,0,7,4
1529307657222183,-2,-11,-15,-6,0,-4,8,-1
1529307657222183,-2,5,-5,-4,-1,4,-8,0
1529307657238139,-1,-2,-10,1,3,-5,-19,-3
1529307657238139,-2,-5,0,8,-9,17,16,-4
1529307657244124,-2,-15,-39,-18,-9,-31,-6,2
1529307657244124,1,14,19,20,8,-2,-2,-1
1529307657260089,-1,-2,9,-10,-1,-5,-10,-3
1529307657260089,0,1,-6,1,9,5,21,2
1529307657261080,-2,-1,5,-9,-16,9,-10,-4
1529307657261080,-1,-6,-13,-3,7,-3,0,0
1529307657276039,-2,-2,-19,15,1,-2,1,-3
1529307657276039,-4,-7,24,-10,4,6,-1,1
1529307657282260,2,5,5,-4,1,3,-6,0
1529307657282260,4,15,23,13,-2,6,40,-1
1529307657297463,1,-3,-5,3,9,-13,-41,3
1529307657297463,-3,-4,-6,-16,-14,1,-1,0
1529307657304473,-1,-4,-4,0,-12,-10,-12,-2
1529307657304473,-1,-5,6,2,-7,-5,10,0
1529307657320446,0,4,-5,4,11,2,7,-2
1529307657320446,-1,-6,0,-3,-8,1,1,-1
1529307657320446,-4,-7,-18,-4,-2,0,7,-1
1529307657320446,1,-6,-12,-14,1,0,-10,-1
1529307657336413,0,0,14,11,-3,8,5,-2
1529307657336413,3,11,-9,0,6,-16,-4,0
1529307657342392,0,6,21,3,0,11,-7,-1
1529307657342392,-2,-4,-20,-14,1,3,32,2
1529307657357302,-4,-7,-8,-8,-6,9,-45,-7
1529307657357302,2,1,0,2,-1,-13,14,1
1529307657364283,0,2,-14,-6,-3,2,-2,-1
1529307657364283,1,-5,18,9,-7,-6,-20,1
1529307657387221,1,4,-2,2,14,8,19,1
1529307657387221,-1,-1,-5,11,-10,4,5,-1
1529307657388234,-2,-3,10,-12,-8,-4,-13,-2
1529307657388234,-3,-3,-9,-4,11,8,-10,-1
1529307657396202,1,5,22,7,20,6,17,-1
1529307657396202,-3,-7,-20,-8,-23,-12,-10,-4
1529307657402181,1,3,27,13,13,-2,5,1
1529307657402181,-4,-5,-25,-3,-13,-9,-6,-2
1529307657417141,0,1,-7,-3,2,0,5,0
1529307657417141,1,0,-2,-7,2,0,1,0
1529307657424123,-2,-5,-4,2,-5,5,1,0
1529307657424123,-2,-7,0,-1,9,-3,0,-2
1529307657440080,-1,4,-2,-7,-24,-8,-21,1
1529307657440080,-2,-8,-37,-19,14,7,0,0
1529307657441077,0,0,14,19,-7,-4,2,-2
1529307657441077,2,6,39,10,4,1,-10,-1
1529307657456038,-1,-6,-12,2,-3,-12,8,0
1529307657456038,2,10,1,-8,-5,16,3,1
1529307657462022,-2,1,-2,-5,25,-4,1,-1
1529307657462022,-2,-5,-27,5,-6,-4,-5,0
1529307657476982,-2,-2,19,-16,-6,-4,6,0
1529307657476982,0,0,-9,-10,-2,-1,0,-1
1529307657484960,1,-4,-1,1,0,7,-1,-1
1529307657484960,-6,-8,-12,-14,7,-1,-6,-3
1529307657499920,3,6,-8,3,-7,4,7,0
1529307657499920,1,8,14,8,5,-3,-2,2
1529307657500917,2,8,20,2,-5,1,0,0
1529307657500917,0,0,0,1,7,-4,-1,0
1529307657515895,-4,-4,-14,-9,-15,3,5,2
1529307657515895,0,-8,9,6,7,-9,-2,-3
1529307657521862,-3,-4,-16,0,6,5,-2,-4
1529307657521862,-1,4,-34,-16,-11,-8,-4,-4
1529307657536821,0,-7,34,21,10,5,6,0
1529307657536821,4,20,33,3,-8,5,-1,1
1529307657544805,3,1,-15,-3,4,-3,0,1
1529307657544805,0,-4,10,-5,-1,-10,-7,-2
1529307657559760,0,1,-15,-7,-9,-1,1,-2
1529307657559760,-5,-12,0,2,5,4,1,0
1529307657560775,-1,-1,-4,-2,-12,-4,-2,0
1529307657560775,1,-2,-22,-6,7,10,1,-1
1529307657575719,0,-7,15,6,-3,-5,-1,-1
1529307657575719,-1,-4,2,0,-4,-7,1,0
1529307657581703,-2,6,-8,-9,-4,1,-1,-1
1529307657581703,0,1,7,4,1,2,-1,1
1529307657598671,2,1,-11,-5,4,-2,0,0
1529307657598671,-1,-3,-9,1,-5,-1,-2,-1
1529307657604642,2,5,9,1,-1,-4,4,-1
1529307657604642,-1,-3,-12,-5,2,8,-7,0
1529307657620649,-3,-6,4,18,-12,-6,0,-3
1529307657620649,-3,2,18,6,8,6,0,0
1529307657621676,2,-6,-22,-13,6,1,0,1
1529307657621676,1,7,11,1,-2,-5,-4,-1
1529307657636800,0,0,-16,-7,-10,-7,1,-1
1529307657636800,-4,-8,-14,7,1,-3,-3,-1
1529307657642664,-4,-5,5,2,-4,4,-17,0
1529307657642664,1,0,2,-2,0,1,28,1
1529307657665034,1,2,-3,-5,8,2,-4,1
1529307657665034,-2,-1,0,-3,5,-5,12,-4
1529307657666024,-1,-2,-6,-2,-14,4,-10,0
1529307657666024,-3,-1,7,4,-10,6,19,2
1529307657681041,1,3,5,0,30,8,25,7
1529307657681041,-1,3,-2,-5,-21,-2,-54,-10
1529307657681041,0,1,2,-12,-3,-11,3,-3
1529307657681041,-2,-8,-12,2,-10,-11,-25,-4
1529307657695944,-5,2,27,-5,1,15,22,-3
1529307657695944,-2,-4,-8,8,6,0,15,0
1529307657702314,2,4,-17,3,5,-1,-4,-1
1529307657702314,6,11,47,10,4,-2,7,10
1529307657717317,5,7,-18,-11,-3,3,-8,6
1529307657717317,0,-4,-10,-10,1,1,2,3
1529307657724313,-5,-3,3,4,1,-7,2,-6
1529307657724313,-5,-9,-14,2,13,10,-10,-6
1529307657740431,-6,-10,-14,8,-23,-15,-6,-5
1529307657740431,-2,-3,15,-17,-3,-4,-4,-1
1529307657741460,2,7,-8,-2,10,8,18,2
1529307657741460,0,0,1,0,-2,4,-7,-2
1529307657756173,0,2,3,7,3,-7,-18,-2
1529307657756173,-1,1,-9,-3,-16,-2,20,-2
1529307657762157,-3,-9,7,2,16,12,-20,5
1529307657762157,1,4,5,-2,-1,-5,0,-2
1529307657777117,-2,-1,-21,-4,-5,-6,-7,-3
1529307657777117,-3,-6,10,1,10,1,11,1
1529307657784382,3,5,7,0,-9,3,-4,-2
1529307657784382,-2,-3,-1,3,2,-2,11,5
1529307657800342,0,-1,-3,-6,-2,-7,-31,-5
1529307657800342,4,2,-9,2,-5,1,35,6
1529307657801340,-2,-3,7,-2,-6,-1,-59,-9
1529307657801340,-2,0,-6,-5,3,0,-8,-1
1529307657815980,-3,-1,0,-3,1,-20,6,-2
1529307657815980,4,5,-5,4,4,-5,-11,1
1529307657822783,-3,-8,2,1,-7,-3,17,1
1529307657822783,1,1,-1,1,1,-3,11,-1
1529307657837688,3,3,-4,0,10,4,-8,1
1529307657837688,1,-3,8,2,-6,5,5,1
1529307657844794,0,3,3,2,-3,-8,27,4
1529307657844794,-2,-3,-6,-9,-12,-13,-12,-3
1529307657860489,-1,1,3,0,8,18,8,3
1529307657860489,1,1,-3,3,3,-3,-13,-1
1529307657861657,-1,-3,5,-4,-11,-2,13,-1
1529307657861657,-2,1,3,0,-6,8,-3,3
1529307657876469,-1,0,0,2,5,-2,-3,-3
1529307657876469,-3,-2,-4,1,-1,4,-1,-1
1529307657882007,3,-2,1,1,-3,-12,-2,2
1529307657882007,0,4,-6,3,1,0,1,-3
1529307657897756,-3,-2,5,-7,-8,-2,4,-3
1529307657897756,-1,-4,-21,-7,2,5,-8,0
1529307657904940,-3,-6,0,17,2,2,8,-3
1529307657904940,-1,-2,24,-1,-6,-12,-8,-4
1529307657919668,4,14,4,-3,-9,3,9,2
1529307657919668,-2,-3,-8,-11,-17,-4,-7,-2
1529307657926618,-2,-1,-9,-9,0,2,1,-2
1529307657926618,-3,-5,-10,3,-4,-1,3,-1
1529307657935604,-3,-8,7,-7,-6,3,-2,0
1529307657935604,2,8,9,9,21,1,-4,-1
1529307657942881,0,-1,-9,-3,2,-6,2,-1
1529307657942881,0,0,-2,-4,-8,-2,-5,1
1529307657957770,-3,-5,-5,-2,-1,0,13,-4
1529307657957770,0,0,4,4,4,9,0,1
1529307657964781,-1,0,3,-2,1,-10,2,0
1529307657964781,1,1,-3,1,8,11,21,-1
1529307657979715,0,6,2,3,2,-9,-43,1
1529307657979715,-1,-3,1,-2,-3,-5,-20,-4
1529307657987157,0,1,2,-2,-8,-2,0,1
1529307657987157,1,-1,-12,5,11,7,-1,-1
1529307657996051,-1,0,17,2,-10,-6,4,0
1529307657996051,0,-2,9,0,-11,4,7,0
1529307658002518,-2,-5,-24,-10,14,-1,3,-2
1529307658002518,-3,-6,13,8,-6,1,-15,-3
1529307658017480,4,10,5,7,3,-1,13,2
1529307658017480,3,0,-8,0,4,7,-1,3
1529307658024888,1,0,6,1,-10,-9,7,0
1529307658024888,-3,-2,-9,-12,9,7,2,0
1529307658039876,-2,-8,-31,4,4,-6,0,-2
1529307658039876,-5,-10,1,-18,-7,-9,3,-4
1529307658047573,2,20,56,22,9,16,-3,-1
1529307658047573,-3,-14,-35,-1,-3,8,-5,-2
1529307658056721,4,24,42,-4,-10,-8,0,-2
1529307658056721,1,0,-16,-4,-3,-14,-1,-1
1529307658062884,-4,-12,-13,6,-1,6,4,0
1529307658062884,3,4,12,-2,3,-2,-8,-1
1529307658077398,-2,-10,-19,3,-1,-6,5,1
1529307658077398,-3,-3,-11,-2,-7,0,1,-1
1529307658085429,0,2,3,-3,1,4,1,0
1529307658085429,1,0,-1,-3,-13,-10,-3,-3
1529307658099895,-1,-6,-5,-3,9,8,-2,0
1529307658099895,-2,1,8,-2,6,-4,0,-3
1529307658107427,-1,2,2,-2,-12,-3,-2,0
1529307658107427,2,-11,-44,15,5,4,1,2
1529307658123426,3,24,87,2,-12,-3,4,0
1529307658123426,0,-8,-28,7,7,5,-2,1
1529307658123426,1,18,42,-1,-3,-8,1,-1
1529307658123426,-2,0,-8,-7,5,-1,-2,-1
1529307658137622,-6,-22,-31,-5,-1,4,-1,-2
1529307658137622,-1,7,14,8,2,4,0,1
1529307658144655,4,-8,-23,-1,-3,-2,-1,1
1529307658144655,-1,6,3,-5,-1,-15,-1,0
1529307658159619,-3,-14,-9,0,11,9,2,0
1529307658159619,-2,11,11,0,-6,-1,-1,0
1529307658167014,-4,-4,-23,-6,2,4,0,-2
1529307658167014,3,3,25,-2,-4,8,2,1
1529307658182591,-2,-4,-23,-5,0,-8,-2,-3
1529307658182591,-1,-7,-11,9,-2,4,3,2
1529307658183554,-1,0,8,-8,-1,-1,-1,-2
1529307658183554,-1,4,26,3,-1,-2,0,-2
1529307658198603,1,-7,-35,-2,-2,9,3,2
1529307658198603,-1,7,47,12,9,-5,1,0
1529307658204932,-1,-6,-3,-6,-9,-4,-2,-1
1529307658204932,-3,-2,-9,-2,4,0,-2,-2
1529307658219809,-4,-9,-17,-7,-3,-7,-6,-4
1529307658219809,0,-2,-12,2,6,-1,-3,-1
1529307658226532,1,6,4,-6,-7,6,3,1
1529307658226532,0,8,14,1,-3,-4,1,3
1529307658242489,3,4,-9,0,6,7,0,-1
1529307658242489,-3,-18,-5,-2,-8,-8,0,-2
1529307658243487,-2,4,-14,0,-3,6,-2,3
1529307658243487,0,-5,5,-2,-4,-4,14,0
1529307658257753,-2,14,-1,0,1,-16,-17,-1
1529307658257753,0,-8,-2,-4,-1,15,3,0
1529307658264431,1,-4,-7,2,-3,-4,3,1
1529307658264431,2,0,0,-2,1,1,-19,-4
1529307658280423,-3,-10,-7,-2,-3,8,39,-4
1529307658280423,0,0,1,-3,2,-8,1,3
1529307658287581,-1,-18,-20,-3,9,2,9,1
1529307658287581,0,12,17,5,-9,3,-28,-4
1529307658302943,2,3,12,3,4,-7,-13,2
1529307658302943,7,6,0,-4,-5,3,16,0
1529307658303982,-1,5,-5,0,0,-4,-17,-4
1529307658303982,-1,-7,-8,-6,-1,-9,-3,5
1529307658317358,-4,-8,1,1,10,12,-3,-3
1529307658317358,-3,0,0,0,-8,24,5,-2
1529307658325324,-2,-5,-8,0,4,-37,-2,-3
1529307658325324,-3,2,-2,-2,1,9,5,-1
1529307658340249,2,1,4,4,23,-12,-12,3
1529307658340249,2,3,-8,-14,-32,-1,-5,-1
1529307658347238,-1,-2,-1,0,6,5,0,-1
1529307658347238,-5,-3,-35,-4,-6,1,7,-2
1529307658362827,-2,-12,45,5,-7,6,7,0
1529307658362827,0,7,-21,-4,15,-4,-9,1
1529307658363825,2,1,36,4,-5,-8,5,-1
1529307658363825,2,7,-9,-2,2,-4,0,2
1529307658376797,-3,1,-12,-4,-8,4,-3,0
1529307658376797,-1,-14,-1,6,-3,-13,-6,-1
1529307658384238,-2,14,-8,-1,-4,33,-3,0
1529307658384238,-3,-14,-1,-2,8,-24,2,-3
1529307658399638,-1,-7,-21,1,-28,2,0,0
1529307658399638,-4,0,8,4,3,-3,-8,-2
1529307658407536,-2,-3,-5,-15,3,-12,2,0
1529307658407536,5,10,9,-5,-7,1,3,1
1529307658423377,-1,-1,-12,-10,-2,8,4,-2
1529307658423377,-3,-4,1,9,3,-9,-6,-2
1529307658423377,-3,-10,-17,8,-1,5,-1,-1
1529307658423377,4,6,11,5,-9,0,0,1
1529307658437735,1,1,-9,-7,1,-9,-3,1
1529307658437735,-3,-1,-12,-5,4,1,-1,-3
1529307658444949,-1,1,8,0,-2,-1,-3,1
1529307658444949,-6,-16,-4,3,9,17,2,-1
1529307658459660,0,11,-1,-6,-15,-12,-3,0
1529307658459660,5,5,6,0,-6,-17,3,2
1529307658467776,1,-2,-16,7,7,0,-3,0
1529307658467776,-2,2,2,-2,-11,4,2,-2
1529307658483163,3,5,6,7,3,10,2,1
1529307658483163,-6,-8,-11,10,15,0,1,-1
1529307658484012,1,-1,-2,-12,0,-1,-2,2
1529307658484012,4,5,21,6,-6,-6,1,1
1529307658499078,0,-6,-17,3,25,-1,-7,-2
1529307658499078,-1,1,6,-5,-5,-2,1,0
1529307658504399,-3,-9,-8,2,0,-5,-2,-3
1529307658504399,-2,-4,-1,-3,1,6,1,2
1529307658519722,-2,0,12,-2,-5,-5,2,-1
1529307658519722,-2,-3,-19,1,0,3,-1,-1
1529307658527616,1,2,17,1,1,6,1,0
1529307658527616,3,8,8,-4,-4,-6,0,0
1529307658542813,2,-4,-14,-1,-1,4,-1,0
1529307658542813,0,8,4,-1,3,4,-1,1
1529307658543606,-3,-2,3,-8,-11,-5,1,-1
1529307658543606,-1,3,-1,-2,3,-2,0,-1
1529307658556821,0,0,-1,-2,-14,-1,1,0
1529307658556821,-1,0,18,3,9,5,-1,0
1529307658564799,-2,-3,-5,-1,-5,-1,1,-1
1529307658564799,-2,-6,0,6,12,2,-1,0
1529307658579546,-3,-8,-2,-3,-2,-4,-2,-1
1529307658579546,0,-1,1,-7,-6,0,-1,-1
1529307658587736,4,5,-5,1,-2,1,1,1
1529307658587736,0,-3,-16,-5,-3,-2,2,0
1529307658602671,-2,-3,4,5,7,3,-1,0
1529307658602671,-1,6,6,-2,-7,-6,0,1
1529307658603446,0,-4,-8,2,2,1,0,0
1529307658603446,-1,0,-4,-2,-3,0,-3,0
1529307658617653,0,1,7,-5,1,-1,0,1
1529307658617653,1,-2,-1,-3,-3,0,0,-2
1529307658624675,0,0,1,7,5,2,-1,-2
1529307658624675,1,4,2,-8,-3,-2,-1,-2
1529307658639955,0,0,3,12,-3,-1,3,-1
1529307658639955,0,0,-3,-21,-1,-1,-8,-4
1529307658646933,-1,2,3,-4,-2,-1,-9,-1
1529307658646933,-2,-5,-2,-8,-1,0,23,-1
1529307658663336,0,1,-3,12,1,0,-4,-1
1529307658663336,2,2,4,9,-5,3,7,2
1529307658664243,-1,-2,-1,-7,-8,1,-10,2
1529307658664243,-2,-3,-1,6,12,-4,4,-3
1529307658677154,0,4,7,-48,6,9,21,4
1529307658677154,-2,-4,-8,29,3,-2,18,-3
1529307658684496,0,0,6,26,-7,-9,-43,-3
1529307658684496,-2,-2,-2,37,-10,-2,-8,1
1529307658699800,0,3,2,-51,5,-3,-1,0
1529307658699800,0,-2,0,-27,-5,-8,-2,2
1529307658707736,-2,0,-3,21,5,9,21,-1
1529307658707736,0,-1,-6,22,-5,-1,-7,-1
1529307658722650,0,2,19,72,4,-2,-5,-2
1529307658722650,1,-1,-1,-21,3,-2,-4,0
1529307658723648,-3,-7,-19,-27,-4,-2,8,-2
1529307658723648,-2,2,5,-14,-1,0,-6,0
1529307658737231,0,-2,-6,13,-7,-1,-3,-2
1529307658737231,1,2,9,7,1,2,-3,0
1529307658745345,0,0,10,23,1,-5,10,0
1529307658745345,-1,-3,-8,-21,3,4,-9,-2
1529307658759563,-2,-1,0,6,-1,-1,-4,-4
1529307658759563,-1,0,1,-5,1,0,-4,0
1529307658767899,0,1,5,19,3,-1,5,0
1529307658767899,0,-1,-4,-26,1,-4,-1,2
1529307658782817,0,-2,-6,2,-2,-1,-3,-1
1529307658782817,-2,-2,-2,9,1,19,0,-1
1529307658783806,-1,0,1,-8,-3,-8,2,-1
