timestamp,emg1,emg2,emg3,emg4,emg5,emg6,emg7,emg8
1528873505000594,-7,-17,-19,-9,0,0,-1,-1
1528873505000594,-4,0,-9,-11,-4,-1,-1,-1
1528873505014556,-4,-14,-11,-2,-2,-2,-3,-2
1528873505014556,-1,5,4,2,0,-1,-1,1
1528873505022536,6,16,12,4,-1,0,0,-2
1528873505022536,2,-5,-8,-3,0,0,1,0
1528873505029518,-1,0,5,2,-1,0,1,1
1528873505029518,-2,-4,-8,-3,-1,-1,0,-2
1528873505040488,-1,-1,7,1,1,-1,1,-1
1528873505040488,-4,-5,-6,-1,-1,-2,-2,-2
1528873505059437,2,7,-1,-3,-1,-1,0,-3
1528873505059437,1,-2,7,3,0,0,-1,0
1528873505067415,-1,-1,-6,-3,0,4,2,0
1528873505067415,-1,-5,-1,3,-1,1,-1,-1
1528873505082375,-1,1,5,5,0,-7,-1,0
1528873505082375,0,1,1,-1,0,-1,0,-1
1528873505099330,0,1,1,-6,-3,0,-2,0
1528873505099330,-2,-6,-4,6,1,3,0,-1
1528873505112295,3,7,12,-1,-4,-10,-6,0
1528873505112295,0,-3,-2,0,2,-1,3,0
1528873505127257,-5,-12,-19,-7,-1,2,1,0
1528873505127257,-1,-4,6,4,-1,1,-3,-2
1528873505134238,-2,5,2,6,1,1,0,-1
1528873505134238,3,8,5,2,-1,-3,-2,-2
1528873505160168,-6,-21,-18,0,1,-2,-1,-1
1528873505160168,-2,2,-4,-5,-3,-2,-1,0
1528873505172135,0,12,4,6,0,0,-2,0
1528873505172135,1,0,4,-7,0,-2,0,0
1528873505194076,-2,-8,-12,4,-1,-2,0,0
1528873505194076,1,7,0,-10,-2,0,-1,-1
1528873505202056,0,-6,1,7,1,0,0,0
1528873505202056,0,3,8,4,2,4,0,-1
1528873505209037,-1,1,3,3,0,-1,-1,-1
1528873505209037,-2,-5,-15,-9,-2,-5,-3,-1
1528873505220007,-2,-11,-16,-6,0,-3,-2,-1
1528873505220007,2,18,19,-1,0,1,1,0
1528873505231975,-2,-2,-3,-2,0,-1,1,-2
1528873505231975,0,-4,-9,3,1,-3,-3,-2
1528873505246935,0,1,-1,-5,-1,0,-2,0
1528873505246935,0,-1,12,6,-1,0,0,1
1528873505261895,0,-2,-16,-6,0,1,0,-1
1528873505261895,-2,-1,0,3,1,2,-1,-1
1528873505270872,1,-4,8,3,-1,0,0,-1
1528873505270872,-1,3,7,-4,0,0,0,-1
1528873505284834,0,-3,-9,-9,-1,-2,2,1
1528873505284834,-2,-3,1,4,1,0,-2,0
1528873505299794,3,2,-4,-4,-1,-1,-1,1
1528873505299794,-2,-4,-6,-2,-3,3,5,0
1528873505306776,0,3,12,3,1,-2,0,0
1528873505306776,-3,-11,-25,-5,-2,-2,-6,-1
1528873505322732,0,6,9,-7,1,1,2,-1
1528873505322732,0,-2,6,4,-8,-6,-6,-2
1528873505344674,4,14,17,0,4,5,0,0
1528873505344674,-3,-2,-3,-4,-1,0,-2,-3
1528873505351683,-2,-4,16,9,-1,-5,0,0
1528873505351683,-1,3,14,7,-1,-6,-2,-2
1528873505359635,-3,-3,-22,-10,-1,-1,1,-1
1528873505359635,-2,-2,4,1,-3,1,0,-1
1528873505366618,-1,-5,-24,-14,5,2,-1,0
1528873505366618,-1,1,14,6,-5,-3,-2,-2
1528873505374636,0,-5,1,5,2,-1,0,2
1528873505374636,-1,2,-2,-4,0,-4,-2,0
1528873505389612,1,1,-2,1,-1,1,0,0
1528873505389612,0,-4,-11,-7,1,-1,0,1
1528873505404515,0,6,15,10,1,0,-2,-1
1528873505404515,-3,-11,-30,-13,-4,-4,-2,-2
1528873505411548,-2,1,12,6,-3,-2,0,-1
1528873505411548,0,-1,0,-3,0,0,1,-1
1528873505427466,-1,1,13,11,1,0,0,-1
1528873505427466,3,-1,-14,-10,-8,-4,-2,-1
1528873505442518,2,6,8,1,0,0,-2,0
1528873505442518,0,-5,-4,-2,-1,1,1,0
1528873505449395,3,4,16,2,1,1,0,1
1528873505449395,-2,0,1,5,2,2,3,1
1528873505464386,2,8,4,-9,-4,-1,-2,-4
1528873505464386,-2,-2,1,5,-1,-2,0,0
1528873505472381,-2,-5,-11,-2,-4,-4,-1,0
1528873505472381,1,1,5,-5,-1,-1,-1,2
1528873505487293,-2,-7,-18,-9,-5,-3,0,-2
1528873505487293,-2,1,17,10,1,-2,-2,-1
1528873505502290,0,0,1,-8,-4,0,2,0
1528873505502290,-1,-4,-5,2,1,-2,0,-1
1528873505509236,-2,-4,-14,-5,-1,-2,-1,-3
1528873505509236,-2,1,8,2,3,5,1,0
1528873505524218,-1,-2,-5,-3,-2,-1,0,0
1528873505524218,0,0,-3,2,-1,1,-2,0
1528873505532174,0,6,10,-5,1,0,-3,-1
1528873505532174,0,1,3,5,-1,-2,-2,-1
1528873505547134,4,7,11,1,0,0,-1,0
1528873505547134,0,-1,-8,-2,-1,-1,0,-2
1528873505562129,4,0,2,1,0,-1,-2,0
1528873505562129,-2,-2,2,-1,-4,-3,-1,-1
1528873505569114,0,0,-1,-3,-1,0,-2,1
1528873505569114,-3,-1,-5,2,0,-3,-2,-4
1528873505584034,-2,2,9,3,0,-3,-2,1
1528873505584034,2,4,7,4,1,1,1,0
1528873505592050,1,-2,-13,-3,1,-4,-2,-1
1528873505592050,-2,-3,-6,-4,-1,1,4,-1
1528873505598996,-2,0,-7,-5,-1,1,0,2
1528873505598996,-2,-3,-6,1,1,-2,-2,0
1528873505607000,-3,-2,-5,0,-1,1,0,-1
1528873505607000,0,-9,-24,-5,-2,-3,-3,0
1528873505621975,-1,5,21,5,-2,-2,0,-1
1528873505621975,-1,-2,-9,-7,1,1,1,0
1528873505629928,-1,-2,5,10,0,-1,-1,-2
1528873505629928,0,-2,1,-2,-1,-2,-1,-1
1528873505644924,-1,-4,-16,-1,-1,0,-1,-1
1528873505644924,2,5,8,-4,-3,-2,0,-1
1528873505651854,-2,-6,-10,0,2,3,1,-2
1528873505651854,-1,1,7,-1,0,1,0,-1
1528873505659832,1,2,5,5,-1,-3,-1,-1
1528873505659832,0,3,7,-1,0,-1,0,1
1528873505666814,-4,-4,2,-7,-3,-3,-1,-1
1528873505666814,-1,-1,3,5,2,1,-2,0
1528873505681794,3,2,-7,-6,2,0,0,0
1528873505681794,0,0,4,3,0,0,-2,-2
1528873505689804,-2,4,22,6,-1,-1,0,-1
1528873505689804,0,-6,-7,-3,-3,-3,0,-1
1528873505711896,-1,0,-1,-1,0,2,0,-1
1528873505711896,0,7,6,-1,-2,1,-1,-2
1528873505719874,-2,-2,-7,0,1,0,0,0
1528873505719874,0,-1,-3,-4,-2,0,-2,0
1528873505726855,-5,-5,0,4,-2,-2,-3,-3
1528873505726855,1,-2,4,-1,0,1,1,0
1528873505734883,-1,-4,-11,-4,-2,0,-1,-2
1528873505734883,2,4,4,1,1,1,3,2
1528873505749823,0,0,0,0,1,1,1,1
1528873505749823,-2,-3,-2,2,0,0,0,-2
1528873505764785,3,-2,-6,-6,-3,-3,-1,-1
1528873505764785,-2,-1,0,5,3,1,-1,0
1528873505771736,-4,-7,-16,-8,-1,0,-2,-1
1528873505771736,-2,2,9,7,1,0,-1,-1
1528873505779751,3,11,5,0,0,0,-2,-1
1528873505779751,-1,-2,-12,-6,-3,-1,-2,0
1528873505786695,0,-2,-1,-5,-1,-1,1,1
1528873505786695,-4,-3,0,7,1,0,-3,-4
1528873505801682,-3,-5,-7,-7,-1,-2,-2,0
1528873505801682,2,2,11,6,1,-1,0,0
1528873505809665,1,-1,0,1,0,0,-1,-1
1528873505809665,-2,0,0,-1,2,0,0,0
1528873505824593,-1,-2,-10,-6,0,-1,1,0
1528873505824593,-1,-2,0,1,-1,-2,-1,-1
1528873505831577,0,0,0,0,-2,-2,-2,0
1528873505831577,0,0,-3,-3,-2,-1,-2,-2
1528873505839568,-2,1,10,3,0,1,-1,-1
1528873505839568,1,3,-1,-3,2,0,0,1
1528873505846535,2,-1,5,3,-2,-1,0,0
1528873505846535,-5,-3,-17,-7,-2,0,-1,-1
1528873505861496,3,5,7,5,5,4,2,1
1528873505861496,-1,-7,-9,-2,2,-2,-1,-1
1528873505869473,1,9,26,9,0,-2,0,0
1528873505869473,0,-2,-2,0,0,0,0,1
1528873505892462,-1,-5,-14,-5,-4,-1,-1,-1
1528873505892462,1,-1,3,1,-2,-1,0,1
1528873505899448,3,5,5,2,1,1,2,-1
1528873505899448,1,-2,-1,0,-2,-2,-1,-1
1528873505907422,-1,4,11,-1,-3,-4,0,-4
1528873505907422,0,4,7,8,1,0,0,0
1528873505914400,-3,-5,-11,-2,-2,-2,-4,-2
1528873505914400,1,0,1,-3,-2,-1,-2,1
1528873505929458,-2,-4,-6,-3,0,0,-2,0
1528873505929458,-5,-4,-5,-2,-1,0,-1,-2
1528873505936654,1,1,-4,-4,0,1,-1,0
1528873505936654,3,1,5,3,3,0,1,1
1528873505944664,-2,-4,-9,-5,-2,-4,-1,-2
1528873505944664,1,4,15,5,-1,0,1,-1
1528873505951614,-4,-4,-7,-3,0,0,-2,-1
1528873505951614,-1,2,-2,1,1,0,3,2
1528873505959629,-4,-7,-9,-2,-3,-1,-1,-1
1528873505959629,1,10,17,0,-1,-3,-3,-2
1528873505966604,-1,-4,-1,0,-2,-1,-1,-3
1528873505966604,0,-4,-6,-1,1,0,-1,-1
1528873505981580,-2,-3,-10,0,0,0,0,0
1528873505981580,1,1,-3,-2,2,3,0,0
1528873505989514,-3,-4,-8,-3,0,-5,0,-2
1528873505989514,0,4,15,8,-2,-2,-2,-3
1528873506004473,0,0,-2,-10,0,2,2,2
1528873506004473,-2,-6,-1,7,-1,1,-2,-1
1528873506011453,0,1,1,-1,1,0,-1,-2
1528873506011453,-2,-3,-1,-3,-1,-1,0,-2
1528873506019432,-1,1,4,6,-2,-1,-1,0
1528873506019432,-3,-11,-17,-8,-2,-2,-1,-2
1528873506027448,5,13,12,2,1,1,0,2
1528873506027448,0,2,6,0,0,-2,-2,1
1528873506042426,0,-1,-1,0,-1,-1,-3,-2
1528873506042426,-1,-8,-14,-9,1,-1,-2,0
1528873506049409,-2,-2,-3,3,-2,0,0,-1
1528873506049409,1,3,-1,-5,-1,1,-1,-1
1528873506064368,-1,0,7,2,-1,0,1,-1
1528873506064368,-1,-1,-8,-3,-4,-3,-1,-2
1528873506072347,-3,-2,4,1,-3,-5,-2,-1
1528873506072347,1,1,-6,-2,0,2,-1,1
1528873506079309,-3,-3,-7,-2,-1,-2,1,-2
1528873506079309,1,5,12,2,0,0,0,-1
1528873506087253,-2,-8,-7,-1,-1,-1,-2,1
1528873506087253,3,5,10,5,2,-1,2,2
1528873506102264,-3,3,-4,-1,0,-2,-3,-3
1528873506102264,-1,-1,-4,2,0,-1,-1,-1
1528873506109245,-3,-2,6,-1,-1,2,-1,0
1528873506109245,5,6,5,8,1,-1,1,2
1528873506124199,3,4,5,-1,-1,2,1,1
1528873506124199,-3,-3,-3,-3,-1,0,-1,0
1528873506132184,-1,-3,-6,-2,-1,1,1,0
1528873506132184,-1,-1,-2,-3,-1,-1,-2,-2
1528873506139166,1,-3,-2,1,1,0,0,1
1528873506139166,-1,-4,-11,-2,2,1,-1,0
1528873506147144,1,5,26,6,-3,-1,1,0
1528873506147144,-2,-6,-16,-9,0,-1,-2,-3
1528873506162099,1,3,12,6,0,0,-1,-2
1528873506162099,1,-2,-5,-1,-1,1,1,0
1528873506169033,0,2,1,1,1,1,0,1
1528873506169033,-1,-3,-6,-7,-3,0,0,-1
1528873506184046,-2,3,5,0,1,-1,-2,-1
1528873506184046,-3,1,1,0,-2,0,-1,1
1528873506192025,-2,-4,-16,-2,2,-1,-4,-3
1528873506192025,0,-1,-11,-10,-2,-3,0,0
1528873506199996,1,1,22,14,-1,-1,-2,1
1528873506199996,0,2,1,0,-1,-1,-3,-3
1528873506214947,-1,-3,-11,-5,-1,0,-2,-2
1528873506214947,-4,-6,-4,-1,1,-3,-1,0
1528873506221949,-2,-7,-11,-3,0,1,0,0
1528873506221949,-2,1,-5,-4,-6,-7,-1,-3
1528873506236852,0,-1,4,3,2,2,0,-1
1528873506236852,-3,0,-2,-4,-4,-1,-2,-1
1528873506244885,0,1,1,-1,-1,-3,0,2
1528873506244885,0,-1,-4,-1,-1,1,1,1
1528873506259843,0,-5,-12,-7,-1,-1,-1,0
1528873506259843,-1,4,6,1,0,1,0,1
1528873506266808,-2,-4,-9,-7,-3,-3,-1,-1
1528873506266808,2,1,1,3,2,0,-1,-1
1528873506281857,0,-1,-9,-5,1,1,-1,-1
1528873506281857,2,11,38,12,1,2,2,0
1528873506296696,1,2,-4,-3,0,-1,1,-1
1528873506296696,-3,-4,-2,1,-3,-1,-2,-3
1528873506304738,-5,-6,-10,-5,-1,-1,-1,-3
1528873506304738,-1,-4,-10,-7,-2,-2,-1,1
1528873506319707,-1,-1,1,0,0,-1,-1,-2
1528873506319707,0,-2,1,7,0,0,0,0
1528873506326820,3,-1,0,-8,-1,1,3,1
1528873506326820,-2,0,0,-1,0,1,-3,0
1528873506341638,1,-1,0,0,0,0,-1,0
1528873506341638,-1,-3,-2,-4,-2,-1,1,0
1528873506356597,-1,-1,-9,-3,-2,0,-1,0
1528873506356597,2,6,10,0,-1,-1,1,1
1528873506364579,-1,-2,1,2,-2,0,0,2
1528873506364579,-1,-1,-4,-5,2,-2,-2,-5
1528873506379705,-1,2,3,0,-3,-2,-1,-1
1528873506379705,1,-3,-3,8,4,0,-2,-2
1528873506386749,-2,-1,2,6,1,0,1,-2
1528873506386749,0,-2,-5,5,2,1,2,2
1528873506401867,0,2,-4,-14,-2,-2,-5,-2
1528873506401867,0,0,1,5,1,1,2,2
1528873506417033,-3,1,1,3,1,0,0,-1
1528873506417033,-1,-1,-3,-9,-7,-2,1,1
1528873506425070,-1,1,-1,-3,2,-1,0,-1
1528873506425070,0,0,-2,0,0,0,-1,-1
1528873506447012,2,-1,1,6,2,-1,0,1
1528873506447012,-2,0,-3,1,0,0,0,-1
1528873506455059,-1,-2,2,6,1,1,-2,0
1528873506455059,-3,-3,-2,-3,-1,-1,-2,-1
1528873506469146,2,3,0,-2,-1,0,-1,-2
1528873506469146,0,-1,-3,-1,-2,0,-2,-1
1528873506484422,-2,-4,-3,1,-2,0,-1,-1
1528873506484422,-3,-4,-2,-9,-4,-2,0,0
1528873506491405,1,4,4,10,2,1,0,-1
1528873506491405,3,0,2,7,5,0,-1,-2
1528873506507524,0,-5,-6,-2,-4,-2,0,0
1528873506507524,-3,0,-1,-3,-3,-1,0,-1
1528873506522535,-2,-4,4,1,-1,-1,-2,-1
1528873506522535,1,0,1,-1,-2,-2,-1,0
1528873506536622,-1,0,0,-1,-1,-1,-1,0
1528873506536622,0,1,0,4,1,0,-1,-1
1528873506544523,1,2,0,2,1,0,1,0
1528873506544523,-3,-8,-6,-2,-1,-1,-1,-1
1528873506559562,-2,4,2,0,2,0,0,0
1528873506559562,-2,0,-1,-4,-3,-3,-1,-1
1528873506566883,1,0,1,6,0,-1,-1,1
1528873506566883,3,1,-3,-5,-2,1,1,1
1528873506581683,-1,1,1,-5,-3,-1,-2,-1
1528873506581683,-2,-5,-5,-5,-3,-1,-2,-1
1528873506596644,1,-2,0,2,-2,-2,-1,0
1528873506596644,-1,4,4,6,2,1,0,-1
1528873506604282,-2,3,2,0,2,0,0,1
1528873506604282,-1,-1,0,-5,-3,0,0,0
1528873506626625,-1,0,-4,-6,0,0,0,-3
1528873506626625,-1,-3,-8,0,-2,-3,-1,0
1528873506634745,0,0,7,0,-1,-1,0,-2
1528873506634745,-1,0,-2,4,-1,-1,0,0
1528873506649556,-1,-1,-3,-1,0,0,-1,-1
1528873506649556,-1,-6,-1,0,-1,-2,-2,-2
1528873506672056,-2,0,-2,0,-1,1,-2,-3
1528873506672056,0,-1,-1,-2,-1,-2,-1,-1
1528873506680040,-1,-6,-9,-5,0,-2,-1,-1
1528873506680040,-2,4,8,2,2,1,-1,-1
1528873506694966,0,6,1,-2,-1,-1,0,0
1528873506694966,-1,2,-1,-1,-1,-1,-1,0
1528873506709796,-1,-4,-3,-1,-2,0,0,0
1528873506709796,0,1,-3,-2,-2,-1,0,0
1528873506732056,-2,-3,-1,2,4,-2,1,-1
1528873506732056,0,-1,0,-3,-2,-1,1,1
1528873506746879,0,-1,-2,1,-1,-1,-1,-1
1528873506746879,0,1,-1,-2,0,0,-1,0
1528873506754854,1,2,0,0,-3,-2,-2,1
1528873506754854,0,1,-1,1,-1,0,0,-1
1528873506769102,-1,-1,-1,-2,-2,-1,-1,-1
1528873506769102,-1,-2,-2,-1,1,1,0,1
1528873506785078,-1,0,-2,1,0,-1,1,-1
1528873506785078,0,-3,-2,0,-1,-1,0,0
1528873506800059,0,-1,0,0,-2,-1,0,0
1528873506800059,1,-2,1,0,0,2,0,0
1528873506806922,-1,-1,-2,-2,-1,0,-1,-1
1528873506806922,1,1,-1,0,0,0,-2,-2
1528873506821911,0,-3,-2,-2,-1,-1,-1,-2
1528873506821911,0,1,1,0,-1,-1,1,1
1528873506837830,-1,-2,-2,0,-1,-1,-1,0
1528873506837830,-1,-1,-1,-1,0,0,0,0
1528873506844973,2,-1,0,0,0,-1,-1,0
1528873506844973,0,0,-1,-1,0,0,-1,-1
1528873506859927,0,0,-3,-1,0,0,-1,-1
1528873506859927,-2,-2,-1,0,1,-1,1,-2
1528873506866909,0,-2,0,0,0,0,-1,-1
1528873506866909,-2,-1,-1,0,0,-1,0,0
