timestamp,emg1,emg2,emg3,emg4,emg5,emg6,emg7,emg8
1529295099038998,-8,-6,-6,-3,-12,18,-5,-5
1529295099038998,-3,-3,-4,-2,-11,-50,-10,-4
1529295099086871,3,2,0,0,3,3,2,1
1529295099086871,1,0,-1,1,3,14,4,1
1529295099088865,0,0,-2,-2,2,-14,-1,0
1529295099088865,-1,-2,-3,-4,-1,-3,-2,2
1529295099088865,-6,-3,-6,-5,-1,-4,-9,-20
1529295099088865,7,-2,-3,2,3,2,4,4
1529295099091858,-8,0,-5,1,3,7,6,-4
1529295099091858,2,4,15,7,3,1,-15,-5
1529295099098840,0,1,4,-4,-5,-4,0,1
1529295099098840,-2,2,0,1,-3,0,2,-1
1529295099107816,2,-2,-5,-2,-16,-7,-12,-4
1529295099107816,-2,-10,-11,-5,7,4,8,3
1529295099114811,0,-3,-1,-1,-16,-1,2,3
1529295099114811,-2,1,1,-3,17,6,-1,-4
1529295099129755,-3,-5,-3,-6,-10,-10,0,1
1529295099129755,1,3,0,0,-5,-4,-5,-2
1529295099135739,1,2,4,3,14,0,1,6
1529295099135739,-3,-1,0,-1,-19,-5,0,-3
1529295099143719,2,4,5,7,17,7,-3,-1
1529295099143719,1,0,-3,-2,7,4,3,-1
1529295099159676,1,-1,-3,-2,-8,0,-4,-2
1529295099159676,-3,-1,-3,-1,-3,-6,-2,-5
1529295099166657,2,2,0,-8,6,8,4,5
1529295099166657,-2,-1,-17,-32,-2,-2,3,0
1529295099175635,-2,1,12,24,-2,-8,0,2
1529295099175635,0,3,13,10,6,-2,-2,2
1529295099189597,7,-5,1,15,37,7,5,7
1529295099189597,-11,-2,-1,-3,-58,-11,-9,-10
1529295099196579,0,-4,-16,-22,-2,0,-4,0
1529295099196579,-3,-2,-2,-4,6,-2,-3,2
1529295099203597,2,2,5,3,-2,1,4,-1
1529295099203597,0,1,-4,2,31,8,2,0
1529295099218556,-1,-2,-2,-1,-21,7,0,-1
1529295099218556,1,-1,2,9,12,-10,-6,7
1529295099226497,-1,-1,-4,-7,-4,-10,-10,-13
1529295099226497,2,2,7,13,8,-3,1,-1
1529295099235474,5,-1,-4,-6,16,2,-1,3
1529295099235474,-11,-2,-2,-10,-26,1,-5,-5
1529295099249471,-4,-2,0,-1,-8,24,6,0
1529295099249471,5,-1,3,8,21,-11,-2,2
1529295099257414,-5,0,8,14,21,6,4,-3
1529295099257414,0,-7,-13,-16,-3,14,6,3
1529295099263399,0,1,-12,-9,-18,-13,-7,-1
1529295099263399,0,8,31,7,-43,5,11,5
1529295099278359,-4,-6,1,12,28,23,4,-6
1529295099278359,-1,-3,-6,-6,29,8,-2,-6
1529295099286338,-6,0,-4,0,-12,-9,-9,-4
1529295099286338,3,0,-8,1,11,10,0,5
1529295099295314,-2,3,-3,-17,-5,-12,2,4
1529295099295314,4,0,2,1,-17,-5,0,-5
1529295099309314,-6,-2,0,-3,-3,2,4,3
1529295099309314,-2,-1,-4,-2,14,12,6,1
1529295099316296,-1,1,0,4,-6,-5,-2,4
1529295099316296,-2,-2,-3,1,16,-11,-8,-2
1529295099323239,19,4,9,13,-3,1,2,3
1529295099323239,-22,-1,-3,-5,11,2,-1,-7
1529295099338198,-2,1,-5,-7,-8,2,-1,-1
1529295099338198,3,-3,-3,7,-9,-13,3,2
1529295099346178,1,10,40,18,19,5,7,6
1529295099346178,2,-1,-3,-5,5,10,-6,-3
1529295099361137,1,-1,9,19,9,-13,-5,-3
1529295099361137,-3,-2,-6,-8,-24,12,8,0
1529295099369116,1,-2,-9,9,25,-11,-6,-3
1529295099369116,8,-3,-3,-11,-11,-10,-4,2
1529295099376097,-15,1,-8,-20,-7,1,0,-4
1529295099376097,7,5,9,18,18,-2,-2,0
1529295099384077,-10,-8,-13,-11,-17,-3,-3,-1
1529295099384077,4,0,2,6,-10,-11,0,-1
1529295099399040,2,-1,-2,-15,2,-7,0,4
1529295099399040,-1,-2,-2,-12,-6,8,1,0
1529295099406018,-4,-1,0,2,-19,-25,-14,-4
1529295099406018,0,0,-4,-19,-4,-4,-3,-3
1529295099414993,4,-2,-1,17,11,1,0,3
1529295099414993,-3,2,-6,-10,13,1,-3,-5
1529295099428956,0,1,1,5,-13,6,1,2
1529295099428956,2,-8,-9,-7,-17,-4,-1,1
1529295099435938,-2,-2,-6,-5,-12,-1,3,-4
1529295099435938,11,-3,4,-3,-8,11,-3,10
1529295099443921,-6,2,-1,0,-2,-6,-2,-16
1529295099443921,-9,-3,2,8,10,7,-2,1
1529295099458877,1,0,4,2,3,-3,0,-2
1529295099458877,-7,-7,-13,-2,-10,-10,-3,-5
1529295099465858,6,-3,4,1,6,12,6,6
1529295099465858,8,7,-2,-7,8,-14,-5,2
1529295099474834,-2,-2,0,-1,-7,13,0,-3
1529295099474834,-1,2,1,4,7,-10,3,1
1529295099488796,-2,0,12,5,-1,0,-4,-1
1529295099488796,-4,-7,-17,5,1,12,4,-1
1529295099495777,1,1,9,0,-16,13,9,5
1529295099495777,1,7,8,22,19,-16,-9,-2
1529295099503756,-5,-6,-18,-11,-24,11,6,0
1529295099503756,0,2,14,-4,23,10,7,-3
1529295099518716,5,-2,-11,-13,-40,1,-1,1
1529295099518716,-2,2,5,3,25,12,7,0
1529295099525698,-1,-3,-11,-15,3,8,1,0
1529295099525698,2,-4,-9,-1,-3,-9,-5,0
1529295099534675,-1,-1,6,15,8,-2,-5,-3
1529295099534675,10,2,-2,-15,-5,-5,0,-1
1529295099549633,-14,-3,-5,3,-23,-16,-4,-1
1529295099549633,-4,-2,1,13,11,6,3,-1
1529295099555617,0,6,-1,-20,13,-5,-1,2
1529295099555617,-4,0,4,10,-14,-2,-4,-1
1529295099563597,3,-1,0,0,33,3,0,-2
1529295099563597,-3,-6,-9,-9,-27,-4,2,-3
1529295099578557,-1,0,-5,4,11,-12,-8,4
1529295099578557,-1,2,5,-7,-7,2,-3,-10
1529295099586534,11,3,-5,-15,4,1,1,4
1529295099586534,1,0,4,1,-2,-8,-4,-4
1529295099595510,-3,-7,-11,12,5,0,-1,-1
1529295099595510,14,0,6,-9,-14,-11,1,8
1529295099609474,-27,-1,-3,-8,13,3,3,-3
1529295099609474,3,0,11,42,12,0,0,-1
1529295099616455,6,9,11,-1,-2,-7,0,-3
1529295099616455,-5,3,10,-5,-23,-5,-6,-3
1529295099623470,0,-7,-4,-5,0,3,-2,0
1529295099623470,-4,-7,-5,-7,1,-6,-10,1
1529295099638397,-6,-3,-4,0,15,2,8,-1
1529295099638397,9,-2,-4,2,13,-2,-5,3
1529295099646374,-5,2,3,-7,-2,5,-2,-2
1529295099646374,-4,2,-2,-2,-9,-3,1,0
1529295099655352,5,0,-4,-3,15,-7,-5,0
1529295099655352,-9,-3,-4,7,9,3,3,5
1529295099669986,7,0,3,-6,-3,-9,-2,0
1529295099669986,0,-2,3,4,-4,0,0,-2
1529295099676481,24,-1,1,-2,-4,-1,-2,5
1529295099676481,-28,-1,-2,1,-21,1,-4,-6
1529295099692436,0,-3,-8,-6,-15,11,7,0
1529295099692436,2,4,3,-3,10,-10,0,5
1529295099698511,-1,-2,0,-4,-16,-5,-7,-15
1529295099698511,-2,-4,-14,-6,12,3,3,0
1529295099706741,2,-3,-10,-12,7,-7,3,0
1529295099706741,4,6,23,19,-27,8,3,3
1529295099715412,-5,-1,-8,-4,5,-2,-2,-2
1529295099715412,3,-4,1,2,15,-3,2,-2
1529295099729373,-3,-1,4,8,-5,-5,-6,2
1529295099729373,4,2,-6,-10,-8,5,4,-3
1529295099736356,-4,1,5,4,-1,1,-1,2
1529295099736356,-4,-2,-6,3,25,14,6,-3
1529295099752313,16,-1,-4,-1,-23,0,-3,2
1529295099752313,-14,2,10,-3,12,-9,-4,-2
1529295099758633,-5,-1,-2,-1,3,-2,-4,-1
1529295099758633,-1,-3,-6,-2,-4,0,3,1
1529295099766537,5,2,10,-10,-3,6,4,0
1529295099766537,0,-2,-16,-5,4,-6,-4,0
1529295099774860,-3,4,4,-8,8,13,2,1
1529295099774860,-1,-2,6,4,-11,-14,-11,-3
1529295099789822,-3,-4,2,18,3,9,2,-1
1529295099789822,2,6,14,14,4,1,1,1
1529295099795807,-3,-4,-6,-14,-27,-18,-7,-1
1529295099795807,2,2,1,2,29,7,3,2
1529295099811764,8,-1,-10,-7,-14,-16,-10,1
1529295099811764,-7,-3,-9,-7,9,-7,1,-4
1529295099818976,-2,-3,-3,-1,-2,11,5,8
1529295099818976,-17,2,5,1,-8,-2,5,0
1529295099826895,-5,-1,-3,-1,-37,0,-10,-8
1529295099826895,7,-2,-14,-10,14,8,1,-2
1529295099834703,3,4,26,6,-23,-2,1,2
1529295099834703,0,-6,-5,0,5,13,5,-1
1529295099849664,-6,-1,3,31,14,3,4,-1
1529295099849664,6,7,6,-17,-11,5,4,3
1529295099855679,-2,3,9,11,-19,11,2,-4
1529295099855679,7,-2,-7,8,13,-16,-9,2
1529295099871636,-4,-2,-2,-25,69,-2,-2,-2
1529295099871636,-5,-8,-12,-2,100,-2,-6,-8
1529295099878586,-8,-8,-11,-17,127,-12,-1,-4
1529295099878586,4,0,-5,-5,113,3,0,-2
1529295099886569,-2,-1,-11,-4,127,1,2,3
1529295099886569,0,-1,10,12,56,6,0,-1
1529295099895615,-2,-3,-5,2,-7,-6,-9,-1
1529295099895615,3,1,0,-4,-63,-7,-1,-5
1529295099909503,-5,-2,-10,-13,-83,-2,0,1
1529295099909503,0,-6,-5,2,-70,8,0,-3
1529295099916503,7,5,-7,10,-41,-15,-6,0
1529295099916503,12,13,13,-1,-75,5,3,7
1529295099931458,-6,9,29,10,-73,1,7,-1
1529295099931458,7,-4,-6,5,-117,3,-1,5
1529295099938424,-8,-12,-12,-3,-85,5,-3,-10
1529295099938424,-7,-3,-17,-17,-92,-9,-4,1
1529295099946403,3,6,18,17,-54,9,5,3
1529295099946403,-4,-4,-7,-2,-75,-2,-1,-1
1529295099955380,5,0,-12,1,-33,0,0,1
1529295099955380,1,-1,0,0,-23,10,0,-4
1529295099969343,1,4,9,3,-24,-2,-2,1
1529295099969343,-4,-6,-20,-19,-7,-19,-7,-4
1529295099976324,8,12,18,19,1,-1,11,11
1529295099976324,1,6,15,2,8,-9,-18,-7
1529295099992282,0,-1,8,0,-42,-8,-5,-2
1529295099992282,-2,-1,-8,-15,-15,-10,-2,-8
1529295099998266,-6,-9,-8,23,-12,6,0,4
1529295099998266,5,-2,-1,-24,-25,-7,6,1
1529295100006244,-7,-1,-7,1,-7,-6,-3,-6
1529295100006244,5,1,3,-1,-5,5,-5,2
1529295100021205,-6,-3,-2,-9,11,4,9,5
1529295100021205,1,-1,-1,9,-31,0,-4,3
1529295100029196,-3,-7,-8,1,27,-1,-13,-5
1529295100029196,6,0,-1,-7,-20,-7,1,0
1529295100036165,1,9,21,18,0,2,-6,4
1529295100036165,-9,4,1,-10,-8,-12,-7,-21
1529295100052122,7,-5,-14,-20,4,-4,0,0
1529295100052122,-3,7,16,20,-9,-6,-3,-1
1529295100059103,-4,-9,-13,-28,10,-11,-7,-5
1529295100059103,10,-13,-16,6,-5,10,10,5
1529295100074063,9,10,-7,-2,-4,4,5,-6
1529295100074063,-43,8,38,11,33,11,6,25
1529295100081045,36,4,-7,-10,-29,-7,2,4
1529295100081045,-24,-7,-10,-3,14,4,-3,-2
1529295100089023,3,-10,-19,-9,15,2,-3,2
1529295100089023,0,-1,-2,-4,-5,0,-2,-7
1529295100097999,-1,-1,6,14,-10,-15,-3,-7
1529295100097999,0,-3,-14,-29,12,3,3,7
1529295100111962,1,2,11,13,14,-4,3,0
1529295100111962,4,0,-7,-13,5,4,-1,-6
1529295100118952,5,-3,2,2,-4,5,1,2
1529295100118952,-18,-1,0,10,0,0,0,-11
1529295100133903,-4,1,3,4,10,5,12,16
1529295100133903,21,-1,-4,6,17,13,-6,-18
1529295100140884,2,4,-1,-7,15,-7,-5,6
1529295100140884,1,-4,6,11,7,-2,1,-11
1529295100157839,7,-2,4,0,-8,6,0,9
1529295100157839,-10,-1,-8,2,-5,-1,7,3
1529295100158853,4,1,-3,-2,1,7,3,-3
1529295100158853,10,5,14,5,1,-2,0,10
1529295100171800,-10,0,3,3,-19,-4,-2,-7
1529295100171800,20,0,-11,-1,52,-3,-1,0
1529295100178060,-17,-6,-5,-10,-17,9,0,-6
1529295100178060,2,2,4,9,1,-4,2,5
1529295100194576,2,0,-2,1,-5,0,-6,-7
1529295100194576,14,3,2,6,27,-28,-13,5
1529295100201544,-12,-4,-10,-17,10,10,1,2
1529295100201544,-40,-6,-7,0,4,-4,-2,-27
1529295100217807,9,0,4,12,2,10,5,28
1529295100217807,1,0,-2,-9,-2,9,6,9
1529295100218844,-17,-1,5,0,-7,-10,-8,-13
1529295100218844,27,1,-9,-3,-12,11,13,7
1529295100231151,-17,-7,-4,-1,15,-16,-25,-30
1529295100231151,-8,4,3,8,21,11,5,14
1529295100240141,27,1,-8,-15,-53,-11,3,-17
1529295100240141,-45,0,4,4,19,2,-5,10
1529295100255112,1,-3,-10,-3,-10,6,11,-6
1529295100255112,-7,-6,-8,-14,-15,-3,2,-8
1529295100261215,9,-5,-5,9,5,16,3,3
1529295100261215,11,9,7,-21,3,1,2,-3
1529295100277609,2,1,6,-1,-28,-15,-3,14
1529295100277609,14,-6,-13,4,-18,2,-1,-13
1529295100279304,-34,-8,-6,-4,28,-10,-1,1
1529295100279304,14,1,4,13,2,-7,-2,9
1529295100291617,-7,2,-5,-12,20,-7,2,3
1529295100291617,8,-4,-23,-23,-27,2,-2,-3
1529295100300599,-1,15,54,12,0,-9,-7,-4
1529295100300599,9,-1,-11,25,-9,-17,-8,0
1529295100314938,6,2,16,-8,-16,10,6,-5
1529295100314938,-6,-2,1,15,50,11,2,-5
1529295100321930,-2,2,-12,-5,10,4,0,4
1529295100321930,2,-4,-7,-21,-16,8,2,11
1529295100336532,-4,-5,-2,13,4,10,6,-16
1529295100336532,19,0,-3,1,-6,-7,-3,12
1529295100337498,-23,-10,-15,-15,8,5,-5,-16
1529295100337498,27,0,13,9,-20,12,5,19
1529295100366976,-37,-5,-11,-11,11,-15,-11,-20
1529295100366976,-7,-3,10,-1,-29,4,6,-2
1529295100367707,7,3,-2,8,9,-5,0,4
1529295100367707,8,-1,-3,3,23,8,2,0
1529295100375934,12,5,12,-1,-40,-20,-4,0
1529295100375934,-14,1,-2,-11,1,5,0,1
1529295100380891,0,1,13,33,-5,13,8,-2
1529295100380891,0,0,-2,-21,8,-19,-17,-10
1529295100396849,8,0,-7,0,25,14,11,12
1529295100396849,-8,6,9,5,0,-31,-21,-9
1529295100397845,0,-13,-31,-22,7,-8,-7,3
1529295100397845,2,-1,11,29,5,-1,2,-8
1529295100419070,5,2,-1,-10,10,-2,-1,2
1529295100419070,-2,0,10,11,-4,5,4,2
1529295100420071,-2,-3,-11,-3,10,2,4,-1
1529295100420071,6,6,4,-17,4,-6,2,3
1529295100436445,-4,-4,-2,9,18,11,-1,-1
1529295100436445,-9,-7,-10,-17,-16,4,0,-3
1529295100441668,-8,-8,-9,-21,-4,-7,-6,-15
1529295100441668,4,1,8,39,26,7,8,22
1529295100457561,10,3,-26,-19,-42,10,3,1
1529295100457561,16,20,46,14,5,3,6,4
1529295100457561,6,8,10,6,-5,5,3,23
1529295100457561,-30,-8,-1,-21,-15,5,-3,-30
1529295100479357,1,-5,-10,4,15,-6,-10,-7
1529295100479357,-1,-8,-17,6,3,-6,-1,8
1529295100480324,3,1,5,2,8,4,4,8
1529295100480324,15,1,-5,-11,-26,-16,-8,4
1529295100495589,-29,-4,1,5,16,3,1,0
1529295100495589,0,-2,-3,-2,-4,-3,-2,-2
1529295100501577,6,8,2,0,-16,2,2,3
1529295100501577,-1,2,1,-14,-1,-12,1,1
1529295100516957,6,-3,2,6,6,-2,-6,-5
1529295100516957,-2,4,29,17,-12,-5,-1,1
1529295100517955,-7,-7,-19,8,7,-3,-3,-7
1529295100517955,-3,-1,6,-23,-18,0,-1,-6
1529295100540146,10,5,-6,3,3,0,1,6
1529295100540146,3,-2,3,-9,-2,5,3,-3
1529295100540146,-16,9,24,18,3,4,0,-4
1529295100540146,7,-2,-3,3,10,6,2,3
1529295100555070,-3,-4,-3,-6,7,-10,0,4
1529295100555070,5,-2,-10,0,-7,-2,0,-1
1529295100560836,-4,-5,-6,-14,-2,-5,-4,2
1529295100560836,22,-5,-2,6,5,7,0,-25
1529295100577034,-30,-1,-8,0,0,-6,-5,18
1529295100577034,-3,-3,-16,-12,-9,-6,-2,-14
1529295100577791,2,3,21,4,1,3,0,4
1529295100577791,-2,-7,1,-1,4,2,-6,1
1529295100599535,11,-11,-42,5,12,-1,-3,-6
1529295100599535,18,5,-33,-6,17,-18,4,11
1529295100600271,-7,29,61,8,-4,10,-11,-1
1529295100600271,1,26,52,30,18,2,4,9
1529295100615289,6,-5,13,-8,-14,-5,-2,-4
1529295100615289,-11,-16,-15,-4,18,4,1,-2
1529295100621262,-3,-33,-61,-28,-39,-9,2,-8
1529295100621262,-15,-14,-17,12,10,5,1,-2
1529295100637529,13,10,-9,-13,-4,4,2,4
1529295100637529,4,14,32,5,4,8,0,-10
1529295100637529,27,-3,12,10,9,-6,3,18
1529295100637529,-44,3,0,-2,-12,-8,-9,-18
1529295100652480,15,3,7,5,10,-3,6,11
1529295100652480,-16,-8,-11,6,12,-3,-1,0
1529295100658769,27,1,-8,-13,9,-3,1,-7
1529295100658769,-10,-9,-17,-13,-35,-6,-3,13
1529295100674338,-4,-4,-3,0,-14,6,-5,-15
1529295100674338,-12,1,5,-3,-9,0,-4,-9
1529295100681306,-8,0,1,8,10,5,7,-24
1529295100681306,38,-7,-24,-6,-15,0,6,51
1529295100696334,-46,2,18,-1,3,3,-2,-14
1529295100696334,-1,-2,7,5,23,22,2,2
1529295100698287,-9,-7,-16,-5,-28,-13,-10,-2
1529295100698287,14,2,-14,-14,26,5,0,-14
1529295100719570,2,1,15,9,-12,-20,-4,-4
1529295100719570,5,-2,-8,-3,-25,0,-11,16
1529295100720794,-31,-1,-17,-7,15,4,0,-21
1529295100720794,3,6,19,5,14,2,3,-3
1529295100735085,16,1,12,8,0,0,0,12
1529295100735085,-7,0,-1,-2,-20,-4,0,-12
1529295100741337,3,13,10,7,14,2,9,13
1529295100741337,-8,-4,-3,5,10,-23,-19,-5
1529295100757438,9,-3,1,-1,25,10,5,11
1529295100757438,-5,-8,-16,-11,-25,-14,-2,-5
1529295100757438,11,4,-2,-28,-3,-41,-22,8
1529295100757438,-3,4,8,23,13,22,15,-3
1529295100779273,2,-3,-5,10,-2,-1,2,-9
1529295100779273,-5,-5,-7,-22,2,4,3,4
1529295100780285,21,1,12,27,9,13,10,7
1529295100780285,-34,-10,-17,-7,1,13,9,-9
1529295100794957,1,-3,-5,-18,-17,-1,-3,-6
1529295100794957,23,1,3,7,-7,4,3,8
1529295100801869,-55,-6,-5,-2,-9,7,-3,-16
1529295100801869,7,-1,-10,-5,17,3,0,-3
1529295100816926,7,3,6,2,-5,17,6,4
1529295100816926,-9,-1,-4,-10,-1,-15,4,-6
1529295100817702,13,2,17,6,-25,16,7,3
1529295100817702,2,-3,-2,23,-6,-2,-7,2
1529295100840921,-5,2,2,-8,13,-18,-6,-7
1529295100840921,0,2,2,-14,23,4,-3,1
1529295100841919,40,5,-7,-3,-16,-20,-7,14
1529295100841919,-44,-7,-8,-20,-14,-13,-3,-3
1529295100854953,-2,-3,-7,2,-3,2,-1,-10
1529295100854953,-5,-6,-4,7,7,13,0,-4
1529295100860867,-5,-1,2,6,5,14,10,5
1529295100860867,21,3,-3,-9,-2,-6,-8,-3
1529295100877193,5,2,4,-2,-4,-11,-2,4
1529295100877193,-17,-2,2,9,5,-7,-6,-2
1529295100877823,5,-3,-6,-2,12,18,2,-6
1529295100877823,6,-2,-10,-25,-17,-8,-1,-1
1529295100900032,-3,-4,5,11,-10,10,3,-3
1529295100900032,4,2,9,41,15,-5,-4,0
1529295100900032,2,8,7,-37,5,-5,1,5
1529295100900032,7,6,34,45,8,5,-3,-5
1529295100921970,3,2,-9,-24,7,2,1,4
1529295100921970,7,-3,-3,-1,-10,3,-1,2
1529295100922703,-17,-8,-15,3,-1,-4,-4,-13
1529295100922703,1,0,-4,-2,13,7,4,12
1529295100935973,4,-1,4,2,-4,5,3,-2
1529295100935973,-3,3,0,-5,-14,-12,1,0
1529295100944417,-6,-7,-9,5,22,2,-6,-2
1529295100944417,0,2,-2,-13,-6,-7,1,-5
1529295100959487,5,2,2,15,2,-1,-2,6
1529295100959487,0,1,9,-1,-4,0,0,-4
1529295100960223,-1,-3,-1,-1,4,5,1,6
1529295100960223,0,-3,-5,1,-15,-3,-2,-4
1529295100975718,-4,-1,-11,-9,1,1,0,-2
1529295100975718,4,5,19,1,19,5,2,3
1529295100981448,4,-1,7,11,-8,-2,2,1
1529295100981448,1,0,-1,-1,-2,2,2,0
1529295101004419,1,-1,-2,-4,1,-2,-1,-4
1529295101004419,-3,-4,-5,-6,-6,-4,1,0
1529295101005418,-2,-2,-5,11,5,0,-2,2
1529295101005418,0,-3,-10,-13,0,2,0,-4
1529295101019326,-7,1,7,3,0,0,1,0
1529295101019326,-5,-2,-7,-3,-10,5,8,-14
1529295101020570,-3,-3,-6,0,9,-2,-1,20
1529295101020570,4,-2,-3,-3,0,-10,-30,8
1529295101035293,3,1,6,1,18,1,10,8
1529295101035293,1,-2,-1,0,21,-4,-18,0
1529295101041280,0,-1,-3,-2,34,-7,-9,-17
1529295101041280,-2,-1,1,-2,3,0,8,-1
1529295101056832,-1,-1,3,4,18,-2,6,8
1529295101056832,-2,0,-3,-7,23,7,-2,-2
1529295101063487,0,-1,1,3,35,6,-2,21
1529295101063487,0,-1,0,12,-33,-1,-8,-5
1529295101079445,-2,-3,-2,-22,-60,-9,-22,-9
1529295101079445,-3,2,0,6,-43,10,34,-26
1529295101080444,5,0,-1,12,1,-4,-30,22
1529295101080444,-1,0,0,-3,-42,-1,14,31
1529295101095403,4,3,5,8,24,3,29,-2
1529295101095403,-4,-2,-3,-17,-97,-20,-52,-34
1529295101109606,-1,0,0,-18,-52,8,15,-21
1529295101109606,-3,-3,-1,16,7,-1,-1,-6
1529295101116609,-2,-2,-2,6,28,-4,-4,-7
1529295101116609,0,-3,-2,3,57,10,6,51
1529295101124329,-2,1,-1,-3,6,-2,54,-3
1529295101124329,-3,-2,-2,-12,-6,1,12,14
1529295101140162,2,5,3,-7,-3,0,-10,-17
1529295101140162,-1,-4,-4,2,25,-4,-2,10
1529295101140162,-6,-5,0,1,-12,-1,-12,-5
1529295101140162,5,2,-1,-7,2,4,11,-13
1529295101155159,-2,-3,4,8,2,-1,-7,12
1529295101155159,-1,4,-2,-3,-7,-3,-2,-9
1529295101161466,-1,1,4,8,13,2,-6,-10
1529295101161466,4,-1,-2,0,16,-2,-7,-9
1529295101176041,-3,5,-4,-15,-51,-8,-12,-8
1529295101176041,-1,-6,-1,-2,-6,-1,27,29
1529295101183986,0,-2,-2,-1,-7,-4,-20,-39
1529295101183986,-1,-3,0,2,24,-1,-11,-2
1529295101201919,0,0,-1,3,6,9,26,25
