timestamp,emg1,emg2,emg3,emg4,emg5,emg6,emg7,emg8
1528442045201347,-1,-1,-1,-1,-1,-1,1,-2
1528442045201347,-1,-2,1,0,-1,-1,0,-1
1528442045203341,0,0,-1,-1,0,-1,1,-1
1528442045203341,-2,0,0,-1,-2,-1,-1,-1
1528442045203341,-1,-2,0,-1,-2,-1,0,-2
1528442045203341,-1,0,-1,-1,-1,-1,-1,1
1528442045207363,-1,-1,-1,-1,0,0,0,-1
1528442045207363,-1,-1,-2,-1,0,-1,1,-1
1528442045214359,1,0,-2,-1,-1,1,0,0
1528442045214359,-1,0,-1,-1,0,1,0,-3
1528442045224286,0,-2,-2,0,1,0,-1,-1
1528442045224286,0,-2,0,0,0,0,-2,-3
1528442045228275,-1,-1,0,-1,-1,0,-2,0
1528442045228275,0,-1,-2,-1,-1,-1,-2,1
1528442045243268,-2,0,-2,-2,-2,0,-1,2
1528442045243268,-1,0,0,-1,0,1,0,0
1528442045252210,-1,0,0,-2,-1,-1,0,0
1528442045252210,-2,0,-1,-2,-1,-2,0,-2
1528442045260189,-1,-1,-1,-2,-1,-2,-2,-2
1528442045260189,-1,0,-1,-2,0,0,-1,0
1528442045274151,0,0,-1,0,-1,-1,0,-1
1528442045274151,0,1,-1,0,-2,-2,2,0
1528442045288114,0,-1,0,1,-1,-2,0,0
1528442045288114,0,-2,-2,-2,-1,-1,1,0
1528442045321053,-1,0,0,-1,0,0,0,0
1528442045321053,-2,0,0,-1,1,0,-1,-1
1528442045322051,-1,-1,0,0,1,0,-3,-2
1528442045322051,-2,-1,0,-2,1,-1,-1,-1
1528442045324020,-2,-2,-1,-1,-1,-1,-1,0
1528442045324020,-3,-2,-2,-2,-1,0,-2,0
1528442045328007,-1,-1,0,-1,-2,-2,0,1
1528442045328007,1,0,0,-1,0,0,-1,-2
1528442045333992,1,-1,-2,0,-1,0,-2,-2
1528442045333992,0,0,-2,-1,-1,-1,1,-1
1528442045340973,-1,1,0,0,-3,-2,1,-2
1528442045340973,0,-2,0,-2,0,-1,2,1
1528442045347955,-2,0,-1,-1,0,-2,1,2
1528442045347955,0,1,0,0,0,-2,1,-1
1528442045363913,-1,-1,-1,0,-2,-1,0,-1
1528442045363913,-2,-2,0,-1,-2,-1,0,1
1528442045370894,-2,0,1,-1,-2,-1,0,-2
1528442045370894,0,-1,0,-2,-2,0,2,-3
1528442045379868,-1,0,-1,-2,-1,-1,1,-1
1528442045379868,-3,-1,-1,0,-1,-2,2,-4
1528442045393831,1,-2,0,-1,0,-2,2,-1
1528442045393831,1,-2,-1,0,0,-2,1,0
1528442045401810,-1,-1,0,-1,0,1,-1,0
1528442045401810,0,-1,-1,0,-1,1,-1,1
1528442045407803,0,-1,-1,-1,-1,-1,-3,-1
1528442045407803,1,1,-2,1,-1,-1,0,-1
1528442045422755,-1,-1,0,-2,0,-3,-1,0
1528442045422755,-1,-1,-1,0,0,0,-6,-1
1528442045430734,0,-1,-1,1,0,-1,-3,0
1528442045430734,-1,-1,-1,0,-1,0,-6,-1
1528442045439710,0,1,0,0,0,1,-3,-1
1528442045439710,1,-1,-2,0,-1,-3,-2,-1
1528442045453672,-1,-1,-1,-1,1,0,0,0
1528442045453672,-2,-1,-2,-1,-1,0,-1,0
1528442045460653,-1,-1,-2,1,0,2,0,-1
1528442045460653,-2,0,0,-1,-1,1,-2,-2
1528442045468633,1,-2,1,0,-2,1,-2,-2
1528442045468633,0,-1,1,-2,-1,-1,-2,1
1528442045482595,0,-1,1,-1,-2,-1,0,-2
1528442045482595,0,0,0,0,-2,-2,0,-1
1528442045490573,-1,1,-1,0,0,0,0,0
1528442045490573,-2,-1,1,0,0,0,-2,-2
1528442045505559,-1,-1,-1,-1,0,0,-3,-3
1528442045505559,0,0,2,-1,0,-1,-1,-4
1528442045513557,-3,-1,1,0,0,-1,-1,-4
1528442045513557,0,0,-1,0,-1,0,1,-4
1528442045520540,2,-1,-1,-1,0,0,-1,-1
1528442045520540,-2,0,-1,0,0,0,2,2
1528442045536450,1,1,-1,-2,-2,1,16,1
1528442045536450,1,-2,1,1,-1,-1,42,0
1528442045543431,0,-1,-1,0,1,-1,65,-2
1528442045543431,0,0,-1,-1,1,0,89,0
1528442045550413,2,1,-1,0,0,0,82,2
1528442045550413,-2,0,-1,0,-1,-1,44,4
1528442045565373,-3,-1,0,0,0,1,9,4
1528442045565373,-1,-1,-1,-2,0,0,-26,2
1528442045573378,-2,-1,-1,-1,0,-1,-40,-1
1528442045573378,1,0,0,-1,-1,-1,-42,-1
1528442045580333,0,0,-1,0,0,0,-46,0
1528442045580333,0,0,-1,1,-2,-1,-45,2
1528442045596343,2,-2,0,-1,-1,-1,-41,-1
1528442045596343,0,1,-1,0,0,-1,-35,-1
1528442045603273,1,-1,-1,0,0,0,-28,-1
1528442045603273,2,-1,-1,-2,-2,0,-21,-2
1528442045610254,0,0,-1,-1,0,-1,-19,-2
1528442045610254,-2,-2,-1,0,0,0,-16,-1
1528442045627208,0,0,-1,-1,0,-1,-11,-1
1528442045627208,-1,-1,-1,-1,-1,-1,-7,0
1528442045634190,-1,-1,0,0,-1,0,-7,0
1528442045634190,-1,-1,1,-2,-1,0,-6,-2
1528442045640194,-1,0,-1,0,0,-1,-2,1
1528442045640194,0,-1,2,1,0,-1,-5,1
1528442045656132,0,-1,0,0,0,-1,-5,0
1528442045656132,2,-2,-1,-1,0,-1,-2,1
1528442045663114,0,0,-2,0,-1,0,-1,-3
1528442045663114,-1,1,1,0,-1,-3,-2,-2
1528442045670104,-1,-1,-1,0,-1,0,0,-1
1528442045670104,2,0,0,0,-1,-1,-1,-2
1528442045686051,-1,-2,1,-2,0,-1,0,1
1528442045686051,0,-1,-1,-1,-1,-1,-1,-1
1528442045694029,-2,1,-2,1,-1,0,0,0
1528442045694029,-2,0,-1,-2,0,0,-1,0
1528442045701012,-1,-1,-2,-1,-2,-2,-2,-1
1528442045701012,-2,-1,-2,-1,1,0,1,0
1528442045708019,0,-2,-1,-3,-1,-1,0,0
1528442045708019,-1,-1,1,0,-2,0,-1,-1
1528442045722953,-1,0,-1,0,-1,-2,0,0
1528442045722953,0,-1,-2,0,0,-2,-1,-1
1528442045730932,0,-2,0,-1,0,-1,0,-1
1528442045730932,1,0,-2,-1,0,-2,-1,0
1528442045745891,-1,-1,0,-1,-1,-2,0,-2
1528442045745891,-1,-1,-1,0,0,1,0,-1
1528442045753869,-1,-1,-1,-2,-1,0,-3,-1
1528442045753869,-2,0,0,-2,-1,-1,0,0
1528442045760851,-1,-2,-1,-2,0,0,1,-1
1528442045760851,-2,-2,0,0,0,-1,0,1
1528442045775810,-2,1,1,0,-2,-1,0,-2
1528442045775810,-2,1,-2,1,-1,-1,0,0
1528442045782820,1,1,1,-1,-3,-1,1,-2
1528442045782820,1,1,0,1,-1,1,0,-1
1528442045790807,0,0,-1,0,0,-1,1,-1
1528442045790807,0,-2,0,0,-1,0,1,0
1528442045805771,1,-1,-2,-1,-1,0,0,1
1528442045805771,0,-1,-1,0,-2,1,-1,-1
1528442045813730,-1,0,1,0,-1,-1,0,-1
1528442045813730,-2,-1,-1,0,1,0,0,0
1528442045820734,-2,0,-4,1,-1,-1,0,-1
1528442045820734,-1,0,1,-3,0,0,0,-1
1528442045852608,-2,1,-1,1,0,0,1,-1
1528442045852608,-2,1,-1,-1,-1,-1,1,-1
1528442045854603,0,-1,0,0,0,-1,0,1
1528442045854603,0,-1,0,-1,0,-1,1,-1
1528442045855598,-1,-1,-1,-1,0,0,-1,-1
1528442045855598,-2,-1,0,-1,0,0,1,-1
1528442045874547,-2,-2,2,0,-1,0,-1,-1
1528442045874547,-1,0,0,-1,1,-1,-1,-1
1528442045875795,0,-2,0,0,0,0,1,0
1528442045875795,0,0,1,-1,-1,0,1,0
1528442045880780,0,1,0,-1,0,-1,0,-1
1528442045880780,0,-1,-1,0,-1,0,0,0
1528442045895754,0,-1,0,0,-1,0,-1,0
1528442045895754,0,-1,-1,-1,-1,0,0,-1
1528442045911694,0,0,1,-1,-1,-2,0,-1
1528442045911694,-2,0,-1,0,0,-2,-2,-1
1528442045912685,0,-1,-1,0,0,-1,0,1
1528442045912685,-1,-1,-1,1,0,-1,-2,-1
1528442045934387,-3,0,-2,-2,0,1,0,2
1528442045934387,0,1,-2,-3,-1,-2,0,-1
1528442045935385,0,1,0,-1,-1,0,0,-1
1528442045935385,1,-2,1,-2,-1,-2,0,-1
1528442045940626,0,-1,1,-2,-1,-1,0,1
1528442045940626,0,0,0,0,0,-1,0,0
1528442045956565,-1,0,0,-1,-2,-1,-1,-3
1528442045956565,-1,-1,-1,-2,0,0,-2,-1
1528442045962839,0,-1,-2,1,0,0,-2,-1
1528442045962839,2,0,-2,-1,-1,-1,0,1
1528442045970601,1,1,0,-1,-1,-1,-3,-1
1528442045970601,-1,-1,-3,0,0,0,0,0
1528442045985562,0,-1,0,-1,-1,0,0,-2
1528442045985562,0,-1,1,1,-1,1,-1,-1
1528442045994537,-2,1,0,-1,-1,-2,-1,-1
1528442045994537,0,1,1,-1,-1,0,-1,-1
1528442046000949,-2,-2,1,1,0,-2,0,-1
1528442046000949,0,-1,0,-1,0,0,-1,0
1528442046017085,0,-3,-1,-1,0,-1,-1,0
1528442046017085,1,0,0,-1,-1,-2,0,1
1528442046023902,0,1,0,-1,-1,1,-2,-1
1528442046023902,-1,-1,-1,-1,0,0,1,-3
1528442046031048,-1,-2,-1,-2,-1,-1,-1,-1
1528442046031048,-2,-4,-1,0,0,1,-2,0
1528442046045648,-1,-1,-1,-2,1,-1,-1,-1
1528442046045648,-2,-2,-1,-2,-1,-1,-1,0
1528442046053872,-1,0,-1,-1,1,0,-1,1
1528442046053872,0,0,-2,0,0,-1,0,0
1528442046060856,0,0,-2,-1,-1,0,0,0
1528442046060856,-1,-1,-1,1,0,1,-3,-1
1528442046076565,-1,1,0,-2,0,0,0,-2
1528442046076565,-1,-1,-1,-1,-1,0,0,-3
1528442046083793,0,0,0,0,0,0,-2,-3
1528442046083793,1,1,-1,-1,1,-2,-2,-2
1528442046090786,0,-1,-1,1,0,0,-1,0
1528442046090786,-2,0,-1,-1,0,-1,0,-1
1528442046106061,0,0,-1,-1,1,0,0,1
1528442046106061,0,-2,-1,0,-1,-1,0,-1
1528442046113771,2,-1,0,-3,-1,0,0,-2
1528442046113771,-1,0,-1,-1,-1,-1,-2,0
1528442046120753,-1,0,-2,-1,-2,0,1,-2
1528442046120753,-1,0,-1,-1,-1,0,-2,-2
1528442046136737,-2,-2,-1,-1,1,-1,0,2
1528442046136737,-1,1,-2,-1,-1,-1,1,2
1528442046143693,0,-1,-2,-1,1,0,-1,2
1528442046143693,-1,-1,-2,1,-1,-2,-1,-1
1528442046150930,0,0,-1,0,-1,-1,-1,-1
1528442046150930,0,-1,0,1,-1,0,-1,-3
1528442046165668,-1,-1,0,0,0,-1,-2,-1
1528442046165668,-2,1,0,0,-2,1,0,-1
1528442046173893,-1,-1,-1,0,-2,-1,0,-1
1528442046173893,0,-1,-2,0,-2,-3,-2,-1
1528442046181994,0,0,-1,0,-1,-1,-1,-1
1528442046181994,1,-1,0,-2,0,0,2,1
1528442046196943,-1,-2,0,-1,1,0,0,-2
1528442046196943,-1,-1,-1,-2,0,-1,-1,-1
1528442046202593,-2,-2,-1,2,-1,-3,1,0
1528442046202593,-2,-1,0,0,0,-2,-1,0
1528442046210573,0,1,-2,1,0,0,-1,-2
1528442046210573,-1,-2,0,-1,0,1,-3,-2
1528442046225534,-1,0,-1,0,-1,0,2,0
1528442046225534,-1,-1,1,0,0,1,-1,-2
1528442046233751,-1,-1,-2,0,1,0,0,-2
1528442046233751,-1,-1,0,0,-1,0,-2,0
1528442046242731,0,-2,-3,-4,0,0,2,0
1528442046242731,-1,-1,-1,0,-1,0,-1,2
1528442046255976,-1,-1,-2,-1,-1,-2,-2,-1
1528442046255976,1,0,0,-1,-1,-2,-3,0
1528442046271480,-1,1,1,-1,-1,-1,-1,0
1528442046271480,0,0,-1,-1,1,0,1,-1
1528442046272216,-2,-1,0,-1,-1,-1,1,-1
1528442046272216,-1,0,-3,-1,-1,0,1,-1
1528442046286314,0,-3,0,1,0,-1,-1,-3
1528442046286314,0,0,1,-1,0,0,2,1
1528442046294429,0,0,0,0,0,1,0,0
1528442046294429,-1,-3,-1,0,0,1,1,1
1528442046308695,1,0,0,1,-1,-2,-1,-1
1528442046308695,-1,-1,0,-1,0,-1,-4,-1
1528442046316655,-1,-1,-2,0,-2,0,-1,1
1528442046316655,-1,0,-2,-1,-1,0,1,-1
1528442046331940,-1,-1,-1,-1,-2,-1,-3,-1
1528442046331940,-1,0,-1,0,-2,-2,-1,-1
1528442046331940,0,-2,-1,-2,-1,0,-1,0
1528442046331940,0,0,0,-2,0,-1,1,0
1528442046345584,0,0,0,-1,-1,0,-4,0
1528442046345584,0,-1,1,-2,-2,0,0,0
1528442046353603,0,0,1,-1,-2,-1,-2,0
1528442046353603,-2,-1,-2,-3,0,1,0,-1
1528442046368523,0,-1,-2,-1,0,1,0,-1
1528442046368523,1,-1,-2,-2,-1,0,2,-1
1528442046376541,-1,0,-2,0,-1,-1,-7,-1
1528442046376541,1,0,-1,0,-2,-1,4,2
1528442046391462,-1,0,-1,0,-3,-1,-1,0
1528442046391462,-3,-2,-1,-1,-13,-1,-2,0
1528442046392459,-1,-1,0,0,-67,1,-1,-1
1528442046392459,-2,0,0,1,-74,-1,-2,-1
1528442046405425,0,0,-1,0,-48,-1,-1,1
1528442046405425,0,0,-2,0,-15,-1,1,0
1528442046413403,0,-1,-1,-2,22,2,1,1
1528442046413403,0,-1,0,1,26,-2,-1,-1
1528442046428729,1,-1,1,-1,23,-2,0,0
1528442046428729,-1,0,0,1,22,-2,-2,-2
1528442046436513,0,-1,-2,-2,27,-1,1,-1
1528442046436513,-1,-1,0,0,26,1,-2,-2
1528442046459543,-1,0,-1,1,22,0,-2,-1
1528442046459543,0,0,-2,-1,13,0,-1,0
1528442046460277,1,0,1,-1,14,-2,1,0
1528442046460277,0,-1,0,-2,13,-1,-6,-1
1528442046465528,-1,-2,-1,-2,12,0,3,0
1528442046465528,0,-1,-1,-2,5,1,-1,0
1528442046474243,-1,-1,0,1,3,-1,-1,0
1528442046474243,0,0,-1,0,5,-3,-2,1
1528442046488771,-2,1,0,-2,-2,0,-2,-1
1528442046488771,-1,-2,-2,0,-6,-1,-1,0
1528442046496485,-2,-1,0,-1,-1,1,0,1
1528442046496485,-1,-2,-2,0,-2,0,-1,-2
1528442046511444,0,-1,0,-1,-6,-1,-1,-2
1528442046511444,-3,0,0,1,-5,0,-1,0
1528442046512457,0,-1,0,-2,-2,-3,-1,-3
1528442046512457,-1,-1,0,3,0,1,2,-1
1528442046525407,0,-2,-3,-4,-4,-1,-1,1
1528442046525407,1,-1,-3,0,-3,0,-1,0
1528442046533633,0,-1,1,2,-1,-1,-1,1
1528442046533633,0,0,1,-1,-5,-1,1,-1
1528442046548587,-3,0,-1,-1,-6,-2,-1,-1
1528442046548587,-1,1,0,-1,-5,-1,-1,0
1528442046556322,-2,1,-3,0,-2,-1,-4,0
1528442046556322,-1,-1,1,0,3,0,8,1
1528442046571319,-1,0,2,1,2,0,-3,-1
1528442046571319,0,-1,0,0,2,0,0,-2
1528442046572316,-2,-2,-5,-4,1,0,1,-2
1528442046572316,-1,0,-4,-1,2,-2,-1,0
1528442046585320,-1,-1,-1,-1,3,1,0,0
1528442046585320,-1,-1,-1,1,0,-1,0,-1
1528442046594263,0,-1,-2,1,0,1,-1,1
1528442046594263,-1,-1,0,-3,1,1,-2,0
1528442046608225,-2,-1,-1,2,3,-3,1,-2
1528442046608225,-1,0,3,-2,2,0,0,0
1528442046616203,0,0,-2,-1,2,-3,1,-1
1528442046616203,0,-1,-1,-1,0,-1,-2,0
1528442046631164,-1,-1,-1,1,1,-1,-1,0
1528442046631164,0,-1,0,-2,-1,0,-1,1
1528442046639488,-1,-1,1,3,-1,0,1,0
1528442046639488,-2,0,1,-1,-2,-3,-1,0
1528442046646206,0,0,-2,1,1,0,-1,-1
1528442046646206,-1,0,-2,0,-1,-2,-5,-1
1528442046660365,0,0,0,-2,-1,0,2,1
1528442046660365,1,0,1,0,-1,-2,-3,0
1528442046668340,0,1,-1,-1,-2,2,0,-1
1528442046668340,-1,-2,-1,-1,-2,0,1,0
1528442046683299,-2,-1,-1,1,-2,-1,-1,-3
1528442046683299,-2,0,-2,-1,1,0,1,-2
1528442046690296,0,-2,1,0,-2,0,0,-1
1528442046690296,1,-2,-1,-1,-1,-1,2,0
1528442046699269,-2,0,0,-3,-1,0,1,0
1528442046699269,0,-1,0,0,-3,0,-1,-1
1528442046705271,0,-2,-5,-4,-1,0,-1,0
1528442046705271,-1,0,1,-1,2,0,1,-1
1528442046722196,0,-1,-2,-1,-2,-1,1,0
1528442046722196,-1,-1,-2,-1,0,1,0,-1
1528442046737204,0,-1,0,1,0,0,-1,-1
1528442046737204,-2,-1,-2,-1,0,0,-1,-2
1528442046738205,0,-2,-1,-1,1,-1,-1,-1
1528442046738205,0,0,0,2,1,0,0,0
1528442046750149,-1,-2,-2,-5,-1,0,1,0
1528442046750149,0,-1,0,0,-2,0,0,0
1528442046766113,2,0,0,2,-1,-2,-7,0
1528442046766113,-1,-1,-2,1,-2,0,5,0
1528442046767093,-1,1,3,2,1,-3,0,0
1528442046767093,-1,-1,-4,-4,-1,-2,-1,-1
1528442046781041,-1,-2,1,-1,-1,1,0,-1
1528442046781041,-2,-1,1,2,-2,-1,-3,-3
1528442046788066,1,0,-1,0,0,1,1,-1
1528442046788066,0,-2,0,1,-2,1,1,0
1528442046796996,-1,-1,0,0,-2,0,0,0
1528442046796996,-2,0,-4,-4,-2,-2,0,-1
1528442046810960,-2,1,0,2,-2,-1,0,-1
1528442046810960,0,0,0,-3,-1,-1,-3,0
1528442046827914,-1,0,-2,-1,-2,-1,1,-2
1528442046827914,1,0,0,-1,0,0,-2,0
1528442046828912,-2,1,0,-2,0,0,-1,0
1528442046828912,-1,0,0,0,-1,0,0,1
1528442046840880,0,0,-1,0,0,-1,1,0
1528442046840880,0,1,-1,-2,-1,-1,-1,1
1528442046847861,1,-1,1,1,0,-3,-1,0
1528442046847861,-1,-1,-1,-1,-2,-1,-5,-2
1528442046856837,-1,0,-1,-1,-1,0,6,0
1528442046856837,-1,-3,-5,-5,-1,1,-2,-2
1528442046870800,-1,-1,0,1,-1,-1,-1,-1
1528442046870800,-2,0,-2,0,-1,-1,-2,-1
1528442046879776,1,0,-1,0,-1,-1,-4,0
1528442046879776,1,-1,1,1,-1,-1,0,-2
1528442046885760,-3,-4,-4,-8,-2,0,1,-1
1528442046885760,0,-2,-2,-2,0,0,2,0
1528442046900721,-1,-1,-1,0,-2,0,-2,-1
1528442046900721,-1,0,1,0,-1,0,0,-1
1528442046907701,-1,0,1,2,-1,-1,-2,0
1528442046907701,0,-1,0,1,0,0,0,-1
1528442046916677,-1,-1,-3,-2,0,-2,-1,-1
1528442046916677,-1,-1,1,-1,-1,-1,-1,-1
1528442046930640,-1,-1,-1,1,0,0,-1,-1
1528442046930640,-1,-2,0,-3,0,-1,2,0
1528442046939628,-1,-1,0,0,-2,1,0,0
1528442046939628,-1,-1,-1,0,-1,0,-2,-1
1528442046953578,-1,0,-1,-2,-1,1,-1,0
1528442046953578,-1,0,-2,0,-1,-2,2,-1
1528442046962555,-1,-1,0,0,2,-1,-1,-3
1528442046962555,0,0,-2,-1,0,-1,-1,-1
1528442046968538,1,-3,0,0,-1,0,1,1
1528442046968538,-1,-1,-1,2,-1,-1,-2,0
1528442046983498,-1,0,-2,-1,-2,-2,-2,0
1528442046983498,-1,-1,-2,-2,-1,-1,0,0
1528442046990481,-1,0,0,-1,-1,-2,-1,1
1528442046990481,-1,-1,-1,0,0,-1,-1,0
1528442046999455,-2,-1,0,-1,-1,-1,1,-2
1528442046999455,-1,-2,-2,0,0,-2,-1,0
1528442047013652,-1,0,-1,-1,-2,0,1,-1
1528442047013652,0,-1,0,0,2,-3,0,1
1528442047022622,-2,0,0,0,0,-1,-1,0
1528442047022622,0,-1,0,0,0,0,-1,-1
1528442047028381,0,-1,0,-2,0,0,-1,-2
1528442047028381,-1,1,0,-2,-1,-2,-1,-2
1528442047044542,1,0,-1,-1,0,-1,-1,-2
1528442047044542,-1,0,2,-2,-1,0,-1,-2
1528442047050322,0,-1,-2,-1,0,-1,1,0
1528442047050322,-2,-1,-2,0,-3,-1,-1,-1
1528442047059302,-1,-2,0,-2,-2,-1,-3,-1
1528442047059302,-2,0,-1,0,-2,0,0,0
1528442047074518,0,0,0,1,-1,-1,0,0
1528442047074518,1,0,0,-1,0,0,-1,0
1528442047076250,0,-1,-2,0,0,-1,0,1
1528442047076250,-1,1,0,0,2,0,0,1
1528442047088561,-1,-1,0,-1,-2,-1,0,-1
1528442047088561,-2,-1,-2,1,0,-1,0,0
1528442047097846,-2,-1,0,0,2,0,1,-1
1528442047097846,-1,-1,-1,-2,0,1,0,-1
1528442047110749,0,-1,0,-1,1,-1,-1,-1
1528442047110749,0,-1,1,-1,-2,-1,-1,-1
1528442047119486,1,-1,-1,-1,-2,0,-1,-1
1528442047119486,0,-1,0,-3,-1,-2,0,0
1528442047134448,0,0,0,-1,-1,0,-1,0
1528442047134448,-1,-1,-3,-1,0,0,-1,0
1528442047136440,0,1,-1,1,-1,-1,-1,0
1528442047136440,-1,0,-1,1,-1,0,0,-2
1528442047148656,-1,-1,-1,-1,-2,-2,0,0
1528442047148656,0,-2,0,0,-1,0,0,0
1528442047157381,0,-1,0,-1,-2,-1,1,0
1528442047157381,1,-2,-2,-2,-2,-1,-1,-1
1528442047171342,-1,-1,-1,0,0,-1,1,0
1528442047171342,-2,0,-1,-1,-2,0,-1,-2
1528442047179968,0,0,1,0,-1,-2,-1,1
1528442047179968,-1,1,-1,0,-2,0,1,1
1528442047194955,0,-2,-2,0,0,-1,1,-2
1528442047194955,0,0,0,-1,-1,-3,0,1
1528442047195921,-1,-1,-1,0,0,0,-1,0
1528442047195921,-1,-1,-1,-1,-2,-3,-1,0
1528442047207937,0,0,0,0,-1,-1,-2,1
1528442047207937,-1,-1,-2,0,-2,0,-2,1
1528442047216866,-2,0,1,-1,-1,-2,-2,0
1528442047216866,-2,1,-2,0,0,-2,-1,-1
1528442047230083,-1,0,-2,-1,-1,0,2,1
1528442047230083,-2,-1,-2,-1,0,0,2,0
1528442047240218,-1,0,-2,-1,-1,1,0,0
1528442047240218,2,-1,1,-2,-1,-1,-2,-2
1528442047255125,-1,0,-1,-1,-2,-1,-3,-2
1528442047255125,0,-1,-1,-2,-1,-3,-1,0
1528442047256018,-1,-1,-2,-2,-2,0,1,-1
1528442047256018,-2,-2,-3,0,-1,-1,-1,0
1528442047267993,-1,-1,0,1,0,-1,1,-1
1528442047267993,1,1,0,0,0,-1,-1,0
1528442047277203,0,-1,-1,-1,-1,-3,0,-1
1528442047277203,0,0,-2,0,1,-1,-2,-1
1528442047290172,-1,1,1,-1,0,0,-2,1
1528442047290172,1,0,-1,0,-1,-2,1,0
1528442047300089,-2,-1,0,-3,1,0,-2,0
1528442047300089,0,1,1,-1,0,0,0,-3
1528442047314060,-1,-1,-1,-1,0,0,0,0
1528442047314060,0,0,0,0,-1,1,0,0
1528442047322091,1,-1,-2,0,-1,-1,0,-2
1528442047322091,0,0,-1,-1,-1,-2,1,0
1528442047328258,2,-2,0,-1,1,-1,0,-1
1528442047328258,0,-1,-1,0,-1,0,-1,-1
1528442047337039,-1,0,1,0,0,-3,-1,0
1528442047337039,0,-1,-1,1,1,0,-1,0
1528442047350779,0,0,-1,-1,0,-1,0,1
1528442047350779,-1,-1,-1,-1,1,-1,-1,-1
1528442047359582,-3,-1,0,1,-1,2,2,1
1528442047359582,-2,0,-2,0,0,-1,1,-1
1528442047374786,-2,-1,0,0,-3,0,-1,-1
1528442047374786,-1,-1,-1,0,0,-1,0,-1
1528442047376805,1,-1,-2,-1,0,-2,0,-1
1528442047376805,0,-2,2,0,-1,0,-1,-2
1528442047388758,-2,-1,0,-1,0,0,0,-1
1528442047388758,-1,0,-1,-2,0,0,-1,-2
1528442047397003,0,-1,1,0,-2,1,0,0
1528442047397003,-1,-1,1,-3,-1,0,0,1
1528442047411260,-2,0,-1,0,-2,0,0,1
1528442047411260,1,-2,0,-1,0,-1,-1,-2
1528442047419985,-1,-1,-1,-1,-1,-2,-1,-1
1528442047419985,0,1,-1,-2,-1,-4,-1,-2
1528442047433969,0,-2,-1,-1,-1,-1,0,-1
1528442047433969,-2,0,-1,0,0,1,-1,0
1528442047435952,0,1,0,-1,-1,1,-1,0
1528442047435952,0,0,-2,1,-1,-1,-2,0
1528442047448156,-1,1,0,0,1,-1,-2,-1
1528442047448156,-1,0,-2,1,0,-1,-1,0
1528442047456885,-1,-1,0,0,1,0,0,0
1528442047456885,-2,0,0,0,0,1,-1,0
1528442047480076,0,-1,-1,0,0,-1,-1,-1
1528442047480076,-1,-1,0,-1,0,-1,-2,-1
1528442047480979,-2,0,-1,0,-1,1,0,-1
1528442047480979,-2,-1,-2,-2,-2,0,0,0
1528442047494783,0,1,-2,-2,-1,-1,0,-1
1528442047494783,0,-2,-1,-1,-1,0,0,1
1528442047495784,0,0,-2,1,-1,-2,-2,-1
1528442047495784,0,-2,-1,-1,-1,-1,1,1
1528442047507748,1,0,0,-1,0,-1,-2,-1
1528442047507748,1,-1,1,-1,-1,-1,-1,-1
1528442047517015,0,-1,-1,-1,-1,0,-1,2
1528442047517015,0,-1,0,-1,1,0,-1,0
1528442047530944,-1,-2,-1,1,0,-1,0,-1
1528442047530944,0,1,0,-1,-1,-1,0,-1
1528442047540024,0,-2,-1,-1,0,-1,1,-2
1528442047540024,-2,1,0,0,-1,0,0,-1
1528442047554939,-1,-1,0,-1,0,-2,-1,0
1528442047554939,-1,-1,-2,-1,0,1,1,0
1528442047555933,-1,-1,0,-1,-2,-1,-1,-2
1528442047555933,1,1,-1,0,-1,0,-3,0
1528442047567902,-1,0,-1,-1,-3,-1,0,-2
1528442047567902,-1,-1,-1,1,-1,-1,0,0
1528442047577006,1,-1,-1,0,-1,-1,1,-1
1528442047577006,-1,-2,-1,-1,-1,-1,2,-1
1528442047591225,0,0,-1,0,0,2,-1,0
1528442047591225,-1,0,0,-1,0,-1,-1,-2
1528442047600270,-2,0,-2,-1,0,0,0,0
1528442047600270,-1,-3,0,0,0,-2,0,-1
1528442047614263,-3,1,-3,-1,-1,-2,-1,-1
1528442047614263,-2,2,1,-1,-1,1,-1,0
1528442047616260,-1,-1,-1,0,0,0,-1,-2
1528442047616260,-1,0,-1,-3,1,1,1,-1
1528442047628474,1,-1,-1,0,1,-2,0,0
1528442047628474,-1,-1,0,-1,0,0,0,-1
1528442047637204,-1,-1,-2,-1,-1,-2,-2,0
1528442047637204,0,-1,0,1,-1,-2,-1,0
1528442047650433,-1,-2,-1,-1,0,-2,-1,1
1528442047650433,1,-1,-2,-1,0,-1,-1,-1
1528442047660293,-1,0,1,-1,-1,0,-1,0
1528442047660293,-2,-2,-2,0,-1,0,-2,0
1528442047673646,-1,-1,0,0,0,0,0,1
1528442047673646,-2,-1,0,0,0,-1,1,-1
1528442047680831,1,-1,-1,-3,-1,1,-2,-1
1528442047680831,-2,1,0,0,-1,-1,-2,-2
1528442047688579,0,1,1,0,-1,0,0,0
1528442047688579,-2,-2,0,1,1,1,-2,0
1528442047697556,0,1,-1,-1,1,-2,0,-1
1528442047697556,-1,0,-1,0,0,-1,1,-1
1528442047710521,0,-2,-2,-1,-1,-1,-2,-2
1528442047710521,-1,-1,0,0,-1,-2,1,1
1528442047720101,0,-2,-1,-1,0,-1,0,-1
1528442047720101,0,0,0,-3,0,0,1,-1
1528442047734095,-1,0,-2,-1,-2,1,-1,-2
1528442047734095,-1,0,-1,-2,-2,-1,0,-3
1528442047741273,0,-1,-1,1,1,1,0,-3
1528442047741273,-2,1,0,2,0,-2,-2,0
1528442047748543,-2,-2,-1,0,0,1,2,-1
1528442047748543,-1,-2,0,-1,-1,-2,0,0
1528442047757517,-1,0,-2,0,-1,-2,0,0
1528442047757517,2,-1,0,0,-1,0,-1,0
1528442047770705,0,0,1,-1,0,-1,0,0
1528442047770705,1,1,-1,0,0,-1,0,0
1528442047779457,-2,-1,-2,-1,-1,0,-1,-1
1528442047779457,-1,-1,-1,1,-1,0,-1,-1
1528442047794431,-1,0,1,-2,0,1,-1,-1
1528442047794431,-1,0,0,-2,0,0,-2,-1
1528442047800792,-1,-1,1,-1,1,-1,0,0
1528442047800792,-1,-1,1,0,-1,0,0,0
1528442047808788,-1,1,-1,-1,-1,-1,-1,0
1528442047808788,-1,-1,-1,0,0,0,0,1
1528442047816622,-1,-1,-1,-1,0,-1,-2,1
1528442047816622,0,0,-2,0,-1,-1,-1,-2
1528442047830805,-1,0,-2,-1,0,-1,1,0
1528442047830805,0,-1,-1,1,0,-1,0,0
1528442047854350,-1,-1,0,-1,0,0,-1,-2
1528442047854350,0,-1,-1,-1,0,0,-4,-1
1528442047855077,0,-1,-2,1,-2,-1,0,-2
1528442047855077,-1,1,0,0,-1,-1,0,-1
1528442047860643,0,-1,1,-2,0,-1,1,1
1528442047860643,0,1,1,-1,-1,1,0,-1
1528442047877598,-1,1,0,-1,1,-1,0,-2
1528442047877598,-1,-1,0,-1,-3,-1,-1,-1
1528442047879345,-1,0,0,0,-1,2,-1,-2
1528442047879345,-2,-1,-2,-1,1,-2,0,1
1528442047890848,0,-1,0,0,-3,0,-1,0
1528442047890848,-2,-1,1,-2,1,1,0,-3
1528442047899824,-1,0,-1,-1,-2,-1,0,0
1528442047899824,1,-1,-1,1,0,-1,0,-1
1528442047914048,1,-2,0,-1,0,0,-2,1
1528442047914048,1,-1,-1,0,0,0,0,0
1528442047920771,1,-2,-2,-1,-1,-1,-2,-1
1528442047920771,-1,1,0,-1,-1,0,0,-1
1528442047936980,0,-2,-2,0,0,0,1,-1
1528442047936980,0,-2,-1,-2,-1,-3,-1,0
1528442047938974,-2,0,0,0,-1,-1,0,-1
1528442047938974,0,0,-1,-1,-1,0,0,0
1528442047950942,0,-4,0,-1,-1,0,-2,0
1528442047950942,-2,2,-1,-1,0,0,-1,1
1528442047959473,1,-1,-2,-1,-2,1,-1,-1
1528442047959473,0,-1,0,-1,-1,1,0,-1
1528442047974498,-1,2,-1,0,-1,-1,1,-1
1528442047974498,-1,-2,-1,-1,-1,0,-1,-1
1528442047981015,-1,0,0,-1,0,0,-1,-1
1528442047981015,-1,0,-1,-2,0,-1,-1,-2
1528442047996609,0,0,1,-3,0,-1,0,-1
1528442047996609,1,-2,-1,-1,-3,0,0,-1
1528442047998294,0,-1,-1,-2,-1,-2,-1,0
1528442047998294,0,-1,-1,0,-3,-1,0,0
1528442048010264,0,-1,0,-1,-1,1,-1,0
1528442048010264,-1,1,-1,0,-1,0,-1,0
