timestamp,emg1,emg2,emg3,emg4,emg5,emg6,emg7,emg8
1528446018962941,1,-2,-1,-2,0,-1,1,-1
1528446018962941,-2,-1,-2,0,-1,-2,-2,-13
1528446018963938,1,1,-2,-1,-1,-1,-1,7
1528446018963938,-1,-3,-2,0,0,-2,-1,-3
1528446018965934,-2,0,0,0,-2,-3,-1,-2
1528446018965934,-1,0,0,0,0,0,-1,0
1528446018965934,0,-1,-1,-1,-1,-1,-1,-1
1528446018965934,-1,0,-1,0,-3,-1,0,-1
1528446018970921,-1,-2,-3,-1,-2,-2,-1,-2
1528446018970921,0,-1,0,-1,-1,-1,0,1
1528446018976904,-1,-1,-1,1,0,0,-1,-2
1528446018976904,-1,0,-2,-1,0,-1,-3,-2
1528446018987924,1,0,-2,0,-2,0,-2,0
1528446018987924,0,-1,-1,0,-2,-1,1,1
1528446019000845,-3,-4,-3,0,-2,-2,-2,-6
1528446019000845,0,-3,-1,-2,-1,-3,0,3
1528446019007821,-2,-1,0,-1,2,-2,-1,-4
1528446019007821,0,-1,-1,-1,-1,0,-1,7
1528446019020787,1,-1,-1,-1,-1,0,0,-1
1528446019020787,-1,-2,0,-2,-2,-2,-1,-5
1528446019046718,-2,0,0,-1,0,0,-2,-1
1528446019046718,-2,-1,-1,-1,-2,-1,0,-5
1528446019046718,0,0,-1,-2,-1,0,1,-2
1528446019046718,2,-1,0,-1,0,0,0,4
1528446019051704,1,-1,0,0,-1,-1,-1,1
1528446019051704,-1,-1,0,0,0,-1,0,-4
1528446019091598,0,0,1,0,0,0,2,0
1528446019091598,2,0,-1,-2,0,-2,-2,3
1528446019092595,-3,-2,-2,0,-2,-1,0,-7
1528446019092595,-3,-1,-2,-2,-1,-4,-4,3
1528446019093592,-2,-1,-2,-1,-1,0,-1,-3
1528446019093592,-1,-2,0,0,0,-1,0,-1
1528446019095586,-2,0,-1,0,0,0,-1,-2
1528446019095586,-2,0,-1,-1,-1,0,-1,-1
1528446019103567,0,-1,-2,-1,-2,-1,0,-1
1528446019103567,-2,-3,-1,-3,-1,-2,-2,-4
1528446019112542,1,-1,-1,-2,-2,-1,-3,3
1528446019112542,0,-1,-1,0,-1,1,0,-2
1528446019118525,-3,-2,-1,-2,-2,-1,-2,-1
1528446019118525,-1,1,-1,-1,-1,0,1,-3
1528446019142462,-2,-2,-1,0,0,-1,-2,-4
1528446019142462,3,-1,-2,-2,-1,-3,-2,2
1528446019143459,1,0,-3,-2,-1,0,0,-1
1528446019143459,-4,-1,-2,-1,-1,-2,-2,-5
1528446019164405,2,-1,0,-1,0,-2,-1,7
1528446019164405,0,-2,0,-1,-1,-1,1,-4
1528446019165402,-3,0,0,-1,0,-1,-2,-8
1528446019165402,-2,-2,-1,-2,-1,0,-2,-1
1528446019178366,-2,-2,-2,-1,-3,0,-2,-1
1528446019178366,0,0,-1,1,-1,1,-1,-1
1528446019186391,0,-2,-1,1,0,-1,-2,3
1528446019186391,-2,-1,-2,-1,-2,-1,-1,-4
1528446019201353,0,0,-1,-2,-1,-1,1,1
1528446019201353,-3,-1,-1,-1,-1,0,-1,-2
1528446019202302,0,-1,0,-2,-1,-4,0,1
1528446019202302,2,0,-1,0,-3,-1,0,0
1528446019224291,-1,-1,-1,-2,1,-2,-1,-1
1528446019224291,-3,-2,-1,-1,-1,-1,-1,-1
1528446019225242,0,-1,-1,0,-1,1,0,-2
1528446019225242,1,-3,-1,-1,-2,-2,-2,2
1528446019238206,-2,0,0,0,-1,-1,-1,1
1528446019238206,2,-1,-1,0,-1,0,0,-5
1528446019246235,-4,-1,-1,-1,0,-1,-1,0
1528446019246235,-3,-1,-1,-1,-1,-1,-2,-4
1528446019261173,-2,-3,0,-2,0,-1,0,-2
1528446019261173,-1,0,-3,-1,-1,-1,-1,-4
1528446019262143,-1,-1,-1,-1,-2,-2,-1,2
1528446019262143,-1,-1,-1,-1,0,-1,0,0
1528446019284125,0,2,-1,1,1,-1,0,-1
1528446019284125,-3,-2,-1,-1,0,-2,-1,-1
1528446019285081,-1,0,-2,-1,0,-1,0,-1
1528446019285081,-1,0,1,0,0,-1,1,0
1528446019298045,-2,-3,-3,-2,-1,-1,0,-4
1528446019298045,1,0,-1,-1,1,-1,0,1
1528446019306056,-2,-2,-2,-1,-1,-1,0,-1
1528446019306056,-2,1,-1,-2,-2,-1,-3,-1
1528446019321346,0,-2,-3,-1,-2,0,-1,2
1528446019321346,-1,-1,0,-2,-1,-1,-1,-3
1528446019322315,-3,-2,-2,-2,-2,0,-2,7
1528446019322315,0,-2,-2,0,-1,0,-2,-4
1528446019344255,-1,0,-1,-1,-2,-2,0,-1
1528446019344255,-4,0,-4,0,-2,-2,-2,-4
1528446019345254,1,-2,0,0,0,-1,0,-1
1528446019345254,-2,0,-1,-1,0,0,0,0
1528446019358220,1,2,1,-1,0,-1,0,-1
1528446019358220,-1,-2,-1,-1,-1,-2,-1,-1
1528446019366225,-1,0,-2,0,-1,-1,-2,-4
1528446019366225,-2,0,-1,-1,-1,0,-1,3
1528446019381158,-1,-1,2,0,-1,-1,-3,-6
1528446019381158,-1,0,0,-1,-1,-2,0,2
1528446019382157,-2,0,-1,-1,-2,-2,-3,-5
1528446019382157,0,-1,-4,0,-2,-2,0,1
1528446019405094,-1,-2,-3,-2,-1,1,-1,-2
1528446019405094,-3,-1,-1,-2,-2,-1,-2,-1
1528446019405094,-1,0,-1,-1,-1,-1,-1,-2
1528446019405094,-1,-1,-1,-2,-1,-1,-1,-6
1528446019427036,-1,-2,-3,-1,0,-2,0,2
1528446019427036,-2,0,-1,0,-1,0,0,-1
1528446019428033,0,-1,1,0,-1,-2,-2,0
1528446019428033,-2,-1,0,-2,-1,0,-1,-2
1528446019441030,-3,1,0,-2,-2,-1,-2,-4
1528446019441030,2,-2,-1,-2,-2,-1,-1,2
1528446019441996,-1,-2,-1,0,-2,-1,-2,-2
1528446019441996,-3,-2,0,-1,-2,-2,0,-2
1528446019464992,0,0,-2,-1,-2,-2,-2,-2
1528446019464992,0,1,0,0,0,1,1,0
1528446019464992,0,-1,-1,-1,-1,-1,1,1
1528446019464992,0,-1,-1,0,-1,-1,-2,8
1528446019477907,-2,-2,-1,0,0,0,-1,-5
1528446019477907,0,-2,0,0,-3,-1,-2,-4
1528446019486961,-2,-1,-3,-2,-2,-1,0,-2
1528446019486961,-1,0,0,-1,-1,0,-1,-3
1528446019501835,-1,-2,-1,-2,-2,-2,-2,2
1528446019501835,-2,-4,-2,-1,-1,-2,-4,0
1528446019502832,1,0,0,-1,-1,-1,-2,-4
1528446019502832,0,-1,-2,-2,-1,1,0,1
1528446019524773,-3,-2,-2,-1,0,0,-1,-2
1528446019524773,0,-1,0,-2,0,-1,2,1
1528446019525772,-1,0,0,-2,-2,-1,-4,-1
1528446019525772,-3,-1,-3,-2,-1,-2,-2,-4
1528446019537795,0,-2,0,0,-1,-1,0,0
1528446019537795,-4,-1,-1,-1,-1,-1,1,-5
1528446019546726,0,-1,-3,0,-2,-1,1,5
1528446019546726,3,0,0,0,0,-3,1,3
1528446019561734,0,-1,0,-1,1,2,-1,-3
1528446019561734,-1,0,-1,-2,0,-2,0,1
1528446019561734,-1,-1,-1,-2,-1,-2,-1,-4
1528446019561734,1,-1,0,-1,-1,0,-1,0
1528446019584712,-3,-1,-1,-1,-3,-2,-1,1
1528446019584712,0,-1,-1,0,-2,-1,0,-1
1528446019585684,-1,0,-1,-1,-1,-1,-1,-1
1528446019585684,1,0,0,-1,-1,1,-1,-1
1528446019606616,-1,-1,-1,-2,-1,0,0,0
1528446019606616,1,-1,-2,-1,0,-3,-1,1
1528446019607613,-3,-1,-2,-1,-3,-1,0,-2
1528446019607613,-2,0,-1,-1,-1,0,-1,-2
1528446019621634,0,-1,-1,-1,1,-1,0,-1
1528446019621634,-1,-1,-1,-1,-2,-1,-1,-1
1528446019622669,0,-2,-1,-1,0,-1,-1,-3
1528446019622669,-1,-2,-1,1,0,-1,0,-2
1528446019644531,-3,1,-1,-1,-1,-1,-2,-4
1528446019644531,0,0,-1,0,0,-1,-2,0
1528446019645512,-3,-1,-1,0,1,0,-1,-6
1528446019645512,2,0,-1,0,-2,-1,0,3
1528446019667454,-2,-1,-1,-2,-3,-1,-2,-2
1528446019667454,-3,0,0,-1,0,0,-1,-2
1528446019667454,0,-1,0,-2,0,-1,-2,-5
1528446019667454,2,-1,0,-1,-1,-3,-1,4
1528446019681417,-5,-2,-1,-1,-1,-2,-3,-10
1528446019681417,3,0,-1,0,-2,1,1,7
1528446019682414,0,-1,0,-1,0,-1,-1,0
1528446019682414,-1,-3,-1,-2,-3,0,-1,-1
1528446019712380,1,-1,-2,-1,-1,-2,-2,-3
1528446019712380,3,-2,-2,-1,-1,0,-1,2
1528446019713346,-1,-2,-2,0,-2,-1,-2,-1
1528446019713346,-3,-2,-1,0,-2,-2,-2,-5
1528446019727426,1,-1,0,-2,-2,-2,-1,4
1528446019727426,-2,-1,0,-2,-3,-1,-3,-4
1528446019728421,0,-1,0,-2,0,-1,-1,0
1528446019728421,-3,-2,-2,-1,0,0,-1,-5
1528446019740517,-1,-1,-3,-1,-1,-1,0,2
1528446019740517,-2,0,1,0,0,-2,-2,-4
1528446019749497,1,-1,-1,-2,0,1,0,1
1528446019749497,-5,-2,-2,-2,-4,-3,-3,-8
1528446019764456,5,1,-1,0,-1,0,1,10
1528446019764456,-2,-3,-2,-2,1,-1,0,-1
1528446019766479,-3,-1,0,-3,-5,-2,-2,-2
1528446019766479,2,1,-1,0,3,0,-1,1
1528446019794394,-1,1,-1,1,-3,-2,-1,0
1528446019794394,-3,-1,-3,-1,-2,-2,-3,-1
1528446019796375,-1,-2,-2,0,-1,0,-1,2
1528446019796375,-1,-1,-1,-2,0,-1,-1,-2
1528446019800407,1,-2,1,-1,-1,0,-1,-1
1528446019800407,-2,-1,0,-1,0,-1,-2,-1
1528446019817314,-2,-2,-1,0,-1,-1,-1,-2
1528446019817314,-1,-2,-3,0,-1,-4,-2,1
1528446019824340,-1,0,0,-1,-1,-1,-1,-2
1528446019824340,-1,0,-1,-1,-1,-1,-1,-2
1528446019826290,-1,-1,-1,-1,-2,-1,-1,-2
1528446019826290,0,-1,-1,-2,-1,-1,0,0
1528446019847236,-2,-2,-2,0,-2,0,-1,-1
1528446019847236,-1,-1,0,-3,-1,0,-1,-1
1528446019849228,-1,0,0,-1,-1,-1,1,0
1528446019849228,-2,-2,-1,-2,-1,0,-3,-2
1528446019861353,-1,-1,-1,0,1,-2,-2,6
1528446019861353,-1,0,-2,-1,-1,-1,0,-2
1528446019870363,0,-1,-1,-1,-1,0,-2,-4
1528446019870363,0,-2,-1,-2,-1,-2,0,-1
1528446019884451,-1,-2,-1,-2,0,-1,-2,-5
1528446019884451,-2,-2,-2,1,-1,0,1,0
1528446019886293,-1,-2,-2,-1,0,0,-1,3
1528446019886293,-2,-1,-1,-1,0,0,0,-1
1528446019907432,-1,-1,1,-2,-2,-1,0,0
1528446019907432,-3,-1,-1,-1,-2,-3,-2,-5
1528446019908497,0,-1,1,-1,-1,-1,-1,3
1528446019908497,-2,-1,1,-2,-1,-1,-2,-1
1528446019921554,1,-1,-2,0,-1,-1,-1,-3
1528446019921554,-3,-1,-1,-1,-2,-2,-1,-5
1528446019928532,-1,-1,-2,-2,-2,-2,1,5
1528446019928532,-1,0,-1,-1,0,-1,0,-3
1528446019944701,-2,0,-1,-2,0,-1,0,-1
1528446019944701,-3,-2,-1,-1,-3,0,-2,-4
1528446019946534,2,-1,-2,-1,-2,1,-1,1
1528446019946534,0,1,-2,-1,-2,0,-1,2
1528446019967689,-1,0,-1,0,-1,-1,-1,-2
1528446019967689,0,-1,-1,-1,-1,-2,-1,0
1528446019968692,-3,-2,-2,-1,-1,0,-2,-3
1528446019968692,0,0,1,-1,-1,0,0,-1
1528446019981811,1,-2,-1,-2,-1,-1,-2,-2
1528446019981811,1,1,-1,-2,-2,0,0,4
1528446019988639,2,1,1,-1,1,0,0,-6
1528446019988639,0,-2,-2,-3,0,-1,0,0
1528446020004596,-1,-2,-3,-1,-1,0,-1,-2
1528446020004596,-1,-2,0,-2,-1,-2,-1,0
1528446020006591,-1,-1,-2,0,-1,-2,-2,0
1528446020006591,-2,-1,-2,-2,-2,-3,-2,-3
1528446020027678,-1,-3,-1,-1,-1,-2,0,2
1528446020027678,-2,-2,-1,-1,-1,-1,-2,-1
1528446020028531,-4,0,-1,0,-1,0,-2,-12
1528446020028531,1,-1,-1,0,-1,0,1,10
1528446020041631,-3,0,-1,-1,1,-2,1,-5
1528446020041631,1,0,-1,1,-2,-2,-2,2
1528446020048477,-1,-1,1,-1,1,1,-1,-1
1528446020048477,-2,-1,-2,1,-1,-1,-1,-2
1528446020072551,1,-1,0,-2,-2,-1,2,5
1528446020072551,-1,0,0,0,1,1,2,-4
1528446020073529,-2,-1,-3,-1,-3,-2,-1,1
1528446020073529,-2,-1,-1,0,-1,-1,-1,-4
1528446020087531,1,-1,-1,-1,-2,-2,-1,4
1528446020087531,-1,-2,-2,-1,1,-1,-1,-6
1528446020088387,1,-2,-2,-1,-2,0,1,7
1528446020088387,-1,0,0,-1,0,-2,-3,-2
1528446020109470,-2,-1,-3,0,-2,-1,-2,-6
1528446020109470,0,-2,-2,-2,-1,-1,-1,-2
1528446020111308,0,-1,-1,-1,1,-1,0,0
1528446020111308,-1,-1,-1,1,-1,0,-2,-3
1528446020132262,-2,-2,0,-1,-1,-1,-2,-4
1528446020132262,-1,-1,-1,1,-1,-1,-2,0
1528446020133281,-2,-1,0,-2,-1,-1,-1,-2
1528446020133281,-1,-1,-1,-3,-1,1,-1,0
1528446020147212,0,0,0,-1,-1,0,-2,-3
1528446020147212,0,-1,-2,-1,0,-1,1,1
1528446020148210,-1,-2,-1,-1,-2,-3,-1,-3
1528446020148210,1,-2,0,0,-2,-1,0,-3
1528446020169188,0,-1,-2,-1,0,0,-1,-2
1528446020169188,-3,-1,-1,-2,-1,0,0,-2
1528446020176169,0,-1,0,-2,-1,0,-2,-1
1528446020176169,-1,-2,0,-2,-3,-1,-1,0
1528446020192147,-3,0,-1,1,1,-1,-2,-1
1528446020192147,1,-2,-1,-1,-1,-1,0,3
1528446020194141,-1,-1,-1,-1,-1,0,-3,-3
1528446020194141,0,-1,-1,0,1,-1,-2,-1
1528446020208104,-2,-2,-1,-1,-1,0,0,-1
1528446020208104,-1,0,-1,-2,0,-1,-1,-2
1528446020209071,0,0,0,-1,-2,-1,-2,0
1528446020209071,-2,-1,-1,-1,-1,1,-1,-4
1528446020229991,0,-2,-3,-3,-1,-2,0,-1
1528446020229991,-2,-1,0,-1,-2,-2,-1,0
1528446020230989,-1,-2,0,-1,-1,-2,0,-1
1528446020230989,-1,0,-3,-2,-1,-1,0,-1
1528446020250991,-3,0,-1,-2,-2,-2,-3,-7
1528446020250991,2,-1,0,-1,-1,0,0,5
1528446020259951,-1,0,-1,-1,-3,-2,0,0
1528446020259951,-1,1,0,-1,0,-1,-1,1
1528446020266893,-1,0,-2,0,-1,0,-1,-3
1528446020266893,-1,-4,-1,-1,-1,-1,-2,-3
1528446020272877,-3,0,-1,1,0,0,-3,-2
1528446020272877,-1,-1,-1,-1,-1,1,-1,-1
1528446020289832,1,0,-1,-1,-2,-1,0,3
1528446020289832,0,-1,-1,-1,-1,-1,0,-3
1528446020290829,-1,-2,-2,-1,-2,0,0,-1
1528446020290829,-2,-3,-1,-1,-1,-2,-2,-1
1528446020312770,-2,-2,-1,1,0,-1,-1,-1
1528446020312770,-1,1,0,-1,-2,-2,-1,-1
1528446020313775,0,-1,-1,-2,-2,0,0,-2
1528446020313775,0,-1,-2,-1,-1,-1,-1,-2
1528446020325736,-2,-1,-1,-1,-1,-1,-1,2
1528446020325736,-1,0,-1,-1,-1,-1,-2,-3
1528446020351667,-1,-1,-2,1,1,-1,-1,-3
1528446020351667,1,-1,-1,1,-2,-1,0,4
1528446020352664,1,-1,1,0,0,-1,1,-1
1528446020352664,-2,-1,-1,-2,-1,0,-2,-1
1528446020363635,1,-2,-3,-1,-1,-1,1,0
1528446020363635,-1,-1,0,-1,-1,0,-1,-3
1528446020371613,-1,-3,-1,0,0,-2,0,1
1528446020371613,-1,-1,-2,0,-1,-1,-3,0
1528446020373611,-1,-1,-1,-1,0,-1,-1,-1
1528446020373611,-3,-1,-2,-3,-1,-2,-3,-2
1528446020386573,-1,1,-1,-2,-2,-1,0,0
1528446020386573,-1,-1,-2,0,-1,-1,-1,2
1528446020393554,-4,-2,-1,-2,0,-1,-2,-8
1528446020393554,-1,-1,-2,-1,-2,-1,-1,0
1528446020409512,-1,1,-1,-1,-3,0,-1,-4
1528446020409512,0,-1,-3,-1,0,-1,-1,1
1528446020411507,0,-1,-2,-2,-3,-3,1,0
1528446020411507,-1,-1,-1,-2,-1,-4,-4,-1
1528446020432504,-2,-3,-2,-1,-2,0,-2,-2
1528446020432504,2,-1,0,0,0,2,3,-1
1528446020433451,-2,-2,0,0,-1,-1,-1,4
1528446020433451,1,-2,1,0,1,0,-2,-4
1528446020446413,0,-2,-1,-2,-1,-4,-3,11
1528446020446413,-3,-1,-1,-3,-1,0,-1,-3
1528446020453532,-1,0,0,-1,0,-1,-1,2
1528446020453532,-1,2,2,0,0,0,1,-1
1528446020469508,-4,-1,-1,0,0,0,-2,-6
1528446020469508,0,-2,0,-2,-1,-2,-1,3
1528446020471346,1,-1,0,-3,-1,-1,-1,2
1528446020471346,-3,-1,-1,-2,-2,-2,-2,-3
1528446020492425,0,-2,-1,0,1,0,1,-2
1528446020492425,-1,0,1,-1,-1,-1,-1,-2
1528446020494322,-1,-3,-1,-1,-1,-1,-1,-3
1528446020494322,-3,-1,-1,-2,-2,-2,-2,-1
1528446020506409,1,-2,-1,-1,1,-1,-2,-3
1528446020506409,-1,-2,-3,-1,0,0,-1,-1
1528446020513233,0,0,-1,0,-1,-2,-1,-2
1528446020513233,-3,0,-2,-1,0,-1,1,-3
1528446020544637,3,0,-2,-1,-1,-1,1,7
1528446020544637,-3,-2,0,-1,0,-1,-2,-3
1528446020546508,-2,0,-1,-2,-1,0,-2,-7
1528446020546508,0,-1,-3,-1,-1,1,-1,15
1528446020552616,0,1,-1,-1,-1,-2,0,-4
1528446020552616,-1,-1,-2,-1,-1,-1,0,-2
1528446020553489,0,-1,-1,-3,-1,-1,-1,1
1528446020553489,-2,-2,-1,-1,-1,-2,0,-4
1528446020566565,-2,-1,1,0,-1,0,-1,0
1528446020566565,-1,-1,-1,0,-3,-2,-1,1
1528446020573763,-2,-3,-1,-3,-1,0,-2,0
1528446020573763,0,0,1,-1,-2,-2,0,-4
1528446020589929,-3,-2,-1,-1,-3,-3,-1,-3
1528446020589929,-1,0,0,-1,0,-1,0,-3
1528446020591878,-1,0,-3,1,-1,-2,-1,0
1528446020591878,-1,-2,-1,1,0,0,-1,-3
1528446020611868,0,-1,-1,1,-1,0,-1,-2
1528446020611868,0,-2,-1,-2,0,-1,-2,0
1528446020613723,1,-2,-1,-2,-2,0,1,1
1528446020613723,-1,-2,-2,-1,-2,-1,-2,-6
1528446020625874,-2,-1,0,-2,0,-1,-1,-2
1528446020625874,0,-1,-2,-1,-3,-2,-2,-1
1528446020634850,-1,1,-1,-1,-1,0,1,4
1528446020634850,1,-1,-1,-1,-1,0,0,-5
1528446020649966,-1,-1,0,-4,-1,-1,0,-2
1528446020649966,0,-1,-1,0,-2,-1,-2,-1
1528446020651876,-2,-2,-1,1,-1,-2,0,-3
1528446020651876,-1,-2,-1,-1,0,-2,0,1
1528446020671907,-1,0,-1,-1,0,-1,-1,-1
1528446020671907,-2,-2,-1,-2,-2,-1,1,-1
1528446020673746,-2,-1,-2,-1,0,-2,-1,-3
1528446020673746,2,-1,-1,-2,-1,0,-2,2
1528446020685870,0,-2,-2,-2,-1,0,-1,-2
1528446020685870,-1,-1,-1,0,0,-1,0,1
1528446020694690,-2,-1,0,0,0,-1,-2,-1
1528446020694690,-1,-1,-1,0,-2,-1,-1,0
1528446020709901,-1,-1,-2,0,0,-1,-1,-2
1528446020709901,-2,1,0,-2,0,0,-3,4
1528446020711886,0,-1,-1,0,-1,-2,-1,-3
1528446020711886,-2,0,1,-2,0,-1,-1,-3
1528446020731947,0,-1,-3,0,-1,-2,0,1
1528446020731947,-3,-2,-1,-2,-1,-2,-1,-3
1528446020733799,1,0,1,0,-2,0,-1,-1
1528446020733799,-1,0,-2,-1,-2,0,1,1
1528446020745911,-2,0,-1,0,-1,0,-2,-2
1528446020745911,-1,0,-2,-1,1,-3,-1,-2
1528446020761076,-1,-1,-1,-2,1,-2,-1,-3
1528446020761076,-1,-1,-1,0,-1,0,0,-1
1528446020769363,-2,-1,1,0,-2,-1,-2,-1
1528446020769363,0,0,-2,-1,-2,-1,1,-1
1528446020771198,-1,-1,-1,-1,-1,-1,-1,2
1528446020771198,-1,-1,-1,0,-2,-2,-1,-1
1528446020792302,0,-1,0,-3,0,0,-1,-1
1528446020792302,-2,-3,-1,0,-2,-2,-1,-3
1528446020794298,-1,-1,-2,-1,0,-1,-1,0
1528446020794298,-1,-1,-1,-1,-1,-1,-1,-1
1528446020806336,-1,-2,0,-1,0,0,-1,-1
1528446020806336,0,-2,-2,-2,-1,0,0,-9
1528446020815353,0,-1,-3,0,-2,-1,-2,7
1528446020815353,0,0,-1,-2,1,-1,0,-1
1528446020829480,-2,-2,0,-1,-2,-2,-1,0
1528446020829480,-2,-1,-1,-1,-1,1,0,-1
1528446020831447,-2,-1,0,-1,1,1,-1,-2
1528446020831447,-3,-1,-3,-2,-1,0,-1,-1
1528446020852555,1,-1,-2,-1,-2,-1,-1,0
1528446020852555,0,-1,-1,-1,-2,1,-2,-1
1528446020854386,0,-2,-1,-2,-2,-2,-1,-3
1528446020854386,1,-2,-1,0,0,-2,-1,0
1528446020866677,-1,-1,1,-2,0,-1,-1,-3
1528446020866677,-3,0,-2,-1,-2,-2,0,0
1528446020874551,1,-1,0,-1,-1,0,0,-1
1528446020874551,-1,0,-2,-2,0,-1,0,-3
1528446020889047,0,0,-2,-1,-3,-2,-1,0
1528446020889047,-1,-2,0,-1,-1,0,-1,0
1528446020904841,-2,-2,-1,0,-2,0,0,-2
1528446020904841,-2,-1,0,0,0,0,-1,-1
1528446020912183,0,-1,-2,-1,0,-3,-1,-2
1528446020912183,1,0,0,-1,1,-2,-3,0
1528446020914020,-1,0,-2,0,-2,-1,-1,-2
1528446020914020,-1,-1,0,0,-1,-1,-1,-5
1528446020926147,-1,-1,-1,0,-2,-1,-1,1
1528446020926147,-1,-1,0,-2,0,0,1,-1
1528446020934959,0,0,0,0,-1,1,0,-1
1528446020934959,-2,0,-2,-2,-1,-3,0,-4
1528446020950154,0,-1,-1,0,-2,0,-2,-1
1528446020950154,-1,-2,-2,-1,0,-3,-3,-1
1528446020951095,0,0,-1,-1,-2,0,-2,-2
1528446020951095,-1,-2,-2,-1,-1,-2,-3,1
1528446020972374,-2,-1,-1,-1,-1,-1,0,-3
1528446020972374,0,0,-2,-1,0,1,-2,-1
1528446020974354,-3,-1,-2,-3,-1,-2,-1,-2
1528446020974354,-2,0,0,0,-1,1,-2,2
1528446020985561,-1,-1,-1,0,0,0,-2,-2
1528446020985561,-1,-2,-1,0,-3,-2,-2,-2
1528446020995402,-2,-1,-1,-1,-1,-1,0,-1
1528446020995402,-1,-2,-1,0,-2,-1,-2,0
1528446021009515,-2,-1,-2,-2,-2,-1,-1,-1
1528446021009515,0,0,-2,-1,0,-1,-1,1
1528446021011512,-1,0,-1,-2,-1,-2,-3,-2
1528446021011512,0,-2,-1,-1,-2,-2,-2,0
1528446021039788,0,0,-2,-2,-1,-1,0,-4
1528446021039788,-1,-2,-2,-1,-2,-3,-3,7
1528446021041636,-1,-2,-1,-1,0,-2,-3,-1
1528446021041636,0,-1,-1,0,0,0,-2,-2
1528446021054655,-3,-1,-1,-3,-1,-2,-1,-1
1528446021054655,-1,-1,-2,-1,-1,-1,0,-2
1528446021056649,-1,-1,-1,-1,0,1,-1,-2
1528446021056649,-2,0,0,0,-1,0,-1,-1
1528446021069561,0,-1,0,0,-1,-2,-1,-1
1528446021069561,-1,-1,-1,-1,-2,-1,1,-2
1528446021071557,-1,-3,-2,-2,-1,-2,-1,2
1528446021071557,0,-2,0,0,-1,-1,0,-2
1528446021092501,-1,-2,-2,-1,-3,0,-1,1
1528446021092501,1,-1,1,-1,0,-1,-1,-2
1528446021093498,-1,-2,-2,-3,-1,-1,0,-2
1528446021093498,0,-2,-1,-2,-2,-3,-1,-1
1528446021122562,-1,-1,-1,-1,-1,-2,-1,-2
1528446021122562,-2,0,-1,0,-1,1,0,0
1528446021123418,0,0,0,-1,-2,-1,-1,-2
1528446021123418,-2,-1,0,-1,-2,-2,-2,0
1528446021129830,1,1,-1,0,-1,-3,-1,-1
1528446021129830,-2,1,-1,0,-1,-1,-1,-3
1528446021130797,-2,-1,-1,1,1,-1,1,0
1528446021130797,-2,-1,0,-1,-3,-1,-1,-1
1528446021151740,0,-1,0,0,1,-1,-1,-2
1528446021151740,0,-2,-2,0,-1,-1,0,1
1528446021153736,-3,-2,-2,0,-1,-3,-3,-6
1528446021153736,0,-1,0,-1,-1,-2,0,0
1528446021173711,-1,-2,-3,1,-1,-2,0,2
1528446021173711,-2,-2,0,0,-1,0,-2,-2
1528446021182659,-1,0,-1,-1,-1,0,0,-2
1528446021182659,-1,-3,-3,-2,0,0,-3,-1
1528446021188643,-3,0,-2,-3,-1,-1,-1,-2
1528446021188643,-1,-2,1,-2,0,-2,-2,-2
1528446021203602,0,-2,-2,-2,-1,0,0,0
1528446021203602,0,-1,-1,-1,1,0,0,0
1528446021211581,-2,-2,-1,-3,-2,0,0,0
1528446021211581,-1,-1,-2,-2,-1,-1,-1,-2
1528446021213594,-1,-2,0,-2,0,-1,-2,1
1528446021213594,0,0,-1,-2,-1,-1,1,0
1528446021234520,0,-1,-1,-1,0,0,-1,-2
1528446021234520,-2,-1,0,0,0,0,-2,-2
1528446021236518,-1,-1,-1,0,-2,1,-1,0
1528446021236518,-2,-1,-2,-1,-1,-1,-1,-8
1528446021248497,1,1,1,-1,-1,-1,0,5
1528446021248497,0,-1,-2,-2,-2,-2,0,-1
1528446021255466,-2,0,0,0,-1,-2,-1,3
1528446021255466,-1,-2,-1,-1,1,-2,0,-4
1528446021272419,-1,-1,0,-2,-1,0,-2,-1
1528446021272419,-1,-1,-1,-2,-1,-2,-1,-1
1528446021273415,0,-1,-1,0,0,-2,-1,-1
1528446021273415,-4,-2,-1,-1,-2,-1,-1,-2
1528446021294718,0,-1,-1,0,-1,-1,0,0
1528446021294718,-1,-1,-1,-1,-2,1,-1,-1
1528446021296557,-1,-1,-1,-1,1,-1,-1,-1
1528446021296557,-2,-1,0,-2,0,-2,-2,1
1528446021309535,-1,-1,-3,0,0,-1,-2,-3
1528446021309535,0,-1,-1,-3,0,0,0,-3
1528446021315662,0,-1,-1,-1,-1,-3,0,-2
1528446021315662,1,0,-2,0,0,-1,-1,2
1528446021332680,-1,-1,-1,-1,1,-2,1,-2
1528446021332680,-2,-1,-1,-2,-1,-2,0,-1
1528446021333671,-2,-1,-1,-1,-2,-1,-1,-3
1528446021333671,0,-1,0,-2,-2,-1,1,1
1528446021354754,0,-1,-1,-1,0,-1,-2,-2
1528446021354754,-2,-2,-2,0,-1,-1,-2,0
1528446021356612,1,-1,-1,0,-2,-2,-2,-1
1528446021356612,-1,-1,-1,-2,0,0,-1,0
1528446021369577,-2,-1,0,-1,-2,-1,-3,-7
1528446021369577,-1,0,-2,-2,-1,-2,0,9
1528446021377554,-2,0,0,-1,-1,-3,-2,-2
1528446021377554,-1,-1,0,-2,0,1,-3,-1
1528446021399850,-1,-1,-1,-1,0,-2,-1,-1
1528446021399850,-1,0,-1,1,-2,-1,0,-3
1528446021400686,-1,-1,-1,-1,-1,0,0,-1
1528446021400686,0,-1,-1,0,-1,0,-1,0
1528446021414793,0,0,-1,-1,-2,0,-1,0
1528446021414793,0,-1,-1,0,0,0,-3,-3
1528446021416644,-2,-1,-2,-1,-1,-1,-1,1
1528446021416644,-1,-2,-2,-1,-2,0,0,-1
1528446021428877,-2,-2,-1,-2,-3,-1,0,2
1528446021428877,-1,-2,-1,-2,-1,-2,-1,-9
1528446021437775,0,-3,-2,-2,-2,-1,-1,-1
1528446021437775,-1,-1,-1,-2,-1,-2,0,-1
1528446021459873,-2,-2,-1,0,-2,-2,-1,0
1528446021459873,0,-1,0,-1,0,-1,-3,0
1528446021461867,-1,0,-3,-1,-1,0,0,0
1528446021461867,-1,-1,0,-1,-1,-1,-2,-5
1528446021473269,-2,0,-3,-1,1,-3,-2,7
1528446021473269,-2,0,-1,-1,-1,-2,-1,-4
1528446021482413,-1,-1,-1,-1,0,-1,-1,-1
1528446021482413,-1,0,1,2,-1,0,0,1
1528446021489602,-1,-1,-2,-1,-2,0,0,-4
1528446021489602,-1,-1,-1,-1,-2,-1,-1,1
1528446021495568,-2,0,-1,-2,0,-2,-2,-1
1528446021495568,-1,0,-1,-1,-1,0,-1,-2
1528446021512523,0,-1,-2,-2,0,-1,-1,-3
1528446021512523,-1,-1,0,-1,-1,0,0,0
1528446021513520,0,0,-1,-1,-3,-1,-1,-1
1528446021513520,-2,-1,0,-1,-1,-1,-1,0
1528446021542699,-2,0,0,-1,0,0,-1,-2
1528446021542699,-1,-1,-1,-1,-1,-2,-1,-7
1528446021543653,1,-1,-2,-2,1,-1,-1,11
1528446021543653,-1,-1,-1,-1,-1,-2,-3,-1
1528446021548788,1,-2,-1,-1,-2,-2,-1,-1
1528446021548788,-2,0,-3,0,0,1,0,-3
1528446021557648,-1,-1,1,0,-2,0,-1,-3
1528446021557648,-1,0,-2,-1,-1,-1,0,2
1528446021572608,-1,-1,-1,0,-2,0,-2,-8
1528446021572608,0,0,0,-2,-1,-1,1,3
1528446021573559,-2,-1,0,-2,0,-1,-1,-2
1528446021573559,1,-1,-1,-1,-1,-1,0,4
1528446021601788,-2,0,-1,0,-1,0,-1,-4
1528446021601788,-1,-3,-2,0,-2,0,-3,-8
1528446021603780,0,-1,-3,-1,-2,-1,0,9
1528446021603780,0,-1,0,-1,-1,-3,-1,-2
1528446021608770,0,-1,-1,-2,-1,0,-1,1
1528446021608770,3,-1,-3,-1,-1,1,0,3
1528446021617762,-3,-1,-2,-1,-2,-1,0,-3
1528446021617762,-1,-2,-1,0,0,-1,-1,3
1528446021631893,-1,-1,0,0,0,-1,1,-2
1528446021631893,-4,-2,-1,1,1,-3,-1,1
1528446021646032,-2,-1,-1,-1,-2,-1,-1,-9
1528446021646032,0,0,-2,-2,-2,0,0,5
1528446021655008,0,-1,-1,-1,-1,-1,-3,-1
1528446021655008,0,-1,-1,-1,-3,-1,0,3
1528446021655934,-1,0,-1,-1,0,-1,-4,-11
1528446021655934,-2,-1,-2,0,-1,0,-1,-3
1528446021668010,0,-2,-1,-1,-1,-2,-1,4
1528446021668010,-1,-2,0,-2,-2,-2,-1,3
1528446021676976,-1,0,-1,-2,0,1,0,-4
1528446021676976,-1,-1,0,-1,0,0,-1,-3
1528446021692108,1,1,0,-1,-1,-1,-1,3
1528446021692108,-3,-1,-1,-1,-1,-2,-2,-4
1528446021694216,-1,-1,0,-2,1,-2,0,3
1528446021694216,-3,-2,-1,-2,-3,-2,-2,-6
1528446021715149,-2,-1,1,0,-2,-1,1,0
1528446021715149,-2,-2,-2,0,-1,-1,-3,-3
1528446021716012,3,1,-1,0,-2,0,1,8
1528446021716012,-2,-2,0,-1,-1,-2,-3,0
1528446021737112,0,-3,-1,-1,0,-1,0,-4
1528446021737112,-1,-1,-2,0,-2,0,-1,-2
1528446021738952,-2,-2,0,-1,-1,0,-2,-2
1528446021738952,1,1,-1,-1,-1,0,0,0
1528446021760170,-3,-2,-2,0,-1,-1,-2,-5
1528446021760170,3,1,1,-1,-1,-1,0,5
1528446021761170,-1,0,-1,1,0,-1,1,-3
1528446021761170,0,-1,-2,-1,0,-1,-2,-1
1528446021775198,-2,-2,-2,-2,-2,-1,-1,-1
1528446021775198,-1,0,-2,-2,-1,-1,0,0
1528446021776132,-2,-3,-1,-1,-2,-3,-3,-5
1528446021776132,0,-2,0,-2,-1,-1,0,-1
1528446021788312,-1,-1,-3,-1,-2,-2,-2,2
1528446021788312,-1,1,0,-1,-2,-1,-3,-4
1528446021797353,-2,-2,-1,0,-1,0,-2,-2
1528446021797353,-1,-1,-2,-2,-1,-2,-2,-1
1528446021812632,-3,-2,-1,0,0,0,-2,-1
1528446021812632,5,1,0,0,-1,1,3,7
1528446021813512,-3,-2,-1,-1,-3,-1,-1,-4
1528446021813512,-1,-1,-1,0,-2,-1,-1,1
1528446021842336,0,0,0,-3,0,0,0,-5
1528446021842336,-3,-2,1,1,1,-1,-3,-1
1528446021843335,-3,-2,-2,-2,-1,-3,-1,-3
1528446021843335,2,-2,-1,0,-2,0,0,4
1528446021848327,0,1,0,-1,-1,0,0,-5
1528446021848327,-4,-2,-2,-2,-1,-1,-1,-8
1528446021857331,4,0,-2,0,0,0,0,7
1528446021857331,-3,-1,-1,-2,-1,0,-1,-6
1528446021872306,-1,-1,-2,-1,-2,-3,-2,2
1528446021872306,-1,-1,-2,-1,-1,-1,-1,1
1528446021874350,0,0,-2,-2,-1,-1,-1,-3
1528446021874350,0,0,-2,-2,-1,-2,-1,-4
1528446021894552,-2,-1,1,-1,-1,-1,-1,1
1528446021894552,-1,-2,-1,-1,0,0,-2,3
1528446021896386,0,0,1,-1,-1,-2,-2,-4
1528446021896386,-1,-1,-2,-1,-2,-1,-1,2
1528446021908691,-1,-1,-1,0,-1,-2,-1,-2
1528446021908691,-4,-1,-2,-1,-1,-2,0,-6
1528446021924695,0,-2,0,-2,-1,-2,0,3
1528446021924695,-1,-1,0,-2,-1,1,-2,0
1528446021931879,-3,-1,0,-1,-1,-1,0,-2
1528446021931879,-2,-2,-1,-1,-2,-1,-2,-1
1528446021933871,3,-1,-1,-1,-1,-2,-1,5
1528446021933871,-2,1,-2,-2,0,0,-1,-3
1528446021954978,-2,-1,-2,-1,0,-1,-2,0
1528446021954978,-2,-1,-2,-3,-2,0,0,-2
1528446021956880,-1,-2,0,0,-2,1,0,0
1528446021956880,0,-1,0,-2,0,-2,-1,-4
1528446021968778,0,-1,-2,-1,1,-1,-2,-4
1528446021968778,0,-1,0,-1,-1,-2,-2,4
1528446021977877,-2,-1,-2,-2,0,-2,-2,-4
1528446021977877,-1,0,-1,1,-1,-1,0,-6
1528446021991895,1,-1,0,0,-1,-1,-1,3
1528446021991895,1,-1,-1,-2,-2,-2,-1,3
1528446021993733,-3,-1,-1,-1,-1,-1,-3,-8
1528446021993733,0,-1,0,0,0,-1,0,4
1528446022015045,0,-1,-3,0,-1,-1,-3,0
1528446022015045,-1,-2,-1,-1,-1,-2,-1,-8
1528446022016876,-1,0,-2,-1,-1,-1,0,6
1528446022016876,0,0,-2,-1,-2,-1,-2,-1
1528446022037012,1,-2,0,-1,-1,-2,-2,0
1528446022037012,0,-1,1,-1,0,1,3,-2
1528446022038834,-3,-1,-1,-1,-2,-2,-3,-4
1528446022038834,-1,-1,0,-1,-1,-3,-1,-1
1528446022051941,0,0,-2,-2,-1,0,0,2
1528446022051941,-2,-2,-1,-1,-1,-1,-2,-3
1528446022053786,-2,-2,0,-2,-1,-1,-1,0
1528446022053786,0,0,-1,-1,-1,1,0,0
1528446022074935,-1,-3,-1,0,-2,0,0,-6
1528446022074935,1,0,-1,1,-2,-1,-1,5
1528446022075943,-3,-1,-1,0,0,-1,0,-8
1528446022075943,3,-2,-2,-2,-1,0,-2,8
1528446022097547,0,0,0,-3,-1,0,-1,-2
1528446022097547,-1,-1,-2,-2,-1,-3,-2,-3
1528446022098533,0,-1,-1,-1,-1,0,0,3
1528446022098533,-2,-1,-2,-1,0,-2,0,1
