timestamp,emg1,emg2,emg3,emg4,emg5,emg6,emg7,emg8
1528885241349389,0,-1,-1,-2,0,0,1,-1
1528885241349389,0,-1,-1,-1,-2,-4,0,-1
1528885241357364,-2,1,-1,-1,-1,1,0,-1
1528885241357364,1,0,-1,2,16,3,-1,0
1528885241358360,-1,0,-2,-4,-15,-2,-3,0
1528885241358360,-2,-4,-4,-2,9,-1,-4,-2
1528885241360355,-5,-7,-4,-3,-15,-2,0,-1
1528885241360355,-1,5,5,6,26,4,-1,-2
1528885241371327,9,10,9,7,-7,0,2,3
1528885241371327,2,0,-2,-13,-21,0,2,2
1528885241379305,2,3,-1,3,-5,-2,-2,-4
1528885241379305,-1,-4,-4,-3,0,-2,-3,-1
1528885241385317,-3,-2,2,12,31,4,2,0
1528885241385317,-1,-4,-6,-5,-9,-1,-1,-1
1528885241400249,-1,0,2,-4,12,-2,-1,0
1528885241400249,-2,-6,-7,-6,-24,-1,-1,-2
1528885241407232,-5,-5,3,8,3,-2,-1,-3
1528885241407232,1,3,8,5,8,2,-1,-2
1528885241417208,1,-3,-8,-1,4,4,0,-1
1528885241417208,4,14,14,-4,-5,-5,1,2
1528885241430171,1,-10,-10,-8,-10,-2,1,2
1528885241430171,-2,14,8,7,0,-1,-2,0
1528885241439144,-2,-2,-2,-3,6,-1,0,0
1528885241439144,2,-9,-14,1,-1,-1,1,0
1528885241445133,-4,-3,4,-2,-4,-2,-2,-1
1528885241445133,-5,-36,-11,-4,2,0,1,0
1528885241460125,0,9,-7,0,4,-1,-1,0
1528885241460125,5,23,5,0,-7,1,0,1
1528885241469094,-4,-3,10,0,2,0,-2,-1
1528885241469094,6,20,17,8,7,3,0,-3
1528885241477067,1,-10,-5,-3,-4,-2,-2,1
1528885241477067,-10,-17,-7,-6,-5,3,1,-2
1528885241490054,2,10,-9,-6,0,-3,0,-2
1528885241490054,-11,-28,-12,-1,5,1,0,0
1528885241498984,-6,2,3,-7,-15,-4,-4,-4
1528885241498984,15,21,-4,1,-1,-3,-1,0
1528885241504969,-3,-9,-3,0,1,-2,-2,-2
1528885241504969,0,8,19,1,-2,-1,-1,-1
1528885241519960,6,2,-5,4,3,0,-5,-4
1528885241519960,-10,-16,1,1,-5,-12,-9,48
1528885241527908,5,14,7,1,5,13,45,-13
1528885241527908,2,3,-10,-11,-15,-6,-8,3
1528885241536883,-3,-5,2,-1,2,6,25,-5
1528885241536883,-12,-20,-7,-1,0,-2,-2,-2
1528885241549850,11,13,-6,-3,-1,-4,-20,2
1528885241549850,-3,3,-9,-6,-6,-3,10,2
1528885241558825,7,6,15,1,-2,0,-10,11
1528885241558825,-2,-9,-2,-1,1,1,10,-14
1528885241564808,-8,-12,-2,-5,-1,2,-1,4
1528885241564808,3,8,4,6,1,-3,-1,-14
1528885241579770,-1,2,1,4,1,-3,-13,2
1528885241579770,-5,-22,-2,-2,2,3,-2,-11
1528885241587749,-2,4,-3,-3,-6,-2,-8,-3
1528885241587749,7,24,-3,-4,-16,-15,-4,6
1528885241596725,-6,-8,6,6,2,-1,0,-4
1528885241596725,2,8,1,-1,-5,0,-3,-6
1528885241609688,1,-7,10,-2,0,-1,-2,1
1528885241609688,-1,-11,-14,-1,0,-2,-6,-2
1528885241618687,-1,-1,-2,2,28,5,5,3
1528885241618687,6,10,9,3,-15,-6,3,-9
1528885241624649,-1,-2,-13,-19,-22,1,-7,37
1528885241624649,-4,-8,-2,5,13,8,22,-16
1528885241640608,0,-4,-1,6,2,0,-5,-7
1528885241640608,8,17,8,5,17,8,2,-8
1528885241647614,6,14,8,5,10,1,15,26
1528885241647614,-1,-3,1,-7,-17,-2,-4,6
1528885241656575,1,-5,-4,-5,-7,-6,4,0
1528885241656575,-3,-3,-5,0,6,7,-2,-4
1528885241669555,-5,-5,-6,3,-2,-10,-27,-21
1528885241669555,0,0,4,1,5,4,4,3
1528885241679502,-1,-1,-4,-1,-5,1,-5,-6
1528885241679502,-2,-4,-4,-4,-4,-4,-5,0
1528885241685499,-3,-7,-2,-2,1,-4,-3,-14
1528885241685499,2,1,1,11,17,4,-1,0
1528885241700445,1,9,7,0,-5,-1,-2,6
1528885241700445,-3,-5,-5,-10,-16,-7,5,-1
1528885241715406,-4,-5,0,-1,7,6,2,-8
1528885241715406,1,-1,-1,1,9,5,-6,0
1528885241722387,3,4,1,-3,-5,-3,2,3
1528885241722387,2,4,0,6,10,7,7,33
1528885241730367,-5,-9,-9,-16,-14,-2,-6,-48
1528885241730367,2,5,10,7,-15,-4,-7,3
1528885241739344,1,0,1,-3,-4,4,2,1
1528885241739344,-5,-1,4,4,4,-12,-4,0
1528885241745328,2,1,-4,-4,5,-5,-8,4
1528885241745328,-3,-2,-1,-3,6,3,8,0
1528885241760288,-1,-2,-3,1,-9,-1,-5,-15
1528885241760288,-6,-7,-6,-16,-24,-8,-14,-10
1528885241767268,-1,-4,-2,13,7,9,28,26
1528885241767268,-2,-4,-8,-14,-14,-8,-22,-16
1528885241782228,1,1,5,1,13,9,3,8
1528885241782228,1,3,0,4,3,-2,-2,-13
1528885241790206,-1,1,1,2,2,4,-11,-4
1528885241790206,-3,-6,-6,7,16,3,-1,6
1528885241799183,-3,-5,-5,-11,-17,-7,-5,0
1528885241799183,3,11,17,9,6,-4,-3,-7
1528885241805166,0,0,-2,2,-5,-7,-2,1
1528885241805166,2,2,-1,-5,0,0,2,2
1528885241820163,-12,-20,-16,1,11,0,-3,-8
1528885241820163,-4,-5,-4,-16,-12,0,1,12
1528885241827145,11,7,3,6,9,2,20,2
1528885241827145,-3,4,-3,-1,-12,-4,-5,-1
1528885241842107,6,17,11,4,7,1,2,-6
1528885241842107,4,4,0,8,-5,-6,-30,-9
1528885241850073,-4,-19,-8,-8,-5,4,23,36
1528885241850073,-4,5,5,0,13,1,13,-4
1528885241859024,3,15,2,-4,-17,-4,24,25
1528885241859024,-17,-22,-26,-10,5,3,-5,-23
1528885241865007,14,29,16,7,6,-1,-18,5
1528885241865007,1,-17,21,5,6,1,-12,-36
1528885241879966,-4,-5,-17,-2,-3,-3,-26,-9
1528885241879966,6,7,3,0,-7,-3,14,11
1528885241886947,-8,-6,2,2,-2,-1,-3,-18
1528885241886947,-1,8,-3,2,1,0,-22,1
1528885241902905,-1,-7,0,-5,-5,-2,18,13
1528885241902905,-6,-10,-9,-4,1,6,-1,-13
1528885241909888,-7,-9,-8,0,4,-9,-5,-3
1528885241909888,1,3,0,-5,-15,-3,-22,-12
1528885241918864,-3,-3,-1,-11,-12,1,-18,4
1528885241918864,-1,-4,-1,14,17,-2,52,-1
1528885241924847,-7,-1,1,-9,-3,2,19,-2
1528885241924847,-3,-11,-10,8,15,0,-33,-2
1528885241939808,4,9,3,4,3,3,-10,-3
1528885241939808,10,7,4,-8,-16,2,-6,9
1528885241947786,0,-2,-1,6,-2,-1,-7,-6
1528885241947786,-1,-2,0,5,11,0,21,6
1528885241962755,0,-5,-2,-8,-10,-21,-10,31
1528885241962755,6,12,16,3,3,5,14,-24
1528885241969761,-7,-3,-3,4,12,6,-10,-6
1528885241969761,3,0,-7,-14,-20,-2,-4,-1
1528885241978705,-8,-13,-7,4,10,0,18,-5
1528885241978705,6,5,6,-2,-1,11,29,33
1528885241984686,-7,-9,-8,-4,-2,-10,-22,-15
1528885241984686,-1,3,0,-8,-18,-6,1,13
1528885241999646,-3,-1,3,19,25,2,7,-20
1528885241999646,-8,-9,-4,-5,2,6,21,-2
1528885242007636,2,5,1,1,4,-8,-41,-10
1528885242007636,4,1,-5,-1,-7,2,31,5
1528885242022585,-1,-2,6,-8,-12,4,3,-1
1528885242022585,1,6,3,6,31,-1,-2,-25
1528885242029566,2,2,4,11,-12,5,17,14
1528885242029566,-6,-1,-5,-20,-9,-6,10,-17
1528885242038543,-7,-7,-6,0,-18,-5,-53,1
1528885242038543,0,-2,-4,3,10,-6,-51,10
1528885242053503,5,0,-2,-5,8,2,24,16
1528885242053503,-3,-3,8,9,9,7,-7,0
1528885242060526,0,1,-4,-8,-15,-8,35,2
1528885242060526,-1,-4,-8,-2,0,-3,-27,-9
1528885242067511,-1,4,4,-5,-13,-2,-20,-15
1528885242067511,3,2,4,12,28,9,13,24
1528885242082425,3,1,1,-2,-5,0,26,-5
1528885242082425,-3,-2,-2,-4,-15,-7,8,-3
1528885242090403,-4,-8,-8,-5,-5,-3,-12,-16
1528885242090403,4,2,0,-2,2,4,29,27
1528885242099421,5,6,9,12,17,4,-25,-21
1528885242099421,0,1,1,-2,-1,11,50,38
1528885242113343,8,1,-3,-3,-19,-2,11,-2
1528885242113343,-6,-8,-6,-7,6,-7,-5,-10
1528885242120324,0,5,8,0,4,2,-14,6
1528885242120324,10,6,4,11,19,8,-15,-9
1528885242127357,-5,-5,-2,-12,-20,-20,-5,-11
1528885242127357,6,9,2,14,8,3,17,36
1528885242142317,7,-2,-2,-5,-8,-2,6,-6
1528885242142317,-15,-11,-1,5,19,12,-6,-7
1528885242150299,-3,-10,-16,-13,-19,-3,-7,-2
1528885242150299,-2,0,-1,-2,-11,-10,-21,-18
1528885242159220,0,5,5,14,30,7,31,1
1528885242159220,20,12,12,-4,-20,-11,-71,-6
1528885242173230,-4,3,0,0,-1,6,35,5
1528885242173230,-15,-12,-19,-8,2,-6,-15,-23
1528885242180212,-4,-9,-3,-4,-3,8,23,55
1528885242180212,4,0,-3,1,-1,0,-40,-48
1528885242187192,2,-3,-10,-7,-10,-10,0,5
1528885242187192,7,17,20,8,-3,-8,-12,-5
1528885242202106,0,3,-7,-8,-17,-6,7,11
1528885242202106,-18,-48,-19,-5,4,-6,-6,6
1528885242210136,7,30,11,7,8,4,-5,1
1528885242210136,8,28,12,3,0,6,8,-8
1528885242219060,1,-6,-1,-4,-9,-2,-28,-19
1528885242219060,-8,-5,-7,-9,-18,-4,43,10
1528885242233060,-6,-31,-15,-2,4,3,-27,-8
1528885242233060,-15,-15,-11,-7,16,7,10,-10
1528885242240004,20,33,18,11,3,-3,-6,29
1528885242240004,4,-10,5,-15,-29,-5,21,-25
1528885242248011,-10,10,4,6,19,8,7,-3
1528885242248011,14,5,4,-9,-14,3,7,10
1528885242262500,-12,-19,-13,-3,-3,-3,7,-10
1528885242262500,-20,-10,-11,-8,-11,-13,-38,-11
1528885242270691,-4,21,29,21,22,12,-2,16
1528885242270691,13,26,-2,-11,-25,-14,9,-5
1528885242278773,4,-17,-16,-12,13,8,-3,-20
1528885242278773,9,20,14,14,10,1,-20,16
1528885242293575,-4,-21,-1,-12,0,-20,11,13
1528885242293575,-19,-23,-20,8,15,18,97,-13
1528885242300746,-15,-15,8,-1,-8,-9,-63,-30
1528885242300746,13,19,-1,0,-2,3,11,16
1528885242307918,4,8,0,-1,-1,-6,0,-11
1528885242307918,1,-23,7,0,0,2,-33,9
1528885242323301,-6,18,-4,-6,-3,10,32,-13
1528885242323301,13,31,22,18,6,-1,-5,33
1528885242330428,-12,-10,-3,-7,-7,-6,-17,-13
1528885242330428,17,-10,-19,-7,-19,-8,-14,17
1528885242345387,-8,-2,-2,0,6,9,8,-18
1528885242345387,-76,-82,-38,-26,-16,-8,-6,-28
1528885242353606,47,47,-17,15,12,8,21,26
1528885242353606,25,72,51,19,14,5,-1,8
1528885242368812,20,28,46,13,0,-4,-27,-3
1528885242368812,0,22,14,7,8,3,22,33
1528885242368812,-5,-53,-19,-9,-1,17,71,-5
1528885242368812,-33,-55,-38,-11,-2,-6,-27,-23
1528885242383038,-5,1,-15,-4,-2,-20,27,-3
1528885242383038,2,-8,-13,-11,-8,-8,-33,14
1528885242390807,-10,-11,6,8,4,1,-20,-41
1528885242390807,9,9,5,-1,1,3,-3,18
1528885242405466,0,4,3,-6,-13,0,3,-4
1528885242405466,6,-6,-6,9,22,3,23,3
1528885242413448,-5,0,1,4,-10,0,-12,10
1528885242413448,-5,4,8,3,3,1,-13,-1
1528885242428410,1,-21,-16,1,3,-7,-17,-10
1528885242428410,-5,9,3,-13,-18,-4,30,-16
1528885242429405,12,21,22,2,5,12,0,30
1528885242429405,-5,-16,-20,-5,0,-12,-13,-8
1528885242442374,-20,-74,-22,1,21,4,6,8
1528885242442374,17,77,20,9,-12,0,-15,-18
1528885242450349,13,33,15,-1,-4,-9,-22,-5
1528885242450349,-3,-16,18,7,-2,-1,37,20
1528885242465540,1,-1,-13,-13,-9,-1,-22,-6
1528885242465540,-3,-25,-10,0,13,5,54,4
1528885242473580,-17,-24,-15,-9,-1,-7,-4,-14
1528885242473580,-1,2,-11,-11,-15,-8,-27,-1
1528885242488334,4,13,6,2,0,0,4,-1
1528885242488334,5,-3,8,12,16,6,-10,-7
1528885242489284,-5,5,-4,-9,-10,-4,-2,4
1528885242489284,3,-9,-3,4,8,0,-3,-6
1528885242502332,-8,5,1,0,-5,-3,7,30
1528885242502332,12,0,0,-8,-24,3,8,-8
1528885242510785,4,2,5,2,1,-2,5,10
1528885242510785,-6,-4,0,0,7,2,-15,-4
1528885242525679,-4,-4,-8,-2,4,-1,4,3
1528885242525679,3,5,0,-5,-12,-4,-3,1
1528885242533772,-3,-2,9,11,15,0,-7,-4
1528885242533772,1,4,6,3,9,1,-28,-21
1528885242548863,6,8,-1,2,-5,2,35,27
1528885242548863,2,-6,-2,2,6,-1,-5,1
1528885242548863,-3,-10,-8,-6,-7,-4,-10,-9
1528885242548863,-7,-1,-4,-6,-4,1,-5,1
1528885242562800,-2,5,1,1,5,0,-7,-15
1528885242562800,9,6,9,2,24,5,-7,-2
1528885242570727,-2,-5,-2,1,-28,2,-3,5
1528885242570727,1,0,-2,-2,1,-1,4,-1
1528885242585037,1,-1,-1,-5,-13,-5,-5,-10
1528885242585037,-3,-5,-5,-3,2,5,-1,6
1528885242594102,-3,-1,-2,2,11,-1,-4,-8
1528885242594102,0,-4,-4,-1,15,4,2,4
1528885242608567,-1,3,0,-8,-44,-8,11,-9
1528885242608567,0,-2,1,15,20,8,-6,8
1528885242609633,0,-5,-1,0,16,1,-2,-1
1528885242609633,-2,0,-2,-5,-15,-4,4,3
1528885242622639,0,8,6,2,16,4,-6,-10
1528885242622639,1,-1,-2,-1,-2,-4,-3,-2
1528885242629582,-5,-5,-3,2,7,0,-1,-1
1528885242629582,0,0,2,-1,-7,3,0,7
1528885242644544,1,2,1,-3,2,2,7,-2
1528885242644544,-1,-4,-6,-12,-22,-8,-3,2
1528885242653519,1,0,1,-1,5,1,4,-8
1528885242653519,0,0,0,-3,-10,-1,1,7
1528885242668701,2,2,2,8,9,-3,-11,-2
1528885242668701,-4,-3,-2,-2,-3,-1,5,-2
1528885242669543,0,-1,-1,-3,-6,2,7,11
1528885242669543,-2,-3,-2,0,1,-1,2,-3
1528885242682549,-1,-2,-1,0,2,-3,-2,2
1528885242682549,-1,0,-3,-2,-4,-3,-5,-3
1528885242690521,-1,3,1,0,-1,-2,-6,-2
1528885242690521,-1,0,-1,2,-4,-1,5,-2
1528885242705479,0,2,1,3,6,5,-6,-4
1528885242705479,-1,-5,-3,-3,-2,-6,-1,3
1528885242713843,1,0,0,-1,-5,-2,-2,-2
1528885242713843,0,2,1,0,-2,0,2,0
1528885242728529,1,1,-2,0,9,-3,-2,2
1528885242728529,-3,-2,-1,-1,-3,-1,-3,-3
1528885242729518,-10,-7,-4,-4,-6,0,0,-2
1528885242729518,6,-3,-6,-3,2,-4,-25,-21
1528885242742745,2,0,1,-1,0,6,19,22
1528885242742745,2,5,6,3,4,-2,-2,0
1528885242750734,6,6,4,0,1,0,1,0
1528885242750734,-4,1,1,1,-1,1,0,4
1528885242765665,-2,-5,-4,-4,0,-1,-7,-11
1528885242765665,-2,-4,-5,-5,-5,-1,-5,-3
1528885242774038,-2,-4,2,3,1,-2,-3,3
1528885242774038,-5,-3,-3,0,-1,1,7,0
1528885242788886,-1,1,2,0,-2,-1,-5,-4
1528885242788886,2,1,1,1,2,0,5,2
1528885242788886,-5,-3,-4,-3,-2,0,-5,-5
1528885242788886,1,-1,-4,0,0,-1,5,4
1528885242802721,-4,-1,4,1,1,0,-2,-2
1528885242802721,6,3,5,2,0,1,-2,-2
1528885242810697,3,2,0,0,1,0,-1,1
1528885242810697,-5,-9,-4,-4,-5,-3,0,0
1528885242825394,2,5,-2,-1,0,-1,-3,-1
1528885242825394,-3,-2,-3,-3,-1,-1,-3,-3
1528885242833623,-3,-13,-6,0,-1,-1,-1,-2
1528885242833623,4,18,19,3,0,-1,4,2
1528885242857647,-8,-29,-14,-4,0,0,-4,-5
1528885242857647,0,21,13,3,0,-1,1,0
1528885242860913,2,9,-1,0,0,1,0,1
1528885242860913,0,-6,-4,-1,0,1,-1,3
1528885242863634,-1,-1,-5,0,0,-1,-2,-1
1528885242863634,-4,-12,-15,-2,-3,-1,-1,-2
1528885242873240,-13,-12,6,-3,-2,-2,-2,-3
1528885242873240,-2,1,-1,1,0,-2,1,-2
1528885242885130,12,12,4,2,-1,-1,-2,-2
1528885242885130,-7,-10,-7,-1,1,0,1,2
1528885242893851,5,9,-4,-5,-2,-2,-1,-3
1528885242893851,-3,-8,10,0,-2,-1,0,-2
1528885242908098,5,7,-1,0,-1,0,-1,0
1528885242908098,3,-2,-1,1,0,-1,0,0
1528885242909063,-4,-3,-6,-1,-1,0,0,0
1528885242909063,8,9,0,-1,0,1,1,3
1528885242923372,-5,4,8,2,-2,-2,0,-1
1528885242923372,4,-4,-8,-1,1,1,0,-2
1528885242930805,1,-1,7,1,-1,0,-2,1
1528885242930805,-10,-25,-14,-1,1,-2,0,0
1528885242944956,-2,14,-3,-3,-1,3,0,0
1528885242944956,6,13,10,5,10,-1,-2,1
1528885242953152,7,2,8,0,-14,-1,-1,1
1528885242953152,-4,-1,-1,-1,5,1,0,0
1528885242967539,-5,-10,-4,-4,-7,-3,-1,-3
1528885242967539,-5,-9,-4,0,1,-1,-3,-2
1528885242976426,4,2,-2,-3,2,1,-1,-1
1528885242976426,2,3,3,5,13,0,1,-2
1528885242983264,-1,-7,-13,-11,-19,-4,-2,0
1528885242983264,-2,-2,-1,-9,-9,-1,0,-1
1528885242991401,-1,3,8,6,-1,-4,-2,-2
1528885242991401,0,2,-1,-3,-1,1,2,0
1528885243005365,0,0,2,6,10,2,-1,0
1528885243005365,-2,-3,-4,-2,-1,1,-1,0
1528885243013270,1,1,-3,-1,1,1,-1,0
1528885243013270,4,5,2,-1,-6,-2,-1,0
1528885243027701,-1,2,2,0,2,0,0,-1
1528885243027701,-1,-2,0,5,-1,0,1,0
1528885243036434,1,-6,-6,-3,-7,-1,-2,-3
1528885243036434,-2,-1,-2,-1,0,0,-1,-1
1528885243042253,0,-1,4,0,7,-1,-1,0
1528885243042253,-3,-2,2,2,2,1,0,0
1528885243050458,-6,-6,-8,-7,-14,-7,1,-5
1528885243050458,0,-1,-7,-1,-5,-1,-2,1
1528885243065433,1,-1,5,1,-1,-1,0,0
1528885243065433,2,2,4,5,12,3,0,0
1528885243073412,0,4,0,-5,-5,0,0,1
1528885243073412,1,3,1,-2,-7,1,0,0
1528885243088258,-2,-3,0,0,5,1,0,0
