timestamp,emg1,emg2,emg3,emg4,emg5,emg6,emg7,emg8
1528874787971445,0,-7,1,-2,-1,-1,0,0
1528874787971445,-3,-8,3,2,2,1,1,1
1528874787981418,-5,-13,-18,-19,-5,-1,-4,-5
1528874787981418,-3,5,-3,13,0,-3,-1,-2
1528874787987406,4,6,4,2,-5,0,1,-1
1528874787987406,1,-3,-8,-6,9,2,0,-2
1528874788001365,-1,2,7,5,-2,-1,1,-1
1528874788001365,0,-5,2,0,3,1,2,-1
1528874788012336,0,7,-2,4,1,-1,-1,-1
1528874788012336,-5,-7,-4,-1,0,-1,1,0
1528874788016325,4,0,0,7,3,2,2,3
1528874788016325,-7,0,0,-3,2,1,-1,-2
1528874788031285,1,-10,-7,1,-2,-4,-4,0
1528874788031285,-2,2,4,-5,-10,-1,1,-2
1528874788039264,4,1,-7,-14,-1,2,0,2
1528874788039264,4,16,8,14,13,2,0,1
1528874788079157,0,8,10,1,-7,-1,-3,0
1528874788079157,-3,-12,-1,8,4,1,-1,-1
1528874788080154,-8,-12,-12,-18,-6,-1,-1,-3
1528874788080154,-1,-2,0,2,5,0,-1,-2
1528874788081152,1,-3,-9,-7,-11,-6,-3,-1
1528874788081152,5,8,6,-1,3,0,2,3
1528874788084143,-2,-8,5,14,4,-1,-1,1
1528874788084143,-4,-4,-7,-4,-1,1,0,0
1528874788091126,-2,7,-1,6,3,-1,-1,-1
1528874788091126,-3,-4,-4,-8,-10,-3,-1,-4
1528874788098107,5,4,6,-5,8,6,3,2
1528874788098107,2,6,3,-3,-7,-2,-2,-5
1528874788107084,-1,-3,2,9,14,3,0,-5
1528874788107084,3,0,-5,-1,2,-1,1,12
1528874788121044,-2,2,2,0,1,0,-1,-1
1528874788121044,3,2,0,-2,-2,0,0,2
1528874788128026,-3,-9,-7,-3,-3,0,-1,-4
1528874788128026,-1,1,3,3,5,2,0,-5
1528874788136004,1,3,1,10,4,-1,-1,2
1528874788136004,-4,-5,-9,-21,-19,-9,-6,-5
1528874788150965,0,-2,4,-5,-7,-4,4,7
1528874788150965,0,2,1,4,5,4,2,1
1528874788157947,1,-3,0,18,4,-1,-1,1
1528874788157947,-2,0,-2,2,3,1,2,-2
1528874788167920,-3,-3,3,-6,0,2,0,-1
1528874788167920,-1,8,3,-4,1,0,-1,-1
1528874788181883,1,0,-9,-23,-16,-5,0,0
1528874788181883,2,-4,2,16,10,1,1,0
1528874788187867,1,-5,-8,-15,-1,5,1,3
1528874788187867,3,1,4,2,-3,-4,-3,-1
1528874788195845,-1,1,-8,-20,-5,1,-2,-3
1528874788195845,-2,1,4,5,-2,-3,0,1
1528874788210806,-8,-2,3,6,15,6,2,-4
1528874788210806,-9,-13,-7,11,-14,-11,-4,-4
1528874788217786,1,7,3,19,3,-1,-3,-2
1528874788217786,7,6,5,-31,-21,-11,-3,5
1528874788226762,4,3,1,5,-10,-4,-2,1
1528874788226762,-8,-6,-6,-7,18,6,1,-2
1528874788241722,2,-3,-1,-3,-9,-4,0,1
1528874788241722,-5,0,2,24,5,4,1,-1
1528874788247706,4,1,-4,-10,8,7,2,0
1528874788247706,-2,0,-2,-8,-11,-5,-2,0
1528874788255685,-3,1,2,-11,-6,-5,-1,1
1528874788255685,7,5,5,31,22,9,3,2
1528874788270645,-47,-13,-8,-17,-19,-11,-6,-9
1528874788270645,65,9,2,1,-2,5,2,9
1528874788278624,-3,3,2,4,3,-4,-3,-1
1528874788278624,30,5,2,-1,6,4,1,6
1528874788287600,2,0,-6,-9,-15,-8,-2,0
1528874788287600,-25,-1,3,-10,7,3,1,-3
1528874788301563,-8,-5,1,15,10,8,2,-3
1528874788301563,-10,-6,-6,-1,-16,-13,-5,-2
1528874788308545,4,-3,-9,-16,3,5,2,3
1528874788308545,-10,-2,-4,-6,-13,-6,-4,-6
1528874788315526,8,3,3,-4,3,4,2,3
1528874788315526,-17,-5,-3,-5,-13,-12,-5,-4
1528874788330487,13,4,4,11,5,2,-1,2
1528874788330487,-7,-2,-4,2,-19,-9,-3,-1
1528874788338464,-2,0,5,-8,16,6,1,0
1528874788338464,-6,-5,2,10,6,3,0,-2
1528874788347441,2,-2,-6,-3,0,-6,-4,-4
1528874788347441,5,2,5,10,24,13,4,3
1528874788361405,-25,-7,-6,-16,-20,-6,-3,-8
1528874788361405,-9,-4,-3,-11,-3,3,1,3
1528874788368385,40,7,8,24,15,4,-1,4
1528874788368385,-19,-3,-5,-3,0,3,0,-2
1528874788375365,3,-2,3,5,8,3,-2,-1
1528874788375365,6,4,-7,-14,-14,-6,0,2
1528874788390327,-21,-7,-3,-4,0,-2,-3,-5
1528874788390327,12,0,2,16,9,3,0,0
1528874788398305,-7,-4,-6,-11,-9,-10,-4,-4
1528874788398305,-5,-6,-4,-8,-2,0,-2,-5
1528874788407288,-9,2,5,11,5,3,0,-2
1528874788407288,-7,-1,1,1,-5,-1,-1,-3
1528874788421243,14,3,-8,-9,-14,-9,-1,2
1528874788421243,0,1,5,10,24,11,4,2
1528874788428266,10,4,4,13,0,-1,2,2
1528874788428266,-6,-3,-2,7,-13,-7,-2,0
1528874788435244,1,-4,-3,-25,-4,-1,-3,-4
1528874788435244,-22,-8,-4,-4,-2,0,-2,-8
1528874788451201,3,-6,-5,-7,-1,-1,-5,-5
1528874788451201,10,2,-5,-17,-7,-5,-1,5
1528874788458189,26,10,7,35,13,5,4,6
1528874788458189,-5,-8,-1,-11,-11,-8,-2,-1
1528874788467122,4,5,-1,0,1,0,2,-1
1528874788467122,-10,2,6,-3,3,1,0,-3
1528874788481083,-19,-8,-5,-8,-8,-3,-3,-5
1528874788481083,10,3,-2,13,17,4,-1,-1
1528874788488103,-8,-8,2,18,-7,-4,-4,-4
1528874788488103,-1,-3,-6,-6,-10,-1,4,10
1528874788504047,14,1,-4,-48,-1,2,2,4
1528874788504047,-14,1,11,0,4,1,-2,-5
1528874788511003,-12,-9,-3,-6,2,-1,2,-1
1528874788511003,-9,-8,-6,3,0,0,-5,-5
1528874788518024,-38,-5,-6,7,-6,-1,-1,-9
1528874788518024,4,8,3,0,0,-1,-3,-4
1528874788526974,-7,2,8,-7,4,3,6,4
1528874788526974,3,-4,-4,-8,-8,-4,0,0
1528874788541920,28,-9,-2,26,2,1,-2,3
1528874788541920,-45,-5,-15,-4,-1,-4,-3,-13
1528874788547959,47,24,5,14,9,3,-1,7
1528874788547959,-34,4,12,-16,4,8,6,-3
1528874788563863,14,11,7,15,3,-1,1,-3
1528874788563863,35,2,0,2,-2,5,6,14
1528874788570880,-25,-24,-17,-32,-22,-12,-4,-5
1528874788570880,8,-3,-12,10,2,-3,-6,-3
1528874788577863,-11,-3,-4,-9,-3,-2,-3,-2
1528874788577863,-19,-6,14,5,3,5,1,-5
1528874788586837,4,0,-2,27,-2,-4,-2,0
1528874788586837,25,7,1,-41,3,-1,-1,0
1528874788600800,-19,-2,-4,5,-6,-3,0,0
1528874788600800,9,-1,-5,15,11,-1,-2,1
1528874788609739,2,4,-1,6,0,2,0,1
1528874788609739,-3,-5,-10,-17,-11,-7,-3,-2
1528874788623702,8,3,9,19,6,5,2,4
1528874788623702,9,4,-6,-16,3,1,1,4
1528874788630712,-91,-18,3,-4,2,3,0,-18
1528874788630712,47,1,-4,22,-9,-12,-15,1
1528874788638694,11,12,2,3,6,2,3,10
1528874788638694,-7,-7,-10,0,-5,1,2,3
1528874788647669,4,7,7,-1,9,2,3,5
1528874788647669,-39,-15,-6,-1,8,6,4,-9
1528874788661629,0,4,11,5,-8,-6,-3,-3
1528874788661629,20,4,1,13,7,1,-1,3
1528874788668590,1,-6,-4,-4,-10,-5,-2,-5
1528874788668590,-1,8,6,1,4,0,-1,0
1528874788683574,13,-1,-2,1,2,0,2,3
1528874788683574,-9,-4,-2,-4,-11,-9,-4,-3
1528874788690525,14,8,5,5,5,1,0,4
1528874788690525,3,3,1,8,-7,2,1,3
1528874788698542,-10,0,3,2,18,11,1,1
1528874788698542,-6,-4,-5,-16,-12,-5,-3,-3
1528874788707479,4,-3,-5,-10,-10,-6,-5,-4
1528874788707479,3,2,5,8,6,1,4,0
1528874788721440,-8,-6,-4,-9,-2,-1,1,1
1528874788721440,4,0,2,4,2,-3,-4,-8
1528874788728423,41,15,2,0,1,0,4,17
1528874788728423,-23,-1,3,-1,-2,0,2,-2
1528874788744386,1,2,-2,9,2,-1,-3,-3
1528874788744386,-3,-4,4,-10,-6,-3,-2,-1
1528874788750400,-6,2,-1,20,11,9,2,-1
1528874788750400,-10,-5,-3,-12,0,0,1,-4
1528874788758346,0,5,6,4,5,5,2,1
1528874788758346,-1,0,-3,-3,-9,-6,-2,1
1528874788773656,-5,-2,-1,-23,-8,0,0,-3
1528874788773656,7,-4,-7,3,-3,-3,-3,-3
1528874788781670,-21,-12,-7,-2,-3,-2,-3,-10
1528874788781670,24,13,0,-6,2,5,4,9
1528874788788859,4,1,2,-6,-3,0,1,6
1528874788788859,1,-2,4,23,10,0,-1,-1
1528874788804645,-20,-8,-9,-20,-13,-9,-5,-5
1528874788804645,7,4,3,0,2,3,0,0
1528874788810669,-3,-5,-3,11,6,-3,-4,-4
1528874788810669,1,1,2,3,0,4,2,0
1528874788818632,-4,-2,-5,-7,-2,-2,0,-8
1528874788818632,8,0,4,6,5,2,3,5
1528874788833554,1,-2,-4,-2,6,3,-1,-2
1528874788833554,-4,5,8,-4,-12,-5,-1,0
1528874788841531,-2,3,7,13,8,3,0,2
1528874788841531,-7,-2,-4,-4,-10,-3,-1,-3
1528874788848783,14,-3,-3,-10,-3,-2,1,3
1528874788848783,-30,-9,0,12,7,-2,-3,-7
1528874788864659,16,1,-2,-2,-11,-4,0,4
1528874788864659,7,4,-2,-8,-1,3,2,3
1528874788870455,-36,-9,-2,-6,-7,-1,-1,-6
1528874788870455,54,26,14,14,11,6,6,20
1528874788878432,11,-2,0,-23,-11,-5,-3,-1
1528874788878432,-40,-11,-2,10,13,5,0,-5
1528874788893979,30,4,-6,-7,-18,-12,-5,-5
1528874788893979,2,-2,-5,-9,3,4,2,3
1528874788901926,4,7,3,8,1,2,1,2
1528874788901926,-17,-5,-1,-11,-1,3,1,0
1528874788908914,15,-1,-4,5,3,-4,-1,1
1528874788908914,-25,-4,-2,3,5,2,1,-6
1528874788923967,-19,-12,1,6,-2,-2,0,-2
1528874788923967,-21,-11,-4,-6,-4,-5,-5,-7
1528874788930922,20,5,11,3,-7,-4,-6,10
1528874788930922,48,20,1,-9,0,-1,1,1
1528874788938390,17,18,-8,-5,-7,1,-2,12
1528874788938390,24,21,9,7,13,13,16,13
1528874788953373,14,5,6,2,-5,-3,4,-2
1528874788953373,-94,-30,-7,-12,-16,-8,-7,-17
1528874788962187,71,-2,-5,10,10,2,-6,-1
1528874788962187,-27,-32,-7,4,-11,-10,-9,-11
1528874788968669,-47,3,-2,-4,14,7,4,-4
1528874788968669,-64,-12,-18,-17,-13,-5,-3,-13
1528874788983929,43,-4,-20,-2,-2,-10,-10,-11
1528874788983929,16,23,27,-24,-19,0,2,27
1528874788990672,-2,-9,-9,-10,1,-4,-4,-16
1528874788990672,17,5,11,7,-1,4,3,16
1528874788998963,-53,-22,-10,1,-5,-3,-2,-12
1528874788998963,4,-6,-20,9,1,-5,-4,-6
1528874789014055,-32,-5,30,31,15,6,-2,-9
1528874789014055,8,3,2,-12,-16,-3,-5,-8
1528874789022064,-89,-7,-6,-34,-16,-4,0,-22
1528874789022064,63,58,23,62,39,16,17,55
1528874789028920,-27,4,4,-21,-17,-3,0,4
1528874789028920,25,-8,-13,24,14,1,1,15
1528874789043487,-52,-3,5,-7,-6,15,9,-1
1528874789043487,-16,9,25,12,8,-13,-5,-21
1528874789052493,13,0,-8,-16,-17,-4,0,3
1528874789052493,10,-2,2,13,34,7,2,-3
1528874789066647,1,-8,4,-8,-10,4,0,4
1528874789066647,0,-18,-22,-13,-9,1,-5,-6
1528874789073675,30,10,-3,19,16,2,0,3
1528874789073675,-47,-20,-6,-20,2,2,0,-16
1528874789089876,39,7,-1,7,7,-2,0,10
1528874789089876,26,-4,-6,0,-11,-7,-9,-6
1528874789091639,-26,-10,-2,-9,-4,0,-2,-3
1528874789091639,-26,0,0,5,-13,-6,-3,-5
1528874789103967,42,18,10,9,11,-1,4,16
1528874789103967,-29,-17,-2,-30,-11,-4,-3,-16
1528874789112264,-9,-6,-12,2,3,-3,-2,-3
1528874789112264,6,1,7,21,18,-1,-2,-1
1528874789127222,-32,-8,2,1,-28,-10,-5,-5
1528874789127222,39,3,-14,-11,-4,-1,0,0
1528874789134106,-11,-9,-6,-6,0,4,2,5
1528874789134106,20,16,9,9,6,2,2,6
1528874789150092,-10,-12,-9,0,4,-8,-5,-5
1528874789150092,-34,0,1,7,6,4,3,-2
1528874789151977,-12,-5,-13,-8,2,-1,-2,-8
1528874789151977,13,11,11,-6,-11,-2,4,11
1528874789163016,-20,-12,1,1,0,-2,-4,-6
1528874789163016,7,0,0,1,1,-2,-3,-2
1528874789172961,24,5,0,-8,-4,-1,-1,5
1528874789172961,-21,-13,-14,-5,6,7,0,-8
1528874789187144,-2,10,8,0,-8,-3,1,0
1528874789187144,2,1,12,12,15,0,1,-1
1528874789193941,-8,0,-10,-5,-16,-5,-1,-1
1528874789193941,-44,-9,10,-12,-7,-6,-6,-13
1528874789216611,83,23,-10,10,16,9,6,21
1528874789216611,-13,0,4,4,-2,0,-1,-5
1528874789218606,-40,-9,-4,-16,-7,-2,-2,-8
1528874789218606,29,4,-8,3,-2,0,2,7
1528874789223596,-33,-8,4,3,8,1,-5,-15
1528874789223596,-26,-15,-11,-18,-9,1,1,-4
1528874789230575,43,16,4,32,20,4,2,9
1528874789230575,-3,-7,-5,-14,-17,-8,-3,-2
1528874789246795,-17,-6,2,0,11,3,2,-3
1528874789246795,18,0,-8,-11,-22,-4,0,2
1528874789253774,-36,-5,8,6,3,4,0,-8
1528874789253774,66,8,-3,-1,-4,-2,-2,11
1528874789269711,-9,-1,-4,6,8,2,3,-1
1528874789269711,-28,-11,-3,-7,-3,-3,-4,-11
1528874789271465,34,14,3,-4,-4,0,3,14
1528874789271465,-11,5,5,16,4,-2,-3,-7
1528874789283687,12,8,3,-18,-6,2,3,5
1528874789283687,-11,-9,-8,-8,-1,-1,-2,-5
1528874789292654,1,-8,1,14,6,-2,-1,0
1528874789292654,4,7,-4,-7,-12,0,-1,-1
1528874789306087,12,7,5,11,3,1,1,7
1528874789306087,-21,-7,-3,-8,-2,-3,-2,-5
1528874789313898,46,12,1,-1,0,2,-1,8
1528874789313898,-8,-2,-3,-8,0,-2,1,1
1528874789330053,-18,-6,-3,-1,-6,-6,-4,-6
1528874789330053,8,1,1,6,7,3,2,4
1528874789330808,-40,-10,-4,-6,-3,-5,-3,-10
1528874789330808,29,-1,-7,-11,-3,0,1,5
1528874789343070,-10,-1,-3,0,1,-1,-2,-2
1528874789343070,3,2,0,4,-2,0,-1,1
1528874789352122,-2,1,3,0,-4,-2,0,-2
1528874789352122,-4,0,0,1,1,4,1,-2
1528874789367094,-2,-5,1,3,0,-6,-1,-1
1528874789367094,-18,-6,-4,1,-3,-4,-2,-9
1528874789373235,24,2,-1,-6,-1,1,2,6
1528874789373235,13,5,1,0,4,2,2,8
1528874789389994,-14,-6,-1,-4,-3,-3,-2,-6
1528874789389994,-33,-3,0,-3,-4,-2,-2,-4
1528874789390944,62,20,9,14,11,4,4,13
1528874789390944,-30,-12,-4,1,-5,-3,-1,-4
1528874789403909,18,1,1,5,2,0,-1,3
1528874789403909,31,9,0,-9,-3,-2,1,2
1528874789410890,-56,-17,-5,-7,-4,-1,-3,-12
1528874789410890,50,13,-2,-3,-2,-4,-2,10
1528874789426847,-30,-7,3,0,-1,0,1,-3
1528874789426847,-34,-15,-2,5,4,0,-4,-11
1528874789432884,29,4,-3,-6,-9,-4,-1,0
1528874789432884,-22,-11,-7,-8,1,1,-5,-11
1528874789449842,-21,1,-1,0,-1,-1,0,-4
1528874789449842,31,5,1,-1,-5,0,-2,3
1528874789450784,-47,-9,2,6,3,-1,-6,-10
1528874789450784,16,9,3,-7,-4,0,4,5
1528874789462805,19,3,2,0,3,2,2,5
1528874789462805,-5,-1,-1,1,-2,1,2,3
1528874789472756,18,11,-1,-2,2,1,2,9
1528874789472756,19,1,-1,0,-1,-2,-3,-1
1528874789486741,-11,1,0,1,-1,0,1,0
1528874789486741,-3,0,4,9,3,2,2,-2
1528874789493671,-13,-7,-5,-11,-5,-1,-1,-2
1528874789493671,-11,3,5,11,6,-5,-2,-3
1528874789509627,18,7,1,0,2,1,1,6
1528874789509627,3,0,-4,-6,-1,1,-2,-1
1528874789511621,-5,-4,0,2,1,-3,0,-1
1528874789511621,-12,-5,-2,0,0,3,0,-3
1528874789523589,-1,0,1,-2,-2,-1,0,-4
1528874789523589,22,5,0,-1,-1,-2,-1,5
1528874789532618,-7,-5,-2,0,1,1,0,-2
1528874789532618,-10,-2,-2,0,-2,-3,-1,-2
1528874789547525,0,-1,-2,-3,-1,0,-1,1
1528874789547525,3,0,-1,0,1,0,0,0
1528874789553509,-3,1,2,1,-2,-1,-1,-2
1528874789553509,-2,-1,-1,-1,-1,1,2,0
1528874789568469,-5,-7,-5,1,1,-1,-3,-2
1528874789568469,8,0,-3,-1,-1,-2,-2,-2
1528874789569466,5,4,1,-1,-2,0,0,3
1528874789569466,-7,-1,3,2,1,0,-1,-2
1528874789591408,0,2,1,2,3,2,-1,-2
1528874789591408,-2,-4,-5,-4,-7,-7,-2,-3
1528874789592405,-2,-4,-2,-2,-2,-1,-1,0
1528874789592405,-9,-3,-1,-1,-2,1,0,-1
1528874789607365,10,0,0,0,0,-1,1,3
1528874789607365,-1,-3,-1,2,7,4,1,1
1528874789614346,-3,-3,1,-2,-7,-2,-1,-3
1528874789614346,-6,-2,2,3,1,0,-1,-1
1528874789629306,-2,0,0,0,-4,-2,-3,-3
1528874789629306,3,1,-2,-3,-1,1,-1,1
1528874789629306,1,1,-2,1,3,3,3,1
1528874789629306,-1,1,1,1,-2,-1,1,0
1528874789651248,-1,-4,-5,0,1,-2,-2,1
1528874789651248,0,1,0,1,0,-1,0,0
1528874789652245,-2,-3,-5,-3,1,-1,-2,-2
1528874789652245,-1,-5,-5,-3,1,-1,-2,-4
1528874789667205,0,1,0,-2,-1,-1,-1,-1
