timestamp,emg1,emg2,emg3,emg4,emg5,emg6,emg7,emg8
1529300579985206,-6,2,3,-7,2,-1,-3,0
1529300579985206,-26,8,-1,-1,-12,14,-1,11
1529300579992186,18,-13,-4,-1,0,-14,5,-12
1529300579992186,-3,-1,1,0,-9,-6,-2,-1
1529300580000165,-16,0,-10,-17,3,10,-2,3
1529300580000165,15,-5,-1,7,-7,-7,-13,-6
1529300580015125,0,-1,4,16,13,-1,1,-7
1529300580015125,-6,5,2,16,25,10,2,7
1529300580022106,-6,0,-4,2,2,7,3,3
1529300580022106,13,-5,-4,-25,8,-12,1,-6
1529300580052025,-10,-2,-3,-9,-26,-9,-27,1
1529300580052025,-9,-2,-2,-5,-20,-1,1,-1
1529300580060004,21,-2,2,-4,-9,-12,10,-3
1529300580060004,-5,-2,1,15,9,10,23,-1
1529300580077957,3,-3,-4,-3,8,-11,0,0
1529300580077957,-6,-1,-2,3,1,-3,7,-2
1529300580097904,8,-2,-1,-1,-7,-7,-1,-2
1529300580097904,-3,-5,-9,-28,-15,-4,8,-3
1529300580104885,-4,-1,-4,-11,-7,-7,-29,-2
1529300580104885,5,2,2,4,7,3,4,5
1529300580119844,-6,2,-1,8,9,6,25,-8
1529300580119844,-4,-6,-3,-12,-15,-1,16,-3
1529300580128821,-2,-6,4,12,-4,-9,-17,-2
1529300580128821,1,-7,-5,-18,-9,-2,8,-5
1529300580142784,-6,5,2,10,-7,-7,-21,1
1529300580142784,-2,0,-1,3,29,7,-21,1
1529300580157743,-4,0,-6,1,9,14,29,7
1529300580157743,3,3,8,7,18,-1,-2,4
1529300580164725,-2,-4,-8,0,-18,-12,-12,-2
1529300580164725,-2,3,3,-15,-11,5,7,-5
1529300580181680,3,-2,-8,-25,-26,-8,-4,2
1529300580181680,-2,-2,1,8,11,0,-3,0
1529300580187665,0,-6,1,4,-12,-2,2,1
1529300580187665,0,-6,0,-16,-1,8,-2,0
1529300580202626,-1,0,-2,3,13,1,-4,0
1529300580202626,-3,-2,-2,10,-13,2,18,-2
1529300580217583,-2,7,5,-2,-1,-3,-7,0
1529300580217583,0,4,0,7,-3,0,7,0
1529300580224566,9,-2,-10,-1,1,2,3,-1
1529300580224566,-8,-6,-1,4,0,-3,-8,-7
1529300580240543,-10,-13,6,-5,9,2,-2,2
1529300580240543,-4,0,3,7,-1,-4,0,-3
1529300580247504,3,6,0,-10,-4,3,4,0
1529300580247504,-5,-6,-12,-8,-3,-6,1,2
1529300580262491,-1,-2,5,2,-6,-5,-7,0
1529300580262491,2,-4,3,2,-2,-2,3,-4
1529300580278423,4,-14,0,-23,-5,-1,-16,-2
1529300580278423,-1,-7,-12,4,-5,-7,-1,-2
1529300580284408,-2,2,15,4,-1,1,1,-3
1529300580284408,-9,-15,-44,-17,-14,-2,-1,-2
1529300580315322,20,1,13,-12,-1,-16,3,-11
1529300580315322,-6,-7,-29,-20,5,-1,-1,0
1529300580322304,-19,-7,-7,0,-8,23,9,13
1529300580322304,26,5,-8,1,4,-21,-14,-11
1529300580330282,-15,4,-12,15,6,2,0,3
1529300580330282,-29,-17,-18,4,-9,9,-12,-3
1529300580345242,-7,7,7,6,2,6,-12,5
1529300580345242,17,0,10,6,2,1,4,5
1529300580360202,-9,1,8,11,10,3,-36,-7
1529300580360202,-16,-9,-7,-1,2,2,7,11
1529300580375163,7,-2,-2,-19,-5,-14,-21,-17
1529300580375163,-1,3,12,4,-6,-5,3,-5
1529300580382145,-12,0,3,-7,-10,2,7,4
1529300580382145,7,3,22,10,-9,-2,-3,-2
1529300580397104,6,-1,21,7,5,4,7,-1
1529300580397104,-11,-6,-1,7,13,-3,-7,1
1529300580405084,-3,-1,-15,-19,-8,3,5,3
1529300580405084,3,-6,-6,19,14,-3,-1,-6
1529300580420044,-3,-4,-16,-24,-9,0,3,1
1529300580420044,-7,5,4,8,-7,6,-2,3
1529300580427026,10,1,5,13,5,-7,2,-2
1529300580427026,-3,-1,-6,-3,0,0,-1,-1
1529300580442023,-3,-5,1,1,-4,-2,5,-1
1529300580442023,-2,2,10,1,-6,3,-1,-1
1529300580456972,-2,-3,-5,1,-1,-1,-6,-2
1529300580456972,9,6,4,-20,-7,-6,1,2
1529300580464922,4,0,17,13,9,5,25,8
1529300580464922,-12,-4,-9,-15,-5,-1,-27,-6
1529300580479885,8,4,3,10,-3,-5,2,-4
1529300580479885,11,10,-3,0,-5,0,-1,-4
1529300580487862,-30,-2,-4,-2,5,4,-20,3
1529300580487862,8,1,9,-3,-2,-2,21,0
1529300580502821,13,2,12,-14,-9,1,9,-4
1529300580502821,-6,0,-9,-5,-6,-4,-5,0
1529300580517816,1,-3,5,17,11,1,-8,-2
1529300580517816,-6,-9,-15,-5,-9,5,6,3
1529300580524765,2,-6,-14,-17,-3,-6,-10,-4
1529300580524765,-5,-5,4,-2,1,1,-1,-1
1529300580539759,-7,-10,10,7,3,5,4,2
1529300580539759,12,4,22,13,1,-1,13,3
1529300580547702,-13,1,11,4,3,-7,-20,-10
1529300580547702,8,-9,1,-4,-2,-2,6,4
1529300580562715,-2,-5,-3,-5,-9,0,18,1
1529300580562715,4,2,-40,0,0,-1,-10,-1
1529300580577622,-7,9,-34,-1,3,-5,-29,-12
1529300580577622,5,-2,-20,-6,-3,-2,-1,-1
1529300580584633,-1,-3,-49,2,1,0,16,9
1529300580584633,3,8,24,3,1,7,12,-8
1529300580599590,-25,-14,-22,-12,-11,-1,4,-7
1529300580599590,1,-3,-6,2,-1,-7,-35,5
1529300580607570,10,1,3,4,-1,-5,4,-24
1529300580607570,6,6,9,0,2,4,-1,5
1529300580622503,10,6,13,3,3,1,-3,13
1529300580622503,-7,-3,1,2,5,6,2,-8
1529300580637461,4,-3,-10,-2,1,1,3,8
1529300580637461,4,1,-11,2,2,-2,7,-12
1529300580644444,-1,0,-8,-6,-7,-4,-3,3
1529300580644444,-19,-8,21,0,-10,-1,-4,-7
1529300580667417,13,0,7,-2,6,-4,1,3
1529300580667417,-6,-3,-25,-11,1,6,3,3
1529300580675388,4,2,32,3,-5,-4,-6,-1
1529300580675388,5,3,4,0,1,-2,-4,1
1529300580690320,-7,-6,-10,0,0,-3,-13,-7
1529300580690320,5,5,-7,-3,-4,-6,-8,1
1529300580705312,2,4,-4,-2,-5,0,3,1
1529300580705312,-2,-5,-9,3,2,1,-4,2
1529300580727223,0,-3,2,-1,13,7,-2,-3
1529300580727223,0,-5,1,-3,-5,0,0,-3
1529300580735222,-2,-4,6,2,-9,-5,-4,0
1529300580735222,-7,-4,-2,4,-7,-5,1,0
1529300580750160,-4,-6,-13,-5,1,2,1,4
1529300580750160,-6,-1,5,-4,-4,3,0,-1
1529300580765122,-1,5,6,-4,-7,-3,-5,-3
1529300580765122,-3,1,-6,-6,9,-1,7,0
1529300580780107,-3,-1,1,-7,-9,-1,-1,0
1529300580780107,-4,-2,-2,2,-2,-4,-3,-1
1529300580787106,-1,1,4,12,8,6,-2,-1
1529300580787106,3,-1,-4,-2,0,-2,-2,0
1529300580802020,1,-3,-8,-7,8,5,5,1
1529300580802020,-8,-4,-11,-2,13,-1,1,4
1529300580817015,-1,-1,1,0,-4,0,-1,-1
1529300580817015,0,-1,-2,-21,-25,-4,-1,-1
1529300580824997,1,-1,9,5,1,-4,-1,-2
1529300580824997,-2,-4,-15,-23,-15,-1,-1,0
1529300580839954,1,1,2,14,3,-5,-2,-2
1529300580839954,2,-1,3,1,8,-1,-1,-2
1529300580846921,-5,-1,-4,3,3,4,1,1
1529300580846921,-4,0,4,4,0,-1,-2,-1
1529300580862886,-5,0,1,0,2,-1,1,0
1529300580862886,4,-1,6,6,8,3,0,-2
1529300580876822,-4,-3,-1,-6,-4,-2,-4,1
1529300580876822,-5,-2,0,1,-1,-3,-3,-2
1529300580884801,0,-1,0,-2,-8,-6,-3,0
1529300580884801,4,-1,-3,-2,-4,-5,-1,-3
1529300580899812,-8,-2,-4,0,0,5,0,1
1529300580899812,-2,-1,1,-3,3,5,-1,0
1529300580907791,4,1,-1,2,0,-5,-3,-3
1529300580907791,-5,0,-1,6,-3,-1,-3,0
1529300580922751,-5,-2,1,-7,-3,3,0,0
1529300580922751,-1,-2,-4,-2,-6,-1,0,0
1529300580937686,-2,1,0,-1,-2,1,2,-1
1529300580937686,-1,2,1,9,5,0,0,-1
1529300580944692,0,-4,-5,-6,0,2,0,1
1529300580944692,-4,-1,4,-2,-2,-2,-2,-1
1529300580959653,4,0,2,1,-1,-6,-1,-3
1529300580959653,-5,-4,-2,-3,-1,1,-2,0
1529300580967633,-2,-1,-4,-2,-2,0,-1,0
1529300580967633,3,1,1,0,-7,-5,-4,-5
1529300580982595,-4,0,-6,0,-2,3,-2,0
1529300580982595,8,2,2,3,12,6,3,2
1529300580989574,-24,1,1,0,2,-4,0,0
1529300580989574,2,-2,-3,-1,-1,-4,1,0
1529300581004533,8,2,1,1,1,-3,0,-4
1529300581004533,-3,-3,-4,-3,-6,0,-1,1
1529300581019494,-4,-2,-1,-3,-3,-1,0,-1
1529300581019494,5,1,0,3,3,-3,1,-2
1529300581027473,-5,-3,2,3,2,3,-2,0
1529300581027473,0,-3,-8,-4,-2,-1,0,1
1529300581042423,4,3,0,-2,1,-3,0,-2
1529300581042423,-5,-2,-2,1,-2,-2,-2,-3
1529300581049404,0,-4,-5,2,-5,1,-1,-1
1529300581049404,-3,5,7,-3,3,0,0,0
1529300581065319,0,3,0,0,4,1,-1,0
1529300581065319,3,10,4,3,1,0,-1,-3
1529300581080284,-6,-2,-2,1,3,1,2,3
1529300581080284,8,-2,1,-3,-6,-5,-4,-1
1529300581087312,-20,-5,9,-3,-8,-5,-3,-5
1529300581087312,8,-7,1,6,4,0,0,0
1529300581102273,-15,13,-11,-10,-4,2,1,-3
1529300581102273,6,0,-7,-2,0,-2,-2,1
1529300581110363,8,-4,1,5,3,-1,1,-2
1529300581110363,-7,-10,-6,-6,-7,0,-3,1
1529300581125187,-2,-5,-3,0,-3,0,-3,2
1529300581125187,-6,-3,-7,11,1,-2,-1,0
1529300581140147,9,3,0,-17,-1,-4,0,-3
1529300581140147,-12,-10,-6,-13,-7,-1,-3,3
1529300581147098,5,2,11,-8,-5,0,-4,-8
1529300581147098,-3,3,3,5,4,2,-1,-4
1529300581162408,6,4,3,23,15,3,2,5
1529300581162408,-1,1,-3,7,-1,0,-1,3
1529300581170277,0,0,-18,-19,-9,-6,-3,-1
1529300581170277,16,23,6,0,-5,-7,-4,-3
1529300581185489,7,-7,-13,1,3,-4,0,11
1529300581185489,-4,-11,-4,-5,-3,-3,-1,-1
1529300581200499,1,20,-7,1,-5,-1,-2,0
1529300581200499,-6,-6,-8,-13,-6,-2,-4,-6
1529300581207696,4,-8,5,0,-7,-3,-1,-1
1529300581207696,-2,-10,12,-2,6,6,3,1
1529300581222514,-4,-13,9,2,-6,-1,0,-1
1529300581222514,2,-2,-6,-1,-1,-5,-4,-3
1529300581229494,-9,3,-9,4,1,4,2,-4
1529300581229494,8,-4,-10,-2,-4,-1,1,4
1529300581245519,4,5,-12,-9,11,9,3,-4
1529300581245519,-28,-5,-1,-10,-2,0,1,0
1529300581259628,3,0,5,-2,1,-5,-1,-6
1529300581259628,10,-2,-16,-19,-7,0,-1,15
1529300581267601,3,5,5,16,2,0,-5,-6
1529300581267601,1,-1,5,-1,4,-2,4,-3
1529300581282581,-7,-4,-4,-5,-2,-3,-9,-2
1529300581282581,0,1,7,13,-2,-3,-6,-5
1529300581290500,1,0,1,-5,-5,-2,-1,0
1529300581290500,-1,-2,-4,-2,-5,0,0,2
1529300581305497,-2,-8,-5,0,-3,0,-1,-2
1529300581305497,14,4,5,9,2,2,3,1
1529300581312830,-8,-3,-2,-3,2,-3,1,-3
1529300581312830,-1,1,-5,3,-6,-3,-3,-1
1529300581327956,3,-2,0,-2,-4,-4,-1,0
1529300581327956,-1,0,-6,0,0,2,-1,6
1529300581342917,0,1,7,12,3,1,-2,-2
1529300581342917,-14,-2,-1,-1,2,0,0,-6
1529300581349932,-2,0,-10,-9,-5,-2,-3,2
1529300581349932,-3,2,7,5,3,0,3,-2
1529300581364757,-7,-4,14,-2,0,-2,-3,2
1529300581364757,-8,-1,-10,-11,-8,-3,-6,-14
1529300581372855,5,1,-5,4,1,0,6,0
1529300581372855,3,1,-8,-5,2,-2,-4,-3
1529300581387998,4,1,-1,-6,-4,-3,-5,-2
1529300581387998,11,-1,-9,-2,-5,-4,-2,-7
1529300581402825,-8,-3,-5,-4,-3,0,-1,-3
1529300581402825,0,0,9,12,2,2,0,7
1529300581409797,4,-2,2,1,3,-3,1,-6
1529300581409797,-7,-3,-6,-25,-5,-1,-3,0
1529300581424792,4,-1,1,-6,-6,-1,-2,2
1529300581424792,0,-3,2,3,0,-1,-2,-1
1529300581432895,-3,-1,0,6,-1,2,0,6
1529300581432895,-7,-1,6,2,1,2,0,-7
1529300581447696,32,5,8,4,0,1,-2,6
1529300581447696,-28,-5,-6,-1,-1,3,-2,-1
1529300581462820,7,-4,-5,-3,-2,-2,1,0
1529300581462820,7,-1,-7,-9,-1,2,2,2
1529300581469794,-2,2,6,-1,0,-1,-4,3
1529300581469794,21,-1,-4,-2,-3,-9,-16,-9
1529300581484756,-20,3,-1,2,1,5,13,4
1529300581484756,4,8,0,0,1,4,38,13
1529300581492734,-28,-6,-7,-4,-6,-11,-59,-34
1529300581492734,8,-5,1,1,0,-5,-17,0
1529300581507676,-3,-8,-1,2,-1,1,8,-2
1529300581507676,1,-7,0,-1,-2,2,14,6
1529300581515548,-1,-6,1,-3,1,-1,15,5
1529300581515548,-5,-1,3,3,1,5,26,3
1529300581529680,1,3,0,3,-1,1,16,3
1529300581529680,8,5,-3,0,-3,-1,-9,-2
1529300581544798,18,3,-5,-2,1,-3,16,10
1529300581544798,-8,-6,-7,-3,-2,2,16,-5
1529300581552835,16,1,0,2,-2,-4,-29,3
1529300581552835,-5,-1,-1,-3,-2,-3,-14,-6
1529300581567759,8,0,-2,-1,1,0,4,-2
1529300581567759,-40,-8,0,0,-2,-2,-14,-21
1529300581574741,7,1,4,-2,0,3,28,31
1529300581574741,-11,-3,2,6,0,-2,4,-3
1529300581589863,-10,-3,1,0,0,-1,7,-6
1529300581589863,5,0,1,0,0,-2,-1,5
1529300581605010,5,1,-2,-2,-1,0,-3,-7
1529300581605010,5,-1,0,0,-3,-2,-2,7
1529300581612187,-3,-1,-4,-1,-2,-3,-7,-10
1529300581612187,-4,2,-1,2,1,3,8,5
1529300581635548,-2,-2,-4,-5,-1,0,-8,-6
1529300581635548,3,-4,-2,0,0,-4,-6,-2
1529300581642478,-9,-2,0,1,0,2,7,0
1529300581642478,4,-2,-5,-4,-4,0,-4,0
1529300581657691,-5,-3,-3,-3,-2,-1,-6,-7
1529300581657691,-1,2,2,-1,-1,-1,13,2
1529300581672645,-4,-1,0,-1,-1,-4,-20,-5
1529300581672645,-1,-1,0,0,-3,0,2,5
1529300581679513,-7,-2,-1,-1,-1,1,2,-5
1529300581679513,10,2,0,0,-2,-3,1,2
1529300581687605,-14,0,1,-1,-2,-1,-2,-14
1529300581687605,17,3,0,-1,0,-3,-7,5
1529300581694791,-18,-6,-4,-2,1,1,11,8
1529300581694791,-3,-2,1,-1,0,0,-13,-6
1529300581709745,-32,-4,-4,1,-2,1,35,4
1529300581709745,-2,-3,-1,-2,1,-1,-31,-8
1529300581724709,6,0,-3,-1,-3,-4,-21,3
1529300581724709,-6,-1,-3,-2,0,-3,9,-1
1529300581732716,4,0,-1,-2,-3,-2,-10,-2
1529300581732716,-4,0,2,-1,-1,3,15,3
1529300581747732,-4,-1,-2,-1,-1,-1,7,0
1529300581747732,-2,3,-1,2,-1,-2,-9,-2
1529300581754831,15,-2,0,-3,-1,0,4,-1
1529300581754831,1,-1,-1,0,-3,-3,-7,-2
1529300581769989,-3,0,-2,-1,-2,1,-8,-4
1529300581769989,-1,-2,-5,0,1,1,9,1
1529300581784802,4,1,1,-3,0,5,12,8
1529300581784802,-13,-2,-2,-3,-2,1,3,1
1529300581792910,11,4,3,-1,1,-3,-10,-6
1529300581792910,7,-2,0,-3,-4,-6,-28,-9
1529300581807888,0,-1,-1,-1,1,2,17,2
1529300581807888,2,1,-4,-2,-3,1,9,13
1529300581822966,-5,4,-1,1,-1,0,-4,-6
1529300581822966,2,-1,1,-3,0,-1,4,-9
1529300581829898,4,1,-4,0,-3,-3,-12,-3
1529300581829898,-16,-4,0,-3,-3,-2,-2,-1
1529300581845033,-5,-4,-1,0,-1,-2,-4,-7
1529300581845033,0,0,0,-1,-2,-3,-6,5
1529300581852180,-6,-4,0,0,0,-1,-5,-2
1529300581852180,-2,-3,0,-2,1,1,7,-3
1529300581867138,19,3,-1,-2,0,-1,1,5
1529300581867138,4,-1,-5,-2,0,2,-6,2
1529300581874984,-8,-1,-1,-2,-1,1,5,1
1529300581874984,7,1,0,1,0,-1,11,-2
1529300581890050,4,-3,-2,-3,-1,-6,-21,-5
1529300581890050,2,-1,1,0,-1,4,11,7
1529300581905012,-16,-2,-1,-3,-1,1,5,-4
1529300581905012,10,-1,-1,-1,0,-1,10,21
1529300581912214,13,3,1,-3,-1,0,2,1
1529300581912214,-8,-2,-3,-1,-3,-5,-28,-16
1529300581927346,-1,-1,-1,-1,-1,0,4,2
1529300581927346,-7,-3,1,-1,-1,-4,-6,-2
1529300581935184,8,-1,0,0,-2,3,13,9
1529300581935184,-5,-2,-1,-1,1,1,5,2
1529300581950299,1,1,0,-1,0,-1,-3,-1
1529300581950299,-12,-2,-1,-1,-3,-1,-6,-6
1529300581965307,-3,-3,0,-1,-1,-1,2,-5
1529300581965307,-1,2,-1,-2,-1,1,-3,-3
1529300581972419,-6,-2,-1,-2,-2,-3,-6,-4
1529300581972419,-2,0,-1,1,1,-2,5,4
1529300581987396,-3,0,0,-1,-1,1,18,2
1529300581987396,-19,-3,-3,-2,-2,-3,-26,-12
1529300581994786,12,-3,-1,0,-1,-4,0,3
1529300581994786,3,-3,-1,-1,-1,1,12,-6
1529300582009727,-7,1,-1,0,-1,0,2,-1
1529300582009727,-6,0,-1,-1,-1,1,6,1
1529300582024690,-2,0,2,0,-1,1,8,4
1529300582024690,1,-3,-2,-2,-1,-5,3,-4
1529300582032551,10,2,-1,-3,-1,-3,-20,-12
1529300582032551,-1,-2,-1,-1,0,2,22,7
1529300582047483,-3,-4,-3,-2,-2,-5,-38,-15
1529300582047483,6,2,0,-1,-2,2,18,5
1529300582054463,-9,-3,-2,0,-2,-3,-27,-4
1529300582054463,9,1,0,-2,0,0,14,1
1529300582077402,-7,-1,-2,-1,0,0,11,0
1529300582077402,-1,-2,0,0,0,-4,-15,-5
1529300582085417,-2,-4,-2,-1,-2,0,8,3
1529300582085417,-5,0,2,0,-2,-2,-10,-11
1529300582100408,-3,-2,-3,1,0,-1,14,0
1529300582100408,0,2,-1,0,-1,-2,-9,2
1529300582107377,-2,-4,0,-1,-1,-1,-1,-5
1529300582107377,-5,-1,0,1,1,-2,-3,-4
1529300582115356,1,0,2,1,0,4,13,7
1529300582115356,-34,-6,-3,-3,-2,-3,-13,-18
1529300582122335,2,2,2,-1,0,-1,-21,-2
1529300582122335,1,-2,-1,-3,-1,-2,-2,-2
1529300582137297,-8,-1,0,-1,-1,2,8,1
1529300582137297,2,1,0,-1,-2,0,-1,2
1529300582145275,3,-1,-1,0,1,0,19,5
1529300582145275,-9,-1,0,-2,-1,1,-7,-3
1529300582160238,-2,-3,0,0,-2,-1,-1,-2
1529300582160238,3,-1,0,-3,-1,-3,-2,4
1529300582167207,6,0,-3,-2,0,1,22,8
1529300582167207,-24,-5,-2,0,-2,-3,-14,-16
1529300582175193,-1,1,-2,0,-4,-6,-23,-11
1529300582175193,23,1,0,0,1,-1,4,7
1529300582182123,-13,-2,0,-3,-2,-1,-2,-2
1529300582182123,5,-2,0,-1,-2,1,17,8
