timestamp,emg1,emg2,emg3,emg4,emg5,emg6,emg7,emg8
1528452628808849,2,-4,1,5,-19,-23,-8,-5
1528452628808849,-1,-6,-22,-22,6,16,-1,0
1528452628809845,-2,-5,3,17,16,5,3,-2
1528452628809845,-3,-7,-8,-29,-11,-9,-1,-4
1528452628811840,-11,5,-2,-17,-9,1,3,-6
1528452628811840,15,9,11,39,13,-1,-15,-3
1528452628814830,7,-14,-14,-23,-11,0,3,9
1528452628814830,6,18,12,16,6,5,11,5
1528452628817822,-7,9,-2,-9,-5,-1,2,0
1528452628817822,-12,-15,-3,-8,-8,-8,-16,-8
1528452628833781,-2,1,-5,-13,1,-2,-12,-6
1528452628833781,-6,-17,-6,-1,-5,-6,-5,-4
1528452628835776,5,-3,-2,-8,2,0,4,4
1528452628835776,-5,6,6,14,5,9,11,1
1528452628847742,-2,-9,8,18,0,-6,-2,-3
1528452628847742,0,10,-1,-60,-18,-7,-7,-5
1528452628859710,-7,7,-8,18,12,2,0,-3
1528452628859710,14,-5,-3,-21,-4,-5,3,3
1528452628874671,3,4,-11,13,-4,2,1,0
1528452628874671,-3,0,8,4,3,4,0,-3
1528452628915563,-2,-5,-2,16,6,-4,-4,-2
1528452628915563,-2,9,-1,-7,-9,-3,-3,-2
1528452628916560,6,19,10,-18,-5,1,3,0
1528452628916560,0,-1,-18,1,7,8,-6,-1
1528452628919550,1,-19,7,21,26,10,3,2
1528452628919550,-1,-1,-1,4,-1,-7,-1,2
1528452628920548,-7,4,-2,3,-11,-8,-4,-3
1528452628920548,1,13,-5,-5,-11,-9,-4,-4
1528452628927529,-1,-7,-15,-33,-20,-1,-3,-4
1528452628927529,-1,-11,-7,-15,9,2,-2,-3
1528452628933514,-3,-7,7,29,5,0,1,-1
1528452628933514,-6,7,7,-6,-6,0,1,0
1528452628950468,0,-4,-10,-9,-1,0,0,0
1528452628950468,12,12,9,4,-4,-6,-1,-1
1528452628956452,-5,-4,-2,-4,-4,-8,-8,-4
1528452628956452,-15,-7,-3,23,4,-2,3,-5
1528452628965428,0,34,4,2,0,12,-1,0
1528452628965428,6,12,-5,-8,-3,2,3,4
1528452628987369,1,6,-2,13,21,15,1,0
1528452628987369,1,-12,-1,-14,-5,-19,-8,-3
1528452628989365,-4,4,0,-9,-7,-6,-1,-1
1528452628989365,-5,-14,3,-6,-5,-1,-4,-4
1528452629010355,3,5,-7,-15,-31,-15,-1,0
1528452629010355,9,11,11,42,60,19,8,7
1528452629011307,-3,-7,-6,-8,-5,10,4,0
1528452629011307,-5,-5,1,13,-5,-20,-1,0
1528452629025307,1,-16,4,-12,4,16,4,1
1528452629025307,-2,2,-1,-28,-29,-20,-4,-5
1528452629026298,-4,-24,-14,1,-18,-32,-12,-7
1528452629026298,3,-26,2,7,21,27,8,8
1528452629047267,2,-13,3,-7,-2,-7,-2,1
1528452629047267,-3,1,1,-5,-6,6,1,-3
1528452629049243,-2,27,0,-4,-26,-52,-16,-6
1528452629049243,-6,33,-2,-10,-6,13,14,2
1528452629061206,11,14,-1,23,41,52,22,12
1528452629061206,5,2,3,-11,-7,-8,-8,1
1528452629071184,-6,20,2,-4,-2,-1,3,1
1528452629071184,-7,-10,-4,-8,-18,-25,-10,-6
1528452629085110,4,15,-3,0,-7,-12,-5,-4
1528452629085110,2,-65,0,-1,9,27,9,2
1528452629086107,3,-48,6,7,10,13,4,2
1528452629086107,-1,-20,-5,4,5,14,-3,-6
1528452629107051,-11,-34,-4,-14,-6,-10,-5,-3
1528452629107051,-9,-37,-15,-19,-35,-26,-20,-13
1528452629109045,2,-28,4,8,12,9,0,1
1528452629109045,-2,-12,2,7,3,-3,-5,-3
1528452629121033,4,-8,2,3,-1,-3,-3,-2
1528452629121033,-3,-6,1,1,-6,-17,-6,-3
1528452629129989,-3,10,-3,-9,1,12,7,1
1528452629129989,2,6,-5,3,8,17,4,0
1528452629144981,-8,12,6,2,-9,-21,-7,-6
1528452629144981,-2,5,0,1,10,25,16,6
1528452629146972,7,21,-28,-2,10,11,0,1
1528452629146972,-3,14,-13,-10,-4,-4,0,1
1528452629167887,-3,11,-3,-1,-4,-7,-2,-4
1528452629167887,0,30,15,8,3,5,5,1
1528452629168885,0,6,19,3,4,5,6,0
1528452629168885,0,-11,-20,-8,-1,-1,-3,-1
1528452629180880,-5,1,-17,2,6,-7,-5,-4
1528452629180880,3,25,22,-1,5,10,5,3
1528452629189828,-3,-3,11,-10,-7,-3,-3,-2
1528452629189828,-1,-2,-13,-8,-6,-13,-5,-2
1528452629204823,-2,-1,3,27,21,8,2,0
1528452629204823,-6,-3,-22,-10,-5,-1,-5,-3
1528452629212767,0,-4,0,-5,-8,-10,-4,-2
1528452629212767,-5,6,13,0,-2,-3,-4,-2
1528452629227779,1,0,-8,-17,-17,-9,-3,-2
1528452629227779,4,6,-2,6,-1,-2,0,1
1528452629228732,-6,-3,2,5,-1,1,1,-4
1528452629228732,2,10,14,12,7,11,5,0
1528452629240745,-8,-16,6,2,-13,-13,-5,-5
1528452629240745,1,0,-29,-33,-8,-9,-2,-2
1528452629250666,0,-3,5,1,13,10,-3,3
1528452629250666,-5,-7,-6,-6,-4,-5,-5,-5
1528452629264630,-3,-6,2,-4,-17,-1,2,0
1528452629264630,-1,-1,-1,27,21,6,4,-2
1528452629266625,0,-2,-2,-1,-13,-5,-3,-2
1528452629266625,-2,-2,-1,11,5,-4,-4,-2
1528452629287568,-1,-5,5,-20,-9,-6,-6,-2
1528452629287568,-1,-1,-7,-9,-16,-8,-6,-4
1528452629288603,-1,8,10,4,6,6,3,1
1528452629288603,-1,-5,-5,-4,-4,0,-1,1
1528452629301531,-3,-8,-10,-14,-8,-5,-6,-1
1528452629301531,-1,19,14,14,4,-2,-3,1
1528452629310511,4,7,-6,7,11,3,-3,-5
1528452629310511,-6,-2,7,-11,-14,-4,0,-2
1528452629324470,14,-11,-10,11,5,6,5,2
1528452629324470,-4,-4,-1,13,2,-9,-6,-2
1528452629326464,-3,10,-12,-23,-6,-8,-4,-2
1528452629326464,-3,-23,21,15,7,-1,-4,-2
1528452629347408,-6,1,16,-3,-10,-5,-4,-2
1528452629347408,1,2,-16,-2,7,3,0,1
1528452629349401,3,5,12,21,-2,4,4,0
1528452629349401,-2,-15,-10,-8,1,0,3,1
1528452629361370,-2,-3,36,-1,1,3,2,1
1528452629361370,6,24,-28,-6,-3,-4,-1,-1
1528452629370346,-4,-10,-22,-11,-3,3,0,-3
1528452629370346,2,3,-1,-1,-7,-4,0,-1
1528452629384310,-2,-1,4,4,5,6,0,-1
1528452629384310,-3,-9,17,9,12,-7,-4,-3
1528452629391291,-2,-7,-12,4,3,-2,-1,0
1528452629391291,2,10,2,-2,-7,2,-2,-1
1528452629407290,0,0,-17,-10,1,4,-2,0
1528452629407290,-4,-14,7,-11,-16,-8,-4,-1
1528452629409242,4,7,10,8,0,-2,1,-1
1528452629409242,0,-1,-7,-5,0,-3,-4,-4
1528452629421279,-5,5,-11,-10,-3,-6,-3,-1
1528452629421279,8,5,10,-9,-11,-3,3,1
1528452629430186,-3,-12,0,3,-2,6,5,2
1528452629430186,2,7,-7,0,-5,-4,1,-1
1528452629444149,-7,-3,-18,-1,12,3,-1,-3
1528452629444149,-1,-19,1,-4,-6,-10,-6,-2
1528452629451129,2,14,-7,-8,-13,-12,-6,-3
1528452629451129,-9,9,-7,-3,-2,-1,3,1
1528452629467087,9,9,-12,-8,-7,6,8,5
1528452629467087,3,-8,10,29,57,63,22,9
1528452629469082,-3,-18,1,0,-2,-4,-1,-1
1528452629469082,0,2,5,1,4,-4,-6,-2
1528452629481052,-5,1,-4,-3,-8,-8,-3,-4
1528452629481052,0,-5,1,-22,-23,-14,-6,-2
1528452629490026,-2,-7,4,-5,2,5,0,0
1528452629490026,2,8,-11,18,20,15,7,2
1528452629503989,-2,-1,1,-2,-9,-24,-9,-2
1528452629503989,4,11,-4,-3,-1,18,12,3
1528452629511014,-2,7,12,6,2,-3,-2,-3
1528452629511014,1,-2,-10,-23,-19,-18,-7,-3
1528452629526928,-2,-8,-5,1,1,2,-2,-3
1528452629526928,-5,-3,-3,-4,-15,-26,-8,-5
1528452629528921,-2,1,0,-2,3,11,2,0
1528452629528921,0,-13,5,2,6,10,4,0
1528452629549867,-3,-5,-4,2,8,8,0,-2
1528452629549867,-3,-6,-2,0,-8,-7,-4,-3
1528452629551862,-8,-9,0,-2,2,-2,-5,-2
1528452629551862,5,-1,8,-1,-5,-2,-4,-1
1528452629563831,3,1,-1,-3,-3,-6,-3,-1
1528452629563831,-4,-3,1,-2,-4,-7,-1,-2
1528452629570810,6,-2,-1,-3,2,12,2,1
1528452629570810,-5,-5,-6,2,0,-6,-5,-4
1528452629587819,-1,4,4,1,3,8,3,1
1528452629587819,-2,7,0,-2,-4,0,-3,0
1528452629588762,-5,-8,-1,-4,-11,-17,-7,-6
1528452629588762,-1,4,8,1,1,-2,-1,0
1528452629609758,3,4,-16,3,10,18,3,1
1528452629609758,-4,-3,-3,-8,0,14,5,0
1528452629611755,-3,-2,-16,-4,-5,-10,-5,-1
1528452629611755,3,-1,18,6,10,9,2,0
1528452629624699,-3,7,12,5,3,-5,-2,0
1528452629624699,2,-3,-5,2,-19,-23,-12,-4
1528452629638665,-1,12,-4,-5,18,19,6,1
1528452629638665,-3,-7,-14,-7,-1,2,-1,-1
1528452629647605,0,-10,-1,0,-1,-3,-2,-4
1528452629647605,-6,-5,-2,-1,-9,-11,-2,-3
1528452629648602,6,17,-2,-1,-20,-24,-6,-1
1528452629648602,-9,-7,4,-9,-1,-4,-3,-2
1528452629669545,5,5,8,21,16,16,6,1
1528452629669545,0,4,-6,-3,0,-1,-5,-1
1528452629671542,1,-10,-4,-7,-13,-5,-3,-2
1528452629671542,-1,12,1,-3,6,1,-2,-2
1528452629692484,0,-2,4,-5,-8,-9,-4,-4
1528452629692484,0,-7,-5,21,-5,0,-1,-2
1528452629694479,-3,2,1,-19,4,-4,0,-3
1528452629694479,0,8,6,7,0,1,1,0
1528452629707478,-5,-12,6,-23,-10,-10,-3,-1
1528452629707478,0,0,-40,8,11,3,-1,-2
1528452629709469,1,-5,37,7,-6,-5,-2,1
1528452629709469,-1,-6,7,3,-11,-7,-5,-4
1528452629730427,-2,-8,-21,-14,1,-1,-2,-2
1528452629730427,-8,-2,6,-18,0,4,0,-3
1528452629731382,5,-12,6,35,18,3,0,0
1528452629731382,-1,-4,-7,-12,-13,-10,-3,0
1528452629743401,-2,-6,-2,-17,-19,-6,-2,0
1528452629743401,1,-1,24,22,37,14,1,1
1528452629752332,-2,-2,-17,-2,-1,-5,-4,-3
1528452629752332,0,-2,9,7,2,-2,2,1
1528452629767285,-1,-3,-28,-8,-15,-7,-3,-1
1528452629767285,1,-2,-1,-30,-29,-16,-5,-3
1528452629769286,-5,-6,-4,25,22,12,2,-1
1528452629769286,2,5,9,5,-10,-4,-3,-2
1528452629790491,-2,2,-3,-14,-6,-8,-6,-5
1528452629790491,3,7,2,0,-7,2,6,4
1528452629791425,-1,-4,2,18,4,4,1,1
1528452629791425,0,-13,-8,-4,4,-6,-3,-3
1528452629803550,1,14,17,9,4,2,1,-1
1528452629803550,-2,-10,12,-8,-13,-7,0,-4
1528452629812394,-5,-2,-17,-28,-14,-1,-8,-2
1528452629812394,-2,-1,-7,-1,-3,3,5,-1
1528452629827691,-3,-12,-3,5,6,0,-3,-2
1528452629827691,-1,1,17,8,8,2,-2,0
1528452629829714,0,15,-7,-17,-23,-16,-2,0
1528452629829714,5,5,-13,0,7,8,12,7
1528452629849678,2,3,8,12,22,24,13,4
1528452629849678,1,2,3,-3,-7,1,-4,-1
1528452629851658,-2,-7,-17,-6,13,12,7,1
1528452629851658,-3,2,1,5,-1,-4,-9,-3
1528452629863988,-3,4,-9,-5,-9,-18,-11,-6
1528452629863988,1,4,1,-5,-8,-14,-4,0
1528452629872800,2,1,6,0,-2,6,5,2
1528452629872800,-1,1,-9,-7,-2,1,-4,-3
1528452629885928,-6,-20,-3,-12,-20,-33,-13,-6
1528452629885928,-4,-8,-4,12,18,17,6,-2
1528452629894744,1,-13,14,9,17,4,-1,-5
1528452629894744,-3,-10,-14,7,-9,-8,-7,-4
1528452629909862,2,6,12,-1,-4,-1,2,3
1528452629909862,-3,-2,-13,-13,-19,-28,-9,-4
1528452629915832,-1,8,0,-11,-4,0,0,-1
1528452629915832,1,2,-12,0,7,19,7,2
1528452629932970,3,14,8,8,9,9,1,-1
1528452629932970,-2,6,-7,-6,0,-2,0,1
1528452629933970,0,11,0,0,0,15,5,1
1528452629933970,-2,-2,7,-1,0,-7,-5,-1
1528452629945938,0,4,-6,5,-1,-3,-3,-1
1528452629945938,-2,-7,-4,-10,-4,-5,-6,-1
1528452629954916,-3,-21,10,1,-15,-5,1,0
1528452629954916,-3,-23,-5,-4,-16,-10,-3,-3
1528452629968906,2,-8,5,14,30,19,7,2
1528452629968906,-1,-13,-19,-8,2,7,1,-1
1528452629975999,-4,-6,-1,-7,-21,-22,-9,-4
1528452629975999,0,13,0,4,-7,-14,-2,1
1528452629992968,0,8,1,11,13,47,10,3
1528452629992968,-6,-1,-4,-7,2,1,-2,-6
1528452629993823,-1,3,-9,5,4,-6,-3,0
1528452629993823,2,7,18,-22,-9,-7,2,3
1528452630015235,-8,1,-21,2,-7,-12,-3,-1
1528452630015235,2,7,7,4,4,4,1,1
1528452630017075,2,-10,8,-1,0,1,-1,-1
1528452630017075,2,1,-36,3,4,3,-2,-3
1528452630029375,3,4,16,-16,-4,-10,-1,-1
1528452630029375,-5,-5,3,5,0,7,0,-2
1528452630036559,-11,6,24,-3,-9,-17,-6,-6
1528452630036559,5,-4,-25,-12,-8,-3,-4,-2
1528452630052356,0,6,8,14,11,-6,-4,-1
1528452630052356,2,10,-4,11,16,5,3,1
1528452630054353,-1,7,0,-4,2,-1,-4,-3
1528452630054353,-4,1,-6,3,-4,2,0,-2
1528452630075293,1,0,15,-6,-11,-9,-2,-4
1528452630075293,1,-3,20,2,-6,-3,-1,-1
1528452630076291,-1,-15,-28,-9,-3,-3,-3,-1
1528452630076291,-5,-5,-2,-13,-9,-2,-2,-3
1528452630089255,-2,-16,-24,22,8,-5,-2,-1
1528452630089255,-3,-9,0,-27,-11,-3,-1,0
1528452630096237,5,49,13,11,8,3,3,2
1528452630096237,0,-10,26,-10,-5,-4,-1,-1
1528452630112559,-5,-14,-10,-16,-13,-4,-2,-1
1528452630112559,-2,-10,-16,17,6,2,1,0
1528452630114408,-1,-6,-13,6,8,5,0,-2
1528452630114408,0,4,4,0,7,3,1,-2
1528452630135405,0,5,0,-4,-6,-1,2,0
1528452630135405,0,-2,-5,-10,-10,-6,-1,-1
1528452630136350,0,-12,-10,-2,0,2,0,0
1528452630136350,-4,-16,6,13,0,2,0,-2
1528452630149315,-4,5,6,-12,8,0,-2,-2
1528452630149315,2,6,-13,3,3,0,0,-1
1528452630156296,1,8,43,-2,-10,1,-1,0
1528452630156296,-2,-12,-34,3,1,-1,0,0
1528452630172409,0,22,10,-15,-17,-6,-2,-1
1528452630172409,-2,-1,-12,-3,-3,-3,-1,-1
1528452630174248,-5,-9,0,-3,0,-8,-5,-4
1528452630174248,-1,6,18,4,18,14,2,0
1528452630195349,0,-17,-14,-2,-8,0,2,1
1528452630195349,3,7,11,15,18,3,0,0
1528452630196345,-1,-11,-13,-4,-14,-10,-7,-4
1528452630196345,-3,5,9,2,-2,-6,-7,-3
1528452630208513,-1,-6,-12,0,3,-1,-1,-2
1528452630208513,-1,-8,4,1,-1,2,-1,-1
1528452630217337,-2,-7,-19,-10,-1,2,-1,-1
1528452630217337,0,11,41,8,3,-3,-1,1
1528452630232688,0,4,-33,-6,-8,-2,-1,1
1528452630232688,-8,-22,0,-11,-15,-6,-1,-1
1528452630233687,-1,-11,-29,-16,-1,-1,-2,-1
1528452630233687,1,9,1,12,22,12,3,-1
1528452630254764,-1,3,20,3,-9,-1,-2,-1
1528452630254764,-1,0,-9,-4,0,-6,-4,-1
1528452630256624,8,7,-1,-3,-4,-1,6,3
1528452630256624,-3,-7,1,1,0,3,2,-1
1528452630268955,-4,-7,6,8,-4,3,1,-1
1528452630268955,-2,1,3,0,11,1,-2,0
1528452630278001,-1,-9,-3,-7,-7,-4,-5,-1
1528452630278001,2,4,-1,-8,-17,-8,0,0
1528452630292070,0,0,-5,5,20,5,1,-1
1528452630292070,1,6,12,8,-2,5,1,1
1528452630293927,-2,7,12,4,0,5,4,1
1528452630293927,-4,-8,-21,-12,5,2,0,-2
1528452630315206,-2,-5,7,-5,-16,-8,-3,-2
1528452630315206,2,5,2,-4,-2,-2,0,-2
1528452630316202,1,-9,-1,10,13,6,-1,-2
1528452630316202,-2,-12,-15,-6,-14,-9,-4,-3
1528452630329131,1,6,2,1,7,4,-1,0
1528452630329131,0,1,1,9,0,2,4,0
1528452630338183,-2,-5,-9,-4,-1,-3,0,-3
1528452630338183,0,-3,11,-6,-3,0,1,-2
1528452630352466,-1,-5,-18,0,0,-1,-1,1
1528452630352466,1,1,-2,0,-2,-7,-3,-2
1528452630354299,-2,1,4,2,0,3,1,1
1528452630354299,-3,-2,-2,1,2,-1,-1,-2
1528452630375399,-2,-3,7,-3,1,-3,-3,-2
1528452630375399,-2,5,3,0,-7,0,-1,-1
1528452630376369,9,-2,-1,-1,-2,-4,-1,-7
1528452630376369,19,-5,-7,-1,2,0,0,7
1528452630388364,-23,5,0,0,-2,-2,1,8
1528452630388364,1,5,8,-1,-2,2,0,-3
1528452630398219,0,-1,1,1,2,0,0,6
1528452630398219,44,5,1,6,0,-3,-3,18
1528452630412300,-26,-11,-3,-3,-3,-4,-3,-25
1528452630412300,-51,4,8,0,-1,2,0,-15
1528452630414140,6,3,-15,-6,-2,-2,-1,-2
1528452630414140,-14,7,0,-1,-2,-2,-1,1
1528452630435083,26,0,-5,0,0,0,-1,13
1528452630435083,10,1,1,-3,-1,1,-1,4
1528452630437081,-6,3,-2,5,1,0,2,0
1528452630437081,-3,8,0,0,1,-1,-4,0
1528452630449142,3,3,3,1,-1,-3,-1,-2
1528452630449142,8,-10,-2,-7,-2,-2,-2,-5
1528452630458195,-5,-10,-16,-5,-4,0,0,1
1528452630458195,-12,-6,11,4,-1,1,1,-6
1528452630472575,7,-10,-11,-5,-2,-2,-3,-3
1528452630472575,-10,0,-2,-1,-3,-3,-2,-2
1528452630474652,0,-2,4,0,-3,-1,-2,2
1528452630474652,-16,-3,-5,-6,-1,-2,-2,-10
1528452630494517,9,-2,3,0,-1,-2,-2,-1
1528452630494517,11,-4,-6,-4,-3,-3,-1,4
1528452630496512,-16,1,3,3,2,2,1,7
1528452630496512,-18,-8,-2,2,0,-1,0,-5
1528452630508636,0,-3,2,0,-3,0,-1,2
1528452630508636,9,0,-6,-4,-4,-3,-1,1
1528452630517458,1,-5,2,0,0,-3,-1,-6
1528452630517458,-8,2,-4,-2,-2,-1,0,-4
1528452630532577,13,1,1,-2,-5,-3,0,3
1528452630532577,16,3,4,1,0,0,-2,-3
1528452630534410,-51,-1,-12,0,-2,0,-1,-10
1528452630534410,8,5,-2,-1,-2,-1,0,1
1528452630555493,-3,0,-1,1,-2,0,-2,-4
1528452630555493,12,-3,0,-3,-2,0,-1,3
1528452630556352,15,-1,3,-2,0,-3,-2,1
1528452630556352,-6,-2,-2,0,-1,0,-2,-5
1528452630568319,-4,-6,-1,-1,0,0,-1,-1
1528452630568319,-2,-6,1,-1,-1,-1,1,1
1528452630577336,7,-4,-8,-4,-1,-2,0,-1
1528452630577336,-5,-3,3,1,3,1,-1,-3
1528452630592415,0,-1,3,0,-1,-3,-3,-1
1528452630592415,-3,2,-4,0,-2,-2,0,2
1528452630594250,3,-2,7,-9,-9,-5,-3,-3
1528452630594250,3,0,-11,-1,-1,0,0,0
1528452630615350,-3,-1,4,4,6,3,1,0
1528452630615350,-4,1,3,-2,-4,-4,-2,-1
1528452630616261,2,-3,-4,-4,-3,0,1,-1
1528452630616261,0,-1,14,2,-5,-4,-2,-3
1528452630628525,-3,-4,-9,-1,-5,0,0,0
1528452630628525,-2,-2,-17,-5,7,-1,-1,1
1528452630637378,8,2,8,2,0,-2,0,1
1528452630637378,-1,0,-4,-5,-4,0,-1,0
1528452630652460,-4,1,5,-2,-1,-1,1,-1
1528452630652460,1,-4,1,-1,-2,-1,-2,1
1528452630654293,3,-3,-3,2,-3,0,-3,0
1528452630654293,-2,3,2,0,2,-2,0,-4
1528452630675519,-2,1,1,0,0,1,-1,0
1528452630675519,-3,-1,-5,-3,-4,0,-2,0
1528452630676435,2,0,-3,1,3,1,-2,-1
1528452630676435,-1,-3,-2,-1,-1,-2,0,0
1528452630688523,-1,-2,-2,-2,-2,-3,-2,-2
1528452630688523,-4,-4,-5,-1,-1,-2,0,-2
1528452630697378,1,2,3,2,-1,1,0,-2
1528452630697378,-1,0,-2,-1,0,2,-1,-2
1528452630712700,-3,0,-3,-2,-2,0,-1,0
1528452630712700,0,1,0,2,2,2,1,-1
1528452630713561,0,-2,14,7,2,-2,-2,-1
1528452630713561,0,-2,-18,-9,-10,-2,-1,-1
1528452630735061,-1,-2,-2,-1,1,0,-1,1
1528452630735061,-1,-2,0,2,7,0,-2,-1
1528452630736894,-1,-2,-3,-1,-3,-2,-2,-1
1528452630736894,0,-4,3,0,0,1,-1,-2
1528452630748863,-2,-2,-1,-8,-12,-5,-1,-2
1528452630748863,-1,-4,-3,-2,-6,-5,-2,-2
1528452630757839,-1,0,-5,-22,-1,-3,-2,1
1528452630757839,0,6,14,44,37,14,5,1
1528452630771963,-2,-2,-6,-2,3,0,-2,-3
1528452630771963,-4,-7,-9,-11,-14,-4,-2,-2
1528452630778782,-1,0,-6,-8,-9,-4,-1,-1
1528452630778782,-3,-1,2,-17,-13,-7,-3,-2
1528452630794959,0,0,-2,3,1,1,0,-1
1528452630794959,1,2,3,2,4,1,-2,0
1528452630796933,-2,-4,2,3,-1,0,-1,-1
1528452630796933,0,-3,-7,-6,-2,-2,-1,-2
1528452630808901,0,2,5,6,3,-1,-1,-2
1528452630808901,-2,-1,-4,-7,-5,-3,-1,-1
1528452630817877,2,1,-3,6,3,2,0,-1
1528452630817877,-2,-1,1,-5,-4,-5,-3,0
1528452630831868,1,0,-2,-5,-3,-2,-2,1
1528452630831868,1,0,-4,2,2,3,0,0
1528452630838873,-2,1,1,3,2,1,0,-1
1528452630838873,-1,1,8,-1,-4,-1,-2,0
1528452630854833,-1,1,-12,-4,-4,-3,-1,-2
1528452630854833,0,0,2,2,0,0,-1,-1
1528452630856773,1,0,-1,2,0,-1,-2,-2
1528452630856773,-1,2,-2,-5,-4,-2,1,1
1528452630868795,-2,-3,0,-2,1,-1,2,-2
1528452630868795,-2,-3,3,2,-1,1,-2,-1
1528452630877717,-2,0,-20,-2,-1,-2,-2,-4
1528452630877717,1,-2,-5,-3,-5,-2,-1,0
1528452630891681,-1,0,5,2,1,2,0,-1
1528452630891681,0,0,0,2,1,-2,0,0
1528452630898716,-1,-2,5,2,0,1,-2,0
1528452630898716,-2,-1,-3,-3,-2,-1,-1,-2
1528452630914619,-1,-3,1,2,0,-1,-1,0
1528452630914619,-1,1,1,-2,-1,-2,1,-1
1528452630916614,0,-1,0,2,-2,-1,-1,-1
1528452630916614,1,-1,3,-2,-2,-1,-1,-2
1528452630928627,-3,-3,-14,-2,-1,-1,-1,0
1528452630928627,-3,-3,4,-3,-1,-1,-1,-2
1528452630937558,-1,-1,2,1,0,0,-1,0
1528452630937558,-2,-1,-3,-2,-2,0,0,-2
1528452630951575,0,-1,2,-2,-1,0,-2,-1
1528452630951575,-1,1,-1,1,-1,0,-1,0
1528452630958554,-2,-1,-1,0,0,0,0,0
1528452630958554,-1,-4,-3,-2,-1,-3,-1,-1
1528452630975467,-1,0,1,-2,-2,-2,-2,-1
1528452630975467,0,0,-1,-1,0,-2,0,0
1528452630976455,-2,1,4,1,-1,0,0,1
1528452630976455,-1,-1,-4,-2,-2,-2,-3,0
1528452630997449,-2,0,1,0,-1,-1,-1,-1
1528452630997449,-1,0,-4,-1,-1,2,-1,-2
1528452630999420,-2,-1,-1,-2,0,-3,-2,-1
1528452630999420,-1,-2,-3,-3,0,-2,-2,-3
1528452631011412,0,-2,0,0,-3,-2,-2,-1
1528452631011412,-1,0,0,-1,-2,1,0,-1
1528452631018342,-2,-3,0,-2,-1,-2,-2,-3
1528452631018342,-2,-1,-2,0,-3,0,-1,-2
1528452631035351,-2,-1,1,-1,-1,1,0,-2
1528452631035351,-2,-3,-1,-1,0,-1,0,0
1528452631036293,-1,0,-2,-2,-1,-1,0,-1
1528452631036293,0,-2,-2,-2,-3,-3,-1,-2
1528452631057298,0,-4,1,-1,-1,0,-1,1
1528452631057298,-1,0,-1,-1,-2,-2,0,-1
1528452631059232,0,-1,-2,-1,-1,-2,0,0
1528452631059232,1,-2,-2,-3,-2,-1,-1,-1
1528452631072273,0,1,0,0,0,-2,-1,0
1528452631072273,-2,-2,-2,-1,-1,0,-2,-1
1528452631078238,-1,-2,-3,-2,-2,-2,-1,0
1528452631078238,-2,1,-1,1,-1,-2,0,-1
1528452631095136,-3,-2,1,-2,0,-2,-2,-2
1528452631095136,0,-2,0,-2,0,0,-3,-1
1528452631096134,0,-2,-2,1,-1,2,0,-2
1528452631096134,-1,-1,-2,-2,-2,0,0,-1
1528452631117079,-2,1,0,0,-2,-2,-1,-2
1528452631117079,-1,0,-2,1,1,-3,0,-1
1528452631119073,-1,-2,0,-2,-2,-1,-3,0
1528452631119073,1,0,-1,-2,-2,-2,-2,2
1528452631131641,0,-2,-2,-3,-2,-2,-1,-1
1528452631131641,-1,0,-2,-2,-1,-1,-2,-2
1528452631140698,-1,-1,0,0,-1,0,0,-1
1528452631140698,-3,0,-1,-2,0,-1,0,-1
1528452631154909,-1,0,-2,-1,-1,0,-2,-2
1528452631154909,0,-3,0,-1,-1,-1,-1,-2
1528452631156755,-2,-3,-2,-2,-1,-1,-1,-1
1528452631156755,-2,-2,0,0,0,0,-2,0
1528452631177848,0,0,-2,-2,-4,-2,-1,-1
1528452631177848,-1,-3,-4,-3,-5,-2,-2,-2
1528452631179719,0,2,1,1,6,2,0,1
1528452631179719,-1,-3,0,-2,-2,-2,-1,-2
1528452631190858,0,-1,-1,0,-1,0,0,-1
1528452631190858,0,0,-1,-1,-2,-2,-2,-1
1528452631199821,-1,-2,-1,-1,-4,-1,-1,-2
1528452631199821,-1,0,-2,1,-1,-1,-1,-2
1528452631214918,-2,-3,0,-2,-1,-1,-3,0
1528452631214918,-3,-1,0,-1,0,-2,1,0
1528452631216776,-1,-1,-2,-3,-2,-4,1,1
1528452631216776,0,-2,1,0,2,0,-3,-2
1528452631237877,-1,0,-2,-1,-1,-1,0,-1
1528452631237877,-3,-2,-2,0,0,-1,-1,0
1528452631239725,1,1,-1,-1,0,-1,-2,0
1528452631239725,-3,-3,-3,-2,-2,1,-1,0
1528452631251696,0,0,-1,-1,1,0,-2,0
1528452631251696,-1,-1,1,0,-1,-2,-2,0
