timestamp,emg1,emg2,emg3,emg4,emg5,emg6,emg7,emg8
1528881418609590,1,-1,-3,-28,4,-3,1,-1
1528881418609590,-2,-3,-8,5,-3,3,-1,-1
1528881418610588,-4,-4,-4,-15,-3,-3,-1,-2
1528881418610588,-5,-5,-2,-2,-1,-3,-3,-4
1528881418611585,1,2,2,12,2,2,-1,-3
1528881418611585,2,4,3,12,4,0,1,0
1528881418615574,1,3,5,-3,2,1,2,2
1528881418615574,-1,-5,-4,1,-4,-5,-2,-2
1528881418631530,-6,-2,-2,-13,-4,4,-3,-3
1528881418631530,-1,1,1,5,3,-1,1,0
1528881418635519,5,1,-5,3,-1,1,1,1
1528881418635519,1,3,10,6,-1,-1,2,0
1528881418637514,0,0,-1,1,-4,-4,-3,2
1528881418637514,-4,-6,-5,-5,2,-2,-2,-3
1528881418653471,-2,2,1,-1,-1,-1,-2,-3
1528881418653471,2,-1,-5,-5,-5,9,2,1
1528881418662448,-1,-4,-1,16,38,-3,2,1
1528881418662448,0,3,5,-13,-64,-8,-3,-1
1528881418676410,-4,-8,0,-5,-17,-6,-1,-2
1528881418676410,2,1,-5,1,-22,-8,-5,-1
1528881418683391,-1,2,2,-2,-1,4,-1,-3
1528881418683391,0,-3,-3,-14,7,1,-1,-1
1528881418729270,0,-4,1,-2,9,-4,-1,-1
1528881418729270,-1,1,6,-2,-47,-6,0,-1
1528881418730266,-2,-4,-2,-1,-6,14,0,-1
1528881418730266,-2,-5,-9,-3,-3,-12,-1,0
1528881418731264,1,3,-2,-18,24,8,0,0
1528881418731264,1,10,13,19,62,0,-1,-1
1528881418736251,1,0,-1,-2,-13,-6,0,2
1528881418736251,-1,-4,-6,-3,-26,5,1,1
1528881418742234,-7,-9,-8,2,19,-3,-1,-2
1528881418742234,5,5,4,0,39,6,4,4
1528881418751211,1,5,5,6,-4,-2,3,0
1528881418751211,-1,-2,8,2,-71,3,-7,-6
1528881418757193,-1,0,-7,-1,31,-7,-6,-3
1528881418757193,-11,-10,-22,-32,-85,-4,1,-2
1528881418773152,6,-3,-3,7,45,-14,-5,-1
1528881418773152,4,19,18,10,60,25,3,3
1528881418781131,-2,-7,7,-9,0,-3,3,0
1528881418781131,1,8,14,26,-3,18,-2,-3
1528881418788112,1,0,4,16,-36,-7,2,1
1528881418788112,-4,-6,-13,-15,39,-11,-2,-3
1528881418802075,1,0,-5,-5,-61,3,-2,-2
1528881418802075,-1,-10,-12,-9,12,-7,1,1
1528881418811052,-7,-5,-5,-20,-24,-2,-4,-4
1528881418811052,0,0,-2,5,22,-9,1,-1
1528881418817081,-1,1,1,6,0,5,-2,0
1528881418817081,2,1,5,6,-1,-3,5,4
1528881418833038,-1,3,3,6,17,-15,-8,-4
1528881418833038,0,-1,3,-6,28,23,-2,3
1528881418838975,-5,-1,-7,1,-9,-43,-5,-3
1528881418838975,-3,-9,-8,-8,-102,0,-5,-8
1528881418855931,1,0,0,-7,19,-3,-5,-1
1528881418855931,2,3,7,10,14,-3,8,3
1528881418861914,4,7,9,7,-16,4,11,6
1528881418861914,-2,-2,-1,1,34,-5,-14,-5
1528881418870896,-3,-3,-9,-8,9,10,-1,-2
1528881418870896,-3,-5,-8,-8,-24,6,3,0
1528881418876875,1,5,11,26,4,13,-3,1
1528881418876875,-2,0,2,0,27,-8,1,-3
1528881418893836,0,-3,-5,-6,27,20,5,3
1528881418893836,-4,-2,-4,-7,-68,-7,-2,-2
1528881418899813,0,2,4,0,6,8,5,3
1528881418899813,2,-2,-6,-6,19,-29,0,0
1528881418908825,-1,-2,1,1,-23,-3,2,-4
1528881418908825,-1,-3,-1,-1,-3,-4,1,7
1528881418930731,-3,-4,-7,-6,22,10,-6,-4
1528881418930731,-2,0,-1,-7,2,5,-11,-3
1528881418932725,-1,3,6,3,9,-3,1,-2
1528881418932725,0,0,2,10,3,-15,-5,-5
1528881418936727,2,0,-2,-16,-35,-1,6,4
1528881418936727,-5,-11,-15,-14,33,5,5,7
1528881418961648,-7,-4,-12,1,-46,-3,-2,-3
1528881418961648,14,20,32,20,-54,-15,-3,1
1528881418962645,-1,-2,2,9,5,11,-9,-5
1528881418962645,1,3,0,-2,-3,1,3,0
1528881418968629,-7,-13,-20,-23,4,9,2,2
1528881418968629,-11,-14,-20,-3,-5,-16,-5,-9
1528881418981594,10,16,16,2,-7,16,-2,2
1528881418981594,0,-2,6,6,7,-1,4,2
1528881418990570,2,4,9,6,8,5,-2,0
1528881418990570,0,-2,-7,-11,18,-3,3,1
1528881418996554,-2,-5,-14,-14,11,-3,2,-2
1528881418996554,-3,-3,1,25,22,13,4,-1
1528881419013511,2,4,4,0,10,-20,-15,-9
1528881419013511,-1,-3,-1,0,9,21,0,-1
1528881419019493,-2,-5,-4,-5,61,-13,13,11
1528881419019493,0,0,-3,-13,-80,-23,-24,-11
1528881419028471,-2,-8,-16,-11,3,20,5,2
1528881419028471,0,3,19,22,-1,0,-3,-3
1528881419041462,6,8,7,9,14,-4,0,3
1528881419041462,3,7,9,4,-14,-5,10,3
1528881419050423,1,1,-1,-4,-3,-9,2,2
1528881419050423,-5,-6,-15,-16,17,3,-8,0
1528881419056395,-3,-9,-10,-4,-53,-2,-5,8
1528881419056395,-3,0,1,6,22,-10,5,-20
1528881419073350,2,3,4,-1,-24,-8,-7,8
1528881419073350,0,-1,-3,5,34,-9,12,5
1528881419079333,-3,-2,3,17,2,-19,-11,-8
1528881419079333,1,0,-6,-37,-18,15,2,2
1528881419088310,2,4,6,6,25,-5,8,2
1528881419088310,0,-4,-3,-2,21,22,3,1
1528881419102273,0,2,1,-3,-12,1,-4,-5
1528881419102273,-1,-2,-1,7,27,0,-5,2
1528881419111248,-3,-1,2,0,-17,9,-2,-6
1528881419111248,0,1,-2,-8,-14,-16,2,8
1528881419117233,-5,-3,-4,-5,-8,5,-21,-25
1528881419117233,3,0,-1,3,17,13,-6,-3
1528881419133189,3,3,6,8,33,-26,1,-7
1528881419133189,2,1,-2,-13,-30,31,13,-6
1528881419139200,-4,-2,-3,17,26,12,6,37
1528881419139200,7,-3,-6,-14,-11,-10,2,-2
1528881419148150,-4,0,2,-2,3,5,0,-8
1528881419148150,-14,-8,-8,-4,7,-8,-9,-19
1528881419162113,1,6,8,-22,-5,10,18,-5
1528881419162113,2,0,-4,6,-88,-6,-11,12
1528881419171089,-8,-4,8,30,72,-19,-4,-3
1528881419171089,4,-1,-5,3,14,-7,-5,-3
1528881419177124,1,-6,-9,-7,-7,8,1,-3
1528881419177124,0,1,-5,3,33,15,2,11
1528881419200012,5,11,15,-28,-48,-4,0,-6
1528881419200012,-4,-3,3,-5,-74,-16,-6,-5
1528881419201009,0,-1,0,11,62,5,4,25
1528881419201009,1,1,-6,-6,22,28,-8,-26
1528881419214030,-2,-1,12,54,-7,-25,1,10
1528881419214030,0,-2,-9,-26,12,-7,5,4
1528881419221986,-10,-10,-7,-3,-43,3,-11,-22
1528881419221986,-3,10,9,-1,24,-18,-20,-5
1528881419230929,13,1,-6,-14,-34,16,7,1
1528881419230929,-13,2,-3,10,13,-6,-8,9
1528881419236913,3,-5,-5,-16,-43,-14,20,-8
1528881419236913,-5,-5,-3,9,13,-18,-2,6
1528881419253869,-1,0,-3,-15,-17,6,-10,8
1528881419253869,8,-1,-1,5,-8,3,4,-2
1528881419259850,-3,-4,-4,-5,48,-9,-5,-9
1528881419259850,-4,3,8,22,28,8,1,-4
1528881419274822,-3,-1,-6,-12,-10,2,2,-7
1528881419274822,5,-3,-2,-2,-32,1,-1,11
1528881419281844,-3,2,-11,-17,85,-2,-3,-9
1528881419281844,-3,2,20,25,-101,-18,0,-3
1528881419290781,0,0,-5,-2,18,20,2,5
1528881419290781,-3,1,4,6,19,-12,-15,-8
1528881419296769,4,3,1,-8,-31,-10,0,-3
1528881419296769,3,1,-3,-24,31,13,11,10
1528881419313710,0,1,1,13,7,35,2,11
1528881419313710,-2,-2,0,11,8,-18,-9,-7
1528881419319691,-1,-3,-4,-3,-16,-3,-14,-4
1528881419319691,-1,-4,0,-3,19,1,4,8
1528881419334651,-22,-6,-1,2,15,-12,8,-7
1528881419334651,47,18,0,-9,-10,9,-5,-1
1528881419341651,-2,5,7,17,-20,6,-6,0
1528881419341651,-6,-15,-6,-5,22,-1,15,1
1528881419350878,4,10,-5,-7,-9,-8,-4,-6
1528881419350878,-7,-13,-2,-7,15,0,4,2
1528881419356863,3,3,-1,6,-41,-4,4,5
1528881419356863,-12,-9,-8,-8,-15,-7,12,6
1528881419373817,-5,-6,-5,7,53,1,-13,-5
1528881419373817,-4,9,9,8,21,9,11,13
1528881419379803,-1,-1,4,0,-27,-9,-16,-9
1528881419379803,-5,-4,-14,-7,6,14,2,1
1528881419395017,4,-1,11,8,-34,-1,-3,-3
1528881419395017,0,3,-2,5,19,0,8,4
1528881419401992,14,-2,12,26,-1,0,-1,2
1528881419401992,-21,2,-6,-14,5,-4,-8,-5
1528881419410940,0,-4,-7,-8,-19,-4,1,0
1528881419410940,9,7,3,4,12,2,-3,-8
1528881419416729,-1,-6,-2,-9,-7,2,7,4
1528881419416729,16,10,3,3,-5,16,-2,-1
1528881419433657,10,-6,0,0,45,-11,6,3
1528881419433657,-29,-6,1,3,1,-2,-3,-7
1528881419439641,0,1,-3,-4,-8,1,9,-2
1528881419439641,4,0,1,-5,4,1,-4,2
1528881419454654,-14,-4,-9,-4,15,-15,-1,-5
1528881419454654,7,-1,-3,-10,-11,20,-7,2
1528881419461582,-1,3,10,18,1,-4,-3,-1
1528881419461582,-5,-1,7,10,1,-4,2,-3
1528881419470592,8,0,-7,-22,-19,-1,0,2
1528881419470592,4,-1,0,3,-2,-2,-1,-3
1528881419476573,8,0,9,23,-48,-12,-2,-1
1528881419476573,-10,7,-3,-15,32,-2,-1,1
1528881419493497,-3,-3,-2,-2,-23,6,-3,1
1528881419493497,-10,-7,-8,-19,7,2,6,-2
1528881419499528,-6,0,0,4,43,10,-3,0
1528881419499528,11,-1,1,6,-17,-16,-6,2
1528881419514723,3,1,-2,4,18,6,-2,-3
1528881419514723,-4,0,-4,-11,-12,-6,2,0
1528881419522110,7,2,-1,-12,7,3,10,9
1528881419522110,1,-5,-6,18,14,-4,1,-5
1528881419530680,-7,5,4,-12,-11,7,2,1
1528881419530680,1,-3,0,2,-14,0,-1,-1
1528881419544889,1,2,-4,-2,8,-2,0,-2
1528881419544889,-26,-9,-2,-4,12,15,-12,-1
1528881419553618,25,4,0,-10,-11,-9,7,2
1528881419553618,-2,-4,-3,1,-45,-7,-3,-1
1528881419559603,17,3,-5,-5,-8,5,-4,0
1528881419559603,-24,-6,-3,-5,-19,-8,8,-2
1528881419574597,-10,-4,0,2,-35,3,-5,-3
1528881419574597,-3,5,7,5,75,14,1,-4
1528881419581582,-9,-4,-8,-5,-24,-1,23,5
1528881419581582,20,6,3,2,-3,7,-2,1
1528881419590830,-2,-2,-1,6,17,9,-27,-2
1528881419590830,1,2,0,-15,-30,-28,-7,-7
1528881419604254,-11,-2,-7,14,85,2,-11,-6
1528881419604254,14,3,16,22,-20,4,18,5
1528881419613233,-5,-4,-13,-17,46,-1,12,0
1528881419613233,-1,1,11,29,-9,6,-18,2
1528881419619621,-7,0,-5,-31,11,-2,18,-1
1528881419619621,11,6,8,16,48,5,-21,2
1528881419635261,-13,1,-3,-9,-8,-1,4,5
1528881419635261,2,-13,-3,7,30,3,-18,-8
1528881419642495,14,12,-4,-33,-109,-9,-12,-11
1528881419642495,22,-2,-4,14,90,-13,3,-1
1528881419650949,-7,-9,-7,-13,-65,5,6,-1
1528881419650949,1,-2,-3,5,31,7,23,11
1528881419664890,-16,-8,3,12,-11,-1,-12,1
1528881419664890,0,-3,-6,-22,-70,1,-3,-5
1528881419673533,5,3,7,18,37,-9,-3,-2
1528881419673533,-14,-5,-8,-5,-34,-5,10,1
1528881419679516,-1,-3,4,1,21,6,7,4
1528881419679516,-2,4,1,-8,-4,4,6,3
1528881419694986,-2,-6,-4,11,-39,4,-3,-6
1528881419694986,13,11,0,-10,-7,-12,8,10
1528881419702309,-5,-7,0,0,1,-14,-32,-8
1528881419702309,-2,-3,-4,-4,13,-7,5,-2
1528881419717247,-5,-1,9,25,33,2,16,-4
1528881419717247,-3,3,0,-9,-77,-24,-19,-6
1528881419724839,-2,-1,-4,-11,8,19,10,4
1528881419724839,-12,-11,-10,-16,-28,0,4,-2
1528881419740021,29,1,2,14,6,1,-1,4
1528881419740021,-9,7,-2,-6,33,-8,-3,-3
1528881419740777,-12,-1,4,3,-36,-8,-7,-1
1528881419740777,0,-3,2,1,12,10,-4,-6
1528881419754979,43,16,-4,-4,23,-10,1,6
1528881419754979,5,-6,-4,-13,-79,-6,0,-1
1528881419761731,3,-1,2,14,59,7,-1,0
1528881419761731,-6,-2,-8,-15,5,-11,-2,1
1528881419776927,-21,2,3,-9,-37,-1,-3,-1
1528881419776927,10,1,2,10,29,18,8,1
1528881419784906,-3,3,6,14,16,4,-12,3
1528881419784906,-3,-2,0,-7,-5,-17,-11,-2
1528881419800757,2,4,3,4,60,6,-21,-3
1528881419800757,-9,-5,-4,8,-62,-21,-8,-3
1528881419801646,10,-4,-3,-13,-5,4,9,0
1528881419801646,10,12,4,4,17,6,4,3
1528881419815207,-19,-9,-4,-9,-60,-1,3,1
1528881419815207,6,-2,-5,2,75,11,2,-2
1528881419822252,0,-2,-2,-3,-30,2,6,1
1528881419822252,3,-3,-2,14,37,-16,-13,-8
1528881419837214,-26,-1,1,-8,-38,3,15,-1
1528881419837214,61,11,11,9,17,7,13,3
1528881419844585,-17,1,-1,-4,-7,-6,6,-1
1528881419844585,-4,-1,-5,-8,20,19,-13,0
1528881419860392,-18,-12,-10,-12,-88,-21,-7,-13
1528881419860392,-10,-5,1,-11,13,11,7,3
1528881419861391,13,0,-4,-5,12,-5,-1,-1
1528881419861391,0,6,7,15,11,4,-6,-1
1528881419874116,-13,-3,1,12,56,1,-5,3
1528881419874116,-22,-5,-5,-18,-18,0,-3,-1
1528881419882096,13,8,9,15,-10,4,4,1
1528881419882096,-7,-10,-8,-1,-11,3,13,-2
1528881419897057,10,1,4,-3,-4,-1,-9,3
1528881419897057,-22,-1,0,-1,42,10,15,4
1528881419904035,-7,-1,0,1,-25,-8,-4,3
1528881419904035,-55,-35,2,-3,-30,-2,-12,20
1528881419919992,75,44,-6,-5,28,2,-11,-39
1528881419919992,-23,-7,1,-5,-6,-5,-5,-13
1528881419920990,-3,-8,-4,3,36,-9,-12,-11
1528881419920990,12,6,3,-4,-55,4,14,16
1528881419935950,-28,-22,-5,-4,23,3,5,10
1528881419935950,-10,1,-2,2,1,0,-6,-1
1528881419941934,12,6,-3,8,20,4,5,-5
1528881419941934,7,5,4,-9,-30,-4,1,-5
1528881419956894,-10,-3,6,13,41,1,-4,6
1528881419956894,17,6,-4,-6,-17,1,1,-6
1528881419964874,-11,-9,-7,-15,-22,-8,-5,4
1528881419964874,7,5,-3,1,7,-3,3,-8
1528881419979838,-3,-1,4,-2,-14,6,12,6
1528881419979838,-3,-2,-1,8,2,-1,-4,-1
1528881419980831,-22,-7,2,-3,-8,-5,-1,1
1528881419980831,5,2,-7,-6,2,3,0,-8
1528881419994794,-14,-10,1,4,15,1,1,3
1528881419994794,-10,4,-2,9,37,4,5,6
1528881420001775,-7,1,0,-5,-1,-4,-23,-19
1528881420001775,28,7,-1,1,-14,0,22,-1
1528881420016789,-9,-5,3,-3,-14,0,-4,6
1528881420016789,-7,-5,-3,-1,3,-2,1,2
1528881420024768,4,1,-2,0,0,3,7,2
1528881420024768,-4,3,0,0,-11,-2,-4,-1
1528881420039701,3,2,1,3,43,1,-2,0
1528881420039701,6,1,1,-5,-53,-6,-5,0
1528881420040681,13,5,2,8,3,-1,-4,-3
1528881420040681,0,-1,-1,2,19,0,-10,-3
1528881420054687,5,0,-4,-6,-18,-5,5,12
1528881420054687,-8,-1,1,4,14,-1,-7,-3
1528881420061669,-9,-8,-1,-6,-12,1,3,4
1528881420061669,12,10,0,-6,6,-1,5,-1
1528881420076629,2,-3,-1,6,-2,4,2,1
1528881420076629,-2,-4,-3,-3,1,-4,-13,-3
1528881420084609,3,-5,-6,-3,-6,-1,6,9
1528881420084609,9,6,3,1,-1,-2,-5,-4
1528881420100510,-25,-5,-2,-3,-10,0,6,-4
1528881420100510,25,11,1,2,14,2,1,14
1528881420100510,1,-3,0,-4,-3,-2,3,1
1528881420100510,1,-4,-2,0,-5,-3,-1,2
1528881420114525,-3,-4,-3,-8,-16,-8,-4,-6
1528881420114525,-10,-5,-1,0,4,0,1,-5
1528881420121502,-8,-6,-2,-4,6,2,2,2
1528881420121502,-10,7,-4,6,-2,-7,-4,-5
1528881420136471,2,-4,-3,-8,-47,-1,-3,-1
1528881420136471,-7,-3,2,-1,12,-2,-1,-2
1528881420145445,11,1,-4,-5,-6,-1,5,3
1528881420145445,-11,-8,4,6,3,1,-2,-2
1528881420160406,2,3,-2,-2,6,-2,-2,0
1528881420160406,9,2,0,-1,-2,2,1,-3
1528881420161349,-3,3,9,8,1,-1,-1,-2
1528881420161349,1,-2,-2,-6,-3,0,2,0
1528881420174315,2,3,1,3,-2,-3,-2,-1
1528881420174315,-3,-7,-7,-6,0,-1,-1,-3
1528881420182292,-1,-1,-8,-9,7,1,-1,-2
1528881420182292,-3,0,-2,-13,-1,1,1,1
1528881420197266,9,2,3,9,1,-1,-5,0
1528881420197266,-5,-2,-2,1,1,-3,1,-3
1528881420205477,-2,2,2,8,1,5,-1,0
1528881420205477,2,-1,-4,-6,-2,0,1,1
1528881420220729,-1,-1,5,-1,7,4,1,0
1528881420220729,-4,-5,-2,0,-4,-6,-1,-3
1528881420220729,-1,1,-3,-1,10,-3,-1,-3
1528881420220729,2,2,5,5,0,1,1,0
1528881420234837,0,-2,-4,-11,-3,1,4,0
1528881420234837,1,2,5,7,6,4,-6,0
1528881420241884,2,-1,-3,-4,-19,-5,-5,0
1528881420241884,-4,-5,-6,-3,10,-1,-2,-1
1528881420257588,-2,-2,-5,0,3,1,-2,-2
1528881420257588,3,2,6,14,12,3,5,1
1528881420265829,-4,-3,-2,-9,-21,-9,-2,-2
1528881420265829,0,-1,-1,-3,-7,-2,-1,-1
1528881420280638,0,-2,-5,-5,13,4,1,-1
1528881420280638,2,3,8,10,-31,3,1,2
1528881420280638,-3,1,-3,-5,42,-1,-4,-2
1528881420280638,0,1,2,17,3,-1,-1,-1
1528881420295825,-2,-3,-6,-22,2,-2,1,1
1528881420295825,-3,-2,0,4,2,0,0,-1
1528881420302757,3,3,5,5,-5,0,2,1
1528881420302757,1,1,3,-2,-4,1,0,1
1528881420317317,-1,-5,-7,6,-2,-5,-3,-1
1528881420317317,0,-2,-5,-15,0,-2,-2,-1
1528881420325674,-1,2,1,3,-5,3,1,-1
1528881420325674,-1,-2,-8,-11,0,-1,-2,-1
1528881420340213,-1,3,4,-14,-6,-1,-3,-1
1528881420340213,-1,-7,0,20,3,-1,1,-3
1528881420340954,1,5,6,5,3,0,4,2
1528881420340954,0,0,4,4,-4,1,1,0
1528881420355159,-2,-9,-11,-6,-3,-2,-1,0
1528881420355159,-3,-3,-11,-14,-1,-5,-4,-4
1528881420362139,1,16,3,1,2,1,0,-2
1528881420362139,1,-2,-7,-5,-2,0,1,0
1528881420377098,5,2,19,27,5,4,10,5
1528881420377098,1,-5,7,-2,10,3,-7,1
1528881420385866,-6,-16,-13,-12,-10,-1,-7,-3
1528881420385866,4,15,6,6,-6,-10,-6,-6
1528881420400831,-7,-6,-23,-4,1,-3,-1,-2
1528881420400831,0,-3,12,3,-1,4,7,0
1528881420400831,-3,-6,4,-5,-4,2,2,2
1528881420400831,-1,-10,-24,-13,2,-2,-5,-2
1528881420414783,6,20,-2,-7,3,0,-3,2
1528881420414783,8,13,26,15,6,2,3,5
1528881420430735,-15,-33,43,-4,-12,-5,-2,-11
1528881420430735,-34,-24,-85,-15,-10,-5,-7,-12
1528881420436712,17,16,-18,-3,4,2,1,3
1528881420436712,7,25,32,11,8,7,6,8
1528881420445517,21,17,71,31,9,6,6,9
1528881420445517,12,-21,-5,-4,-5,-1,9,8
1528881420460176,-11,12,0,-8,-9,0,3,-2
1528881420460176,-20,-14,-40,-20,-5,1,-8,-8
1528881420468326,-8,2,-15,0,3,-5,-13,-5
1528881420468326,1,-1,16,4,-5,-22,-18,-9
1528881420474620,-1,-18,-1,4,-7,-10,-3,-2
1528881420474620,-5,4,-12,-13,-3,-2,4,-1
1528881420482678,11,-7,-29,-4,2,7,9,2
1528881420482678,11,26,19,9,9,14,5,6
1528881420497287,11,-2,16,3,-2,-1,-2,1
1528881420497287,-2,-8,-2,-1,0,-2,1,-2
1528881420505529,-14,-2,-21,-4,3,1,1,0
1528881420505529,-1,-3,10,-1,-6,2,2,1
1528881420519227,-6,-4,11,5,-1,-2,-3,-6
1528881420519227,-4,1,0,1,-1,-3,-4,-3
1528881420527817,0,3,-22,-5,-2,-2,-1,1
1528881420527817,2,0,21,3,0,1,1,0
1528881420535234,-4,0,2,8,-1,4,-4,-1
1528881420535234,0,-7,-17,-10,-3,-3,-2,-1
1528881420542435,5,3,-10,-4,-4,-4,-2,-1
1528881420542435,0,3,12,5,-3,0,2,0
1528881420557393,-9,-5,2,2,-1,-1,-3,-2
1528881420557393,1,-5,-5,-5,-5,-3,-3,-2
1528881420565371,2,2,-12,1,2,1,2,1
1528881420565371,-2,-2,5,0,1,1,0,1
1528881420579532,-3,-3,0,0,-5,-2,-1,-1
1528881420579532,4,-3,0,-1,5,-1,0,-1
1528881420587503,-2,1,-3,-1,0,0,1,0
1528881420587503,-2,-1,2,1,2,2,1,-1
1528881420594747,2,-3,2,1,-2,-2,1,-1
1528881420594747,0,0,-2,-3,-12,-2,0,-1
1528881420601767,-4,0,-7,-3,-21,1,0,-2
1528881420601767,1,6,3,3,29,-4,1,2
1528881420617633,-1,3,0,-5,-46,-2,-3,-2
1528881420617633,0,1,-3,2,51,7,-1,-2
1528881420625710,1,5,-5,-5,-35,-4,0,5
1528881420625710,-1,0,1,-3,-19,-3,-7,-4
1528881420639676,0,0,1,1,14,1,20,16
1528881420639676,-2,-2,-6,-5,-26,-7,0,0
1528881420648109,0,0,-1,0,-2,1,-19,-7
1528881420648109,4,4,10,6,12,10,1,8
1528881420662729,-5,-6,-2,-2,3,-8,-2,-12
1528881420662729,1,-6,-4,-4,-9,1,10,23
1528881420663650,2,-1,1,1,21,-2,5,4
1528881420663650,0,-8,-1,0,-2,1,-3,3
1528881420677654,0,-5,-1,2,14,4,-11,-9
1528881420677654,10,1,-1,2,1,-1,-11,-10
1528881420685595,-11,2,0,0,4,-1,-5,-1
1528881420685595,-6,2,-1,0,2,-5,-7,4
1528881420699888,-5,3,1,0,-8,1,9,-16
1528881420699888,-1,0,-1,2,-4,-1,5,-5
1528881420707844,-8,-24,-3,0,10,4,10,0
1528881420707844,2,45,4,-3,-6,0,3,-6
1528881420722758,9,-1,3,1,12,-2,3,16
1528881420722758,-4,-8,-2,-1,-8,-1,-23,-17
1528881420723490,2,-3,-2,-5,2,-4,1,2
1528881420723490,-13,-24,0,0,-9,-1,9,5
1528881420736456,4,6,-2,0,2,0,-29,-12
1528881420736456,2,5,0,1,7,-1,5,5
1528881420745439,-3,-2,0,2,3,3,2,0
1528881420745439,0,-6,-2,-3,-9,-1,-4,-3
1528881420759425,-5,-3,-2,-2,1,2,4,6
1528881420759425,-11,-10,-1,-1,-5,-1,0,-16
1528881420767906,15,12,0,0,6,-2,-1,14
1528881420767906,11,4,-1,0,-3,-2,1,-5
1528881420782672,2,0,0,-1,1,1,1,6
1528881420782672,-3,-3,1,1,0,0,2,3
1528881420783662,-2,2,-1,-1,-2,-3,0,-6
1528881420783662,-3,-8,-1,0,-1,-3,1,-3
1528881420796576,-1,-4,0,1,0,1,0,3
1528881420796576,0,2,1,-1,0,1,-3,1
1528881420804555,0,2,0,0,1,2,0,-6
1528881420804555,1,-6,-1,-2,-4,2,-1,2
1528881420819909,-2,-1,-1,1,2,-2,-2,-6
1528881420819909,-6,-3,0,-1,-3,0,3,3
1528881420828066,0,-9,-3,-1,1,-1,4,0
1528881420828066,-7,5,2,1,3,2,1,-4
1528881420843047,15,7,2,0,3,-2,-1,-2
1528881420843047,16,26,-3,-5,-8,-5,1,4
1528881420843751,-3,-2,1,0,-2,-2,-1,-2
1528881420843751,-4,-15,-2,-2,-2,-1,0,-1
1528881420856978,-10,-4,-3,-2,0,1,1,0
1528881420856978,-5,-7,-1,1,2,1,0,3
1528881420865789,3,3,-1,0,0,-2,1,-4
1528881420865789,2,4,-1,2,0,0,0,0
1528881420879655,-5,-2,0,0,1,1,0,2
1528881420879655,-1,-1,0,0,2,-1,-1,0
1528881420887922,0,3,-3,-2,-3,-1,-1,-2
1528881420887922,2,-2,0,0,-1,-3,0,-2
1528881420902636,-4,-2,-2,-2,-2,-3,-2,0
1528881420902636,-2,-5,-1,-1,-1,-1,-1,0
1528881420903631,0,3,-1,-1,1,-1,-2,-1
1528881420903631,2,1,0,-1,1,2,-1,0
1528881420916840,1,-1,0,-1,-1,-2,0,1
1528881420916840,-1,0,-1,1,-1,-1,2,1
1528881420925747,0,-1,-1,0,0,-2,-3,-2
1528881420925747,0,-3,0,-2,-2,0,-2,-2
1528881420939538,-2,0,-1,-1,0,2,0,-2
1528881420939538,-1,-3,-1,-1,0,-2,-1,1
1528881420947831,-1,0,-1,0,-1,0,0,-1
1528881420947831,-1,-1,0,0,-2,-1,-1,-2
1528881420962677,-1,0,-1,0,0,0,0,0
1528881420962677,0,-1,-1,0,-1,-1,0,0
1528881420963483,1,-1,-1,-2,0,-2,0,-2
1528881420963483,-1,0,0,0,1,1,1,-1
1528881420976722,-2,-2,-2,0,-1,-1,0,0
1528881420976722,0,-1,1,-2,-1,0,0,-1
1528881420984950,-1,-1,-1,-1,-2,-1,-1,0
1528881420984950,0,-1,0,-1,-1,1,0,-1
1528881420999661,-2,-1,0,0,-1,-1,-1,-2
1528881420999661,0,-2,0,-1,-2,-2,-1,0
1528881421007670,-1,1,0,-2,0,-1,-1,-2
1528881421007670,0,-2,0,-1,0,-2,-1,-2
1528881421023181,0,-2,0,-1,-1,-2,0,1
1528881421023181,1,-3,0,0,2,-1,-2,-1
1528881421024057,-1,-1,-1,1,-1,-1,-1,0
1528881421024057,-1,0,-3,-1,0,0,-1,2
1528881421037459,-1,0,0,-1,-1,0,0,0
1528881421037459,0,-1,-3,-2,1,-2,0,0
1528881421045515,0,0,0,0,-1,1,0,-2
1528881421045515,0,-1,-1,1,-1,-2,0,-1
1528881421060154,-1,0,0,0,-1,-2,1,-1
1528881421060154,0,-1,0,0,-2,-1,0,-1
1528881421068364,2,-1,-1,-1,0,0,1,1
1528881421068364,0,-1,-1,-1,-2,-2,-2,1
1528881421082716,-1,-2,-1,-1,0,0,-1,0
1528881421082716,0,0,-1,-1,-1,-2,1,-1
1528881421083445,0,-1,-1,-1,-1,0,0,0
1528881421083445,0,-2,-1,1,-1,0,0,-1
1528881421096893,0,-1,-2,-1,0,-1,0,-1
1528881421096893,-2,-1,0,-1,-1,-1,0,0
1528881421104871,-1,0,0,1,0,0,0,1
1528881421104871,-2,0,0,-1,0,-1,1,-1
1528881421120098,-1,-1,-1,1,0,-1,0,-2
1528881421120098,1,1,-1,0,0,1,-1,0
1528881421128054,-3,-1,0,-1,0,0,0,0
1528881421128054,2,0,0,0,0,0,0,0
1528881421142773,0,0,-1,0,0,1,-3,-1
1528881421142773,-1,2,0,0,1,0,-2,-2
1528881421143770,-1,0,0,-1,0,-2,0,0
1528881421143770,0,-1,0,0,0,0,-1,-1
1528881421157784,-2,-1,-1,-1,-1,0,0,0
1528881421157784,0,-2,-1,-1,-2,-1,0,-2
1528881421165575,0,-1,-1,1,-1,-1,0,0
1528881421165575,-2,-1,-1,-2,-1,0,-1,0
1528881421179825,0,0,0,-1,-2,0,-2,1
1528881421179825,-2,-1,0,-2,0,-2,-1,-1
1528881421188206,0,-2,-1,-1,0,-2,0,-1
1528881421188206,-1,-1,-1,-3,1,-1,-1,-1
1528881421202764,0,-2,-1,0,-1,-3,0,0
1528881421202764,-1,0,-1,-1,-3,0,0,0
1528881421203992,-1,-2,0,-2,-1,-1,-1,0
1528881421203992,-3,-1,-2,-2,0,0,0,0
1528881421216992,-1,-2,1,0,1,-1,-1,-1
1528881421216992,-1,-2,-1,0,-1,-1,0,0
1528881421225011,0,-1,-1,0,-1,-2,0,-1
1528881421225011,1,-1,0,0,-1,-2,0,-1
1528881421238934,0,-1,-1,-1,-1,1,0,-1
1528881421238934,-2,-1,0,-1,0,0,-1,0
1528881421247909,0,-3,-2,-2,0,1,-1,0
1528881421247909,0,0,-1,-1,0,0,2,0
1528881421262869,-2,-1,1,-1,-2,0,0,1
1528881421262869,0,0,-1,0,0,0,-1,-1
1528881421262869,-1,0,0,0,-1,-2,-3,-1
1528881421262869,0,-1,0,0,0,0,-2,0
1528881421276837,-1,-1,-2,-1,0,1,0,0
1528881421276837,-2,-2,-1,-2,0,-1,-1,1
1528881421284815,0,-1,-1,0,-1,-1,1,-2
1528881421284815,0,-1,-1,-1,-2,-1,0,0
1528881421299771,1,1,-2,1,1,-2,0,1
1528881421299771,-1,-1,0,0,0,0,0,0
1528881421307750,-1,-1,0,-2,-1,-1,-1,0
1528881421307750,-1,0,-2,-1,-2,1,-1,0
1528881421322956,-1,-1,-1,0,-1,-1,-1,-1
1528881421322956,0,-1,-3,1,0,0,1,1
1528881421323957,-2,-1,0,-1,1,-2,0,-1
1528881421323957,-2,-1,-1,1,1,-1,0,-1
1528881421337685,-1,-1,0,-1,0,-2,-1,0
1528881421337685,1,0,1,-1,-1,-2,-1,1
1528881421345841,-1,0,-2,0,-1,1,-1,-1
1528881421345841,-2,-2,0,-1,0,-1,-2,-1
1528881421359928,0,1,0,-1,0,0,1,-3
1528881421359928,0,0,-2,-1,-2,-1,0,-1
1528881421368339,0,0,-1,0,-2,-1,1,0
1528881421368339,-1,-2,1,1,-1,-2,-1,0
1528881421383444,0,-1,-1,-1,-1,-2,-1,-1
1528881421383444,-1,-2,0,-3,1,0,-3,-2
1528881421383444,-1,-1,-1,0,0,-1,0,-1
1528881421383444,0,0,-2,0,-1,0,-1,1
1528881421396413,-1,-1,0,-1,0,-1,0,0
1528881421396413,-1,-1,-1,0,-1,-1,0,-1
1528881421405386,1,2,1,1,1,1,1,4
1528881421405386,-1,0,1,-1,0,-1,-1,-2
1528881421419347,-1,-1,0,-1,-1,0,-1,-1
1528881421419347,-2,0,-1,-2,1,-2,0,-3
1528881421428355,-2,0,-2,-2,-1,0,-2,-2
1528881421428355,0,0,-1,-2,-2,0,0,-1
1528881421442558,0,0,0,0,-2,1,1,0
1528881421442558,-1,0,-2,-1,0,-1,0,-1
1528881421451262,-1,-2,-1,-1,-1,-1,-1,-1
1528881421451262,0,1,-1,0,-1,-1,-1,0
1528881421456593,0,-2,0,1,0,0,-1,1
1528881421456593,-1,-2,0,-1,-1,0,1,1
1528881421465898,0,-1,-1,-1,-1,-2,-1,-1
1528881421465898,-1,-2,1,-1,-1,0,0,0
1528881421479500,1,-1,1,-1,0,-2,0,0
1528881421479500,-1,0,-1,2,-1,1,-1,0
1528881421488524,-1,0,1,0,-1,-1,-1,0
1528881421488524,0,-2,-1,0,1,0,-2,-3
1528881421502782,-1,0,-2,0,0,0,-1,0
1528881421502782,-1,-2,0,-1,-2,-2,0,-1
1528881421510853,0,-1,0,0,-1,0,0,-1
1528881421510853,-2,1,-2,-1,-2,0,-2,1
1528881421517594,-1,-1,0,-1,-2,0,-2,-1
1528881421517594,-1,0,-2,-1,-2,-1,0,-1
1528881421526688,-1,0,-1,0,1,1,-2,-1
1528881421526688,0,0,0,0,-1,-2,0,-1
1528881421539684,-1,0,-2,-2,-1,-1,-1,0
1528881421539684,-2,-1,1,0,0,-2,-1,0
1528881421548699,-1,-1,0,-1,-1,0,0,-1
1528881421548699,0,-1,-1,-1,-2,0,1,-1
1528881421562301,-1,-2,-3,0,2,0,-1,-1
1528881421562301,1,2,-2,-1,-1,1,-1,-1
1528881421570947,-2,-1,0,-2,-1,-1,0,0
1528881421570947,0,-1,-1,-1,-1,-1,-1,-1
1528881421585937,-2,-2,0,-1,-1,-1,-1,-1
1528881421585937,0,-1,-1,-1,0,0,-1,0
1528881421587268,0,-1,-2,0,0,-1,1,0
1528881421587268,-2,0,0,-1,-2,0,0,-1
