timestamp,emg1,emg2,emg3,emg4,emg5,emg6,emg7,emg8
1528190497531833,-1,0,-2,0,-1,0,0,-2
1528190497531833,-2,-2,-3,0,-1,-2,-1,-1
1528190497532830,0,1,-1,-1,-1,-1,-2,1
1528190497532830,0,-1,-2,-1,-1,-2,-1,-1
1528190497533826,-1,-2,0,0,-1,0,-1,-1
1528190497533826,-1,-2,-1,-1,-1,-2,-1,-1
1528190497534825,-1,-2,-1,0,-2,-1,-3,0
1528190497534825,0,0,-2,-2,-2,0,-1,-2
1528190497539810,-1,-1,-1,-1,-1,-2,-1,-1
1528190497539810,-1,0,-1,-1,-1,0,-2,2
1528190497542804,-1,-1,-2,-2,-2,-1,1,-1
1528190497542804,0,-1,-1,0,-1,-1,-2,-2
1528190497570728,-1,-2,-2,-1,-1,0,-1,1
1528190497570728,-1,0,-1,-1,-1,0,-1,-2
1528190497571726,-2,-1,-2,-2,0,-1,-3,-1
1528190497571726,-1,-1,-1,0,1,0,-2,-2
1528190497574718,1,2,-2,-2,-2,-2,-2,-1
1528190497574718,0,-1,-1,0,-1,-1,1,-1
1528190497582697,-1,-1,0,-1,-1,-1,-1,1
1528190497582697,-2,-1,0,-2,0,-3,1,0
1528190497614612,-2,-1,-1,0,-2,-3,-2,-2
1528190497614612,-1,0,-1,1,0,0,0,-1
1528190497615609,0,-2,-1,1,0,0,-1,-2
1528190497615609,-1,0,-1,0,-2,0,0,-1
1528190497617604,0,0,-1,-1,1,0,0,0
1528190497617604,0,-1,-1,-1,-1,-2,-1,0
1528190497620596,-1,0,-1,-2,0,-1,0,0
1528190497620596,-2,-2,-2,0,-1,-2,-1,2
1528190497659536,-1,0,0,-2,0,0,1,-2
1528190497659536,0,-3,-3,-1,-1,-2,0,0
1528190497662482,0,-2,-1,-1,-1,-1,-2,-1
1528190497662482,-1,-1,-1,-2,-1,0,-1,-1
1528190497664519,-1,-3,-1,-1,-1,0,-1,-2
1528190497664519,-1,0,-1,-1,-1,-2,0,-2
1528190497665474,-1,-1,0,-1,-1,-2,-2,-2
1528190497665474,0,0,-2,-2,0,-2,-2,0
1528190497667470,0,1,-1,-1,-1,-2,-2,-3
1528190497667470,1,-3,-2,0,0,0,-1,-2
1528190497713352,-1,-1,-1,-1,-1,-2,-1,-3
1528190497713352,-2,-2,-1,-1,-1,1,0,-3
1528190497714344,-2,-3,-3,0,-1,0,-2,0
1528190497714344,-1,1,0,-2,0,0,-1,0
1528190497717336,-1,0,-2,-1,0,0,0,-2
1528190497717336,-1,0,-1,-1,-1,-2,-2,-2
1528190497718335,1,-1,-2,-1,-2,0,-1,0
1528190497718335,-1,0,-1,-2,-1,-1,-2,-2
1528190497734290,-3,-2,-1,-1,-1,-2,0,-1
1528190497734290,-1,0,-1,-1,0,-3,-1,-2
1528190497735287,-1,0,-1,-1,0,-1,0,0
1528190497735287,0,0,-1,-1,-2,-1,-3,-1
1528190497756231,0,1,0,-2,-1,1,-1,1
1528190497756231,1,-2,-1,-1,-1,-1,-3,0
1528190497757229,0,-2,-1,-1,0,-2,-2,0
1528190497757229,1,0,-2,0,1,1,-1,-1
1528190497763213,-1,-1,-2,-3,-1,0,-3,3
1528190497763213,-2,-1,-1,-1,0,-1,-2,0
1528190497801150,-1,-1,-1,-1,-2,-2,-1,-1
1528190497801150,-2,-2,0,-2,-1,-2,-1,-1
1528190497803106,-1,-2,0,-2,-2,0,0,-1
1528190497803106,1,0,-2,-1,-2,0,-1,0
1528190497804105,-1,-2,-1,0,-2,-1,-2,-1
1528190497804105,-1,-1,0,-1,-3,0,0,1
1528190497808092,0,0,0,0,-1,-1,-2,-1
1528190497808092,0,-2,0,-2,-1,-1,0,-1
1528190497823093,-1,-2,1,-2,-1,0,-2,-1
1528190497823093,-1,0,-1,0,-1,-1,0,-1
1528190497825048,-2,0,-2,0,0,-1,-1,1
1528190497825048,-2,-2,-1,1,-2,0,-1,-1
1528190497845995,1,1,-1,0,-1,-1,0,1
1528190497845995,-2,-2,-1,-2,-2,-3,-1,-2
1528190497851975,-1,-2,-2,0,0,-1,-2,-1
1528190497851975,-1,0,-2,-1,-1,-1,1,-2
1528190497858993,-1,-2,-1,-1,-1,-1,0,-2
1528190497858993,-1,-2,-3,-1,-2,-1,-1,0
1528190497891882,0,-1,-2,0,-2,-1,-1,-2
1528190497891882,-1,0,-2,-1,-2,-1,-2,-1
1528190497891882,1,-1,-2,-1,1,-1,-2,-4
1528190497891882,-2,-1,-1,-1,-1,0,-1,-1
1528190497893864,-2,-3,-2,-1,1,-1,-1,-1
1528190497893864,-1,-2,-2,-1,0,0,-1,-2
1528190497905832,-2,2,0,-4,-1,-1,0,0
1528190497905832,0,0,-1,0,-1,0,-1,-1
1528190497907826,1,-1,-3,-1,-3,0,-2,-1
1528190497907826,0,-2,0,-1,0,-1,0,0
1528190497919821,-1,-2,-4,-2,1,-1,-1,-1
1528190497919821,0,0,-1,-2,0,-2,-2,-2
1528190497928809,0,1,-1,-1,0,0,1,-2
1528190497928809,-1,-1,-1,-2,-1,0,-1,-1
1528190497943744,-1,-2,-1,-2,-1,-1,-2,1
1528190497943744,-3,-3,-1,-1,-2,-1,-1,0
1528190497944729,2,3,1,1,-1,-1,-1,-2
1528190497944729,-2,-1,-1,-1,-2,-2,0,-1
1528190497981661,-3,-1,-2,-1,-1,-1,-1,-1
1528190497981661,-2,-1,0,0,-1,-1,0,-1
1528190497982627,-3,-2,-2,-1,1,-1,-1,-2
1528190497982627,-1,-1,-1,-1,-1,-1,-1,-2
1528190497983624,0,-1,0,-1,-1,-2,-1,1
1528190497983624,-1,0,-1,-1,0,-2,1,-1
1528190497988610,-2,-1,0,-2,0,-1,-1,1
1528190497988610,-1,-1,-1,0,-1,0,0,-1
1528190498003571,-2,-2,0,0,0,0,-1,-1
1528190498003571,0,-1,-1,-1,-1,0,-2,-1
1528190498004572,-1,-2,-1,-2,-2,1,-1,-1
1528190498004572,-1,-2,-2,-1,0,-3,-2,0
1528190498025564,-1,-2,-1,0,-1,-1,-2,0
1528190498025564,-2,-1,-1,-1,-1,-2,-2,-1
1528190498027507,-2,-2,0,-1,-2,-2,-1,-2
1528190498027507,-1,1,-1,0,-2,-1,1,-1
1528190498039475,-2,0,-2,-1,-3,0,-1,-4
1528190498039475,0,0,0,-2,0,-1,-1,-1
1528190498048451,1,-2,-1,-1,-1,0,-1,0
1528190498048451,0,-1,-1,-1,0,0,-1,-1
1528190498063437,1,-1,0,-1,-2,-1,-1,-1
1528190498063437,-4,-3,-2,0,-2,-1,-1,-2
1528190498064434,-1,0,0,0,0,-2,0,-2
1528190498064434,0,-2,0,-1,-1,-1,-2,-1
1528190498086474,-1,1,0,1,0,-1,0,-2
1528190498086474,-2,-1,-1,-1,-1,-2,-1,-2
1528190498087433,-1,-1,-1,-2,0,-2,-2,-1
1528190498087433,-1,-1,1,0,0,-1,-1,-1
1528190498099404,-2,0,0,-1,-1,-2,-1,1
1528190498099404,2,1,0,0,1,-2,-1,2
1528190498125335,0,-2,0,-2,-3,-1,0,-3
1528190498125335,0,0,-1,-2,0,0,1,-4
1528190498126332,-2,-1,-2,-2,0,-1,0,-2
1528190498126332,0,-2,-2,0,-2,-1,-2,-1
1528190498129324,0,-1,-2,1,-2,-1,-3,-1
1528190498129324,-2,-3,-1,-2,-2,-1,-2,-1
1528190498145281,1,-2,-1,-1,0,-2,-2,-1
1528190498145281,0,-1,-1,-1,-3,-1,-2,-1
1528190498147280,-2,-2,-2,-3,-2,-1,0,-1
1528190498147280,-1,0,-1,-2,-2,-3,-3,0
1528190498160241,-3,-2,-1,0,-2,-2,0,-1
1528190498160241,1,0,-1,0,-1,1,-1,-1
1528190498168221,-2,-5,-2,-1,-1,-1,-2,-1
1528190498168221,2,4,-1,-1,1,0,-2,0
1528190498183181,0,-2,-2,-2,-2,0,0,0
1528190498183181,-1,-1,0,-2,-2,-1,0,-1
1528190498185177,-2,-2,-2,0,0,-3,-1,-1
1528190498185177,-1,-3,-3,-2,0,-2,0,1
1528190498214137,0,0,-1,0,-2,-1,-2,0
1528190498214137,-1,-2,-2,-2,-1,-1,-1,-1
1528190498215095,-1,4,0,1,0,0,-1,0
1528190498215095,-2,0,0,-1,-1,-1,-1,-1
1528190498219085,0,1,-1,0,-2,0,-1,-2
1528190498219085,-2,0,-1,1,-2,-1,-1,-1
1528190498228060,-1,0,-2,-1,0,-1,-2,-1
1528190498228060,-2,-1,-1,0,0,0,0,-1
1528190498258032,-1,-1,0,-1,-1,0,-1,-1
1528190498258032,-1,1,0,-2,-2,-2,0,-2
1528190498259976,0,0,-2,-1,0,-1,-2,-1
1528190498259976,-2,-2,0,0,-2,-2,-1,-2
1528190498266016,-1,-1,-1,-2,-1,-1,0,-1
1528190498266016,-1,-1,0,0,-1,-1,1,0
1528190498267011,-1,0,0,-3,-3,-2,0,0
1528190498267011,1,-2,-1,-1,-3,-2,0,0
1528190498279931,0,0,-1,-2,0,-1,-2,-2
1528190498279931,-2,-1,-1,-4,0,-1,-1,0
1528190498301911,0,-3,0,-1,-1,-1,-1,0
1528190498301911,-2,0,-1,-1,-3,-1,-1,-2
1528190498310873,-2,-1,0,-1,1,-3,0,-4
1528190498310873,-1,-1,-1,-2,0,0,0,-1
1528190498312833,1,1,-1,-2,0,0,0,-1
1528190498312833,0,0,-4,-1,-3,-1,-2,-2
1528190498325854,-1,0,-1,-2,-1,-2,-1,-1
1528190498325854,0,-1,-2,-1,-2,-2,-2,-1
1528190498327820,-2,-2,0,-1,-1,0,-1,0
1528190498327820,-2,0,0,-1,-1,-1,0,0
1528190498347740,-1,0,-2,0,-1,0,0,-1
1528190498347740,-1,-2,-1,-1,0,-2,-2,-2
1528190498349735,-1,-2,0,-2,0,-1,0,-1
1528190498349735,-1,-1,0,0,1,-1,-2,-3
1528190498362700,-1,-1,-2,0,-1,0,-2,0
1528190498362700,-2,0,0,-1,-2,-1,-3,0
1528190498369683,-3,1,-1,1,-1,0,0,-1
1528190498369683,-2,-1,-2,-2,0,1,-1,1
1528190498392621,0,-2,-1,0,-2,-1,-2,0
1528190498392621,0,0,-1,-1,-2,-1,0,-1
1528190498399651,-1,-2,-1,-1,-1,-2,-1,-2
1528190498399651,-1,1,1,-2,0,-1,0,-1
1528190498400600,-1,-1,0,-1,-1,0,-2,-1
1528190498400600,-2,-1,-1,-1,0,1,0,-1
1528190498408578,-1,0,-4,-2,-1,-2,-2,-2
1528190498408578,0,-2,-1,-1,0,1,-1,-1
1528190498422541,-1,-1,-2,-2,-1,-1,-1,-1
1528190498422541,-1,0,-1,1,0,-1,-1,-3
1528190498446960,0,0,0,0,0,-1,-1,0
1528190498446960,-2,-1,-1,-1,-1,-3,-2,0
1528190498447998,-1,-2,0,-1,-1,-2,0,-1
1528190498447998,-1,-2,-2,-2,-1,-2,-3,-1
1528190498448958,0,0,0,-1,-1,-1,0,-1
1528190498448958,-3,-5,0,0,-2,-1,-2,-3
1528190498460131,1,1,0,1,0,0,-1,-1
1528190498460131,2,-1,-3,0,-2,-1,0,-1
1528190498469190,-1,0,0,-3,-1,-1,-1,-2
1528190498469190,-1,-1,-1,-2,-1,1,0,-1
1528190498491523,-4,-1,-1,0,-1,-1,-1,-2
1528190498491523,-1,-2,-1,-1,-1,1,-1,-2
1528190498492371,-1,-3,-2,0,-3,-1,0,-2
1528190498492371,0,-1,-2,-1,-2,-2,0,0
1528190498506643,-1,-1,0,-2,-2,-1,-1,1
1528190498506643,0,1,-1,0,-1,-2,1,1
1528190498507328,0,-1,0,-1,-2,-1,1,-1
1528190498507328,-1,0,-1,-1,-1,-2,-1,-1
1528190498528648,0,-2,-1,-3,0,-3,-2,-2
1528190498528648,-1,-2,-3,-1,-1,0,-1,-2
1528190498530601,-2,-3,-3,-1,-1,-1,-2,-2
1528190498530601,0,0,-1,0,-1,0,-1,-1
1528190498543482,-1,-1,-1,-2,-2,-1,-1,-1
1528190498543482,-3,-2,0,-2,-1,-1,0,-1
1528190498549218,-3,-1,-2,-1,-1,0,-2,-1
1528190498549218,-2,-2,-3,0,-1,-3,0,0
1528190498581454,0,-1,-1,-2,-1,-1,-1,-1
1528190498581454,0,-2,0,-4,0,-1,-2,-2
1528190498582130,1,-1,-1,-1,0,-1,-2,-2
1528190498582130,0,0,-1,-2,-2,0,-2,-2
1528190498588110,-3,-1,-2,0,-1,0,-1,-1
1528190498588110,-1,-1,0,-2,0,-1,-1,-1
1528190498590114,-1,-2,-2,0,-1,-2,-1,-2
1528190498590114,-1,0,-1,-2,-1,-2,-1,-2
1528190498602401,-1,-2,-1,0,-1,-2,0,1
1528190498602401,-1,0,-1,1,-1,-1,-2,-1
1528190498611049,-2,0,0,-2,-1,-1,-1,0
1528190498611049,-1,-1,0,1,0,-1,-1,-1
1528190498634014,-1,-1,-1,0,0,0,-1,-1
1528190498634014,-1,-2,-2,-1,-1,-3,-1,-1
1528190498634985,0,-1,-1,1,-2,0,0,1
1528190498634985,-2,-1,-1,-2,0,-2,-1,-2
1528190498649079,1,0,-1,-1,-2,0,-1,-2
1528190498649079,-1,-1,0,1,-1,-1,-1,-1
1528190498649945,-1,-1,0,-2,0,-2,-2,-3
1528190498649945,0,-1,-1,-1,1,-2,-2,-1
1528190498677870,0,-2,-2,-1,-2,-2,-1,-1
1528190498677870,-1,-1,-2,-1,-2,0,-2,-2
1528190498684852,0,-1,0,0,-2,0,-1,0
1528190498684852,0,0,-2,-2,-1,-1,0,-1
1528190498685850,0,-1,0,-2,-1,-2,-2,-3
1528190498685850,-2,0,-2,-1,0,1,-1,-1
1528190498693828,-2,0,-2,-1,-1,-2,-2,0
1528190498693828,1,-2,-1,-2,-2,-1,-3,0
1528190498708787,-1,-2,-3,-1,0,1,0,0
1528190498708787,0,1,-2,-1,-2,-1,1,-1
1528190498715136,1,0,-1,-1,0,1,-2,-1
1528190498715136,-2,-2,0,0,-2,0,-1,-2
1528190498731422,-2,-1,-1,-1,1,-2,0,0
1528190498731422,-2,-1,-1,-1,-2,-1,-2,0
1528190498732035,-1,0,-2,-2,-3,-1,0,-1
1528190498732035,0,-2,-2,0,-2,0,-1,-2
1528190498745215,-2,-1,-1,0,-2,0,0,-4
1528190498745215,-2,-3,0,-3,-2,-2,-1,-1
1528190498753349,-1,-1,0,-1,-2,-1,-1,-1
1528190498753349,-1,1,0,0,-2,0,-1,-1
1528190498768427,-2,-1,-2,-1,0,-1,-1,0
1528190498768427,-1,-1,-1,2,0,-2,-1,-1
1528190498774618,2,4,-1,-1,0,-1,1,0
1528190498774618,-1,-2,-1,-2,-1,-1,-1,-1
1528190498791512,1,-3,-2,-1,-1,0,-1,-1
1528190498791512,-1,-2,-2,-3,-2,-2,-1,0
1528190498792250,-2,-2,-1,0,0,1,-2,-1
1528190498792250,-2,0,0,0,-1,0,0,-1
1528190498813268,-2,1,-1,-2,-2,-2,-1,-1
1528190498813268,1,-1,0,1,-1,0,0,-1
1528190498815262,-3,-3,0,-1,-1,-1,0,-2
1528190498815262,-1,-2,-1,-1,0,-1,-1,-1
1528190498828276,0,1,0,-2,-2,-2,0,-1
1528190498828276,-1,2,-1,0,-1,-1,0,-3
1528190498842505,-2,-2,-3,0,0,-1,-1,1
1528190498842505,-1,0,-1,-1,-2,0,-2,0
1528190498858204,-2,-1,0,-2,-1,-1,0,0
1528190498858204,0,-2,0,1,0,-1,-1,-3
1528190498860193,0,-1,0,-1,-1,-3,-1,-2
1528190498860193,-1,-1,-2,-1,-2,-1,-1,-2
1528190498864197,-1,0,0,-1,-2,-2,-1,1
1528190498864197,-4,-3,-2,0,-2,-2,-1,0
1528190498873294,2,3,-1,-1,-2,-1,-1,0
1528190498873294,-2,0,-2,0,-1,-1,-1,-1
1528190498887133,0,-2,-1,0,0,-1,-1,-2
1528190498887133,-1,0,0,0,-1,-1,-1,-1
1528190498911711,-2,-3,-2,0,-4,1,0,-1
1528190498911711,0,-2,0,-1,0,-2,-2,0
1528190498912367,-1,0,-1,0,-2,0,-1,0
1528190498912367,-2,-1,-1,-1,-1,-1,0,-2
1528190498914559,-4,-3,-2,-1,-1,-1,1,-2
1528190498914559,5,6,-1,-1,-3,-1,0,-1
1528190498924337,-1,-2,-1,-2,-2,-1,0,-2
1528190498924337,-2,-1,-1,-2,0,0,-3,-1
1528190498939913,-1,0,0,-2,-1,-3,-3,-1
1528190498939913,-2,-6,-2,0,-3,-2,-2,-1
1528190498955503,3,2,0,0,0,0,-3,-2
1528190498955503,2,4,-1,-1,-1,-2,-2,0
1528190498957497,-2,-3,-2,-3,-2,-1,-1,-2
1528190498957497,-3,-3,-2,-1,0,-1,-1,-1
1528190498970506,-1,-1,-3,-1,-1,-4,-2,0
1528190498970506,0,-4,0,-1,-3,-1,-2,0
1528190498972458,0,-2,0,0,-2,-2,-2,-1
1528190498972458,-2,-1,-1,-1,-2,-1,-1,0
1528190499001723,-2,-2,-2,0,-1,1,-1,-1
1528190499001723,-2,-1,-1,-2,-1,-2,0,0
1528190499003556,-1,0,-2,1,-1,2,-1,0
1528190499003556,-1,-1,0,0,-1,-1,-1,-3
1528190499007953,-2,-3,-2,-1,-1,-6,-3,-2
1528190499007953,-2,-1,-2,-3,0,-1,-1,-2
1528190499015261,-1,-1,-1,-1,-1,-1,-1,0
1528190499015261,-2,-3,-1,-2,-2,1,0,1
1528190499038034,1,-1,-1,1,-1,2,-1,0
1528190499038034,0,-2,-1,-1,-2,-1,-1,-2
1528190499040029,-2,0,0,-1,-2,-2,-2,-1
1528190499040029,1,-1,-1,1,-1,-2,-1,0
1528190499053233,-4,-4,0,-1,-1,-2,-2,-1
1528190499053233,4,4,0,0,-1,1,0,0
1528190499054995,-2,-3,0,-3,1,1,3,-1
1528190499054995,-2,-1,-2,-1,-1,-4,-2,-2
1528190499068174,0,0,-1,-1,0,0,1,0
1528190499068174,-3,-3,-1,-1,-3,-1,0,2
1528190499075136,-1,-2,-2,0,1,-3,-4,0
1528190499075136,-1,-2,1,-2,-1,-1,-2,-1
1528190499091619,-4,-1,0,-1,-2,0,0,0
1528190499091619,-3,-1,-1,0,0,-1,-1,0
1528190499092348,-2,-1,-1,-1,-2,-1,-2,-1
1528190499092348,-1,-1,-1,0,-2,-2,0,-1
1528190499113402,-2,0,-3,1,-2,-2,-2,-1
1528190499113402,-2,-3,-1,1,-2,-2,0,-1
1528190499115518,-1,-2,-2,-1,-2,-2,-1,-2
1528190499115518,1,1,-2,-1,3,-1,-1,-1
1528190499143266,-3,-4,0,-2,-2,0,0,-1
1528190499143266,1,2,-1,-5,-13,-1,-1,-2
1528190499145460,2,3,0,0,0,-1,-1,-1
1528190499145460,-2,-3,-3,-1,-2,0,-2,-1
1528190499151526,-1,-1,-2,0,0,1,1,1
1528190499151526,-3,-2,-2,-1,1,-1,-1,-1
1528190499152504,-4,-2,-1,-2,-3,-5,-2,0
1528190499152504,-1,-1,0,-1,2,1,0,0
1528190499173435,0,1,-2,-1,0,-2,-1,-1
1528190499173435,-4,-4,-2,1,2,2,-3,-2
1528190499175430,-1,-1,-1,0,-1,0,-2,-1
1528190499175430,-2,-3,1,0,-1,-1,0,1
1528190499187398,-1,-1,-2,-2,-3,0,-1,-1
1528190499187398,-2,-2,-3,1,1,-1,-1,-2
1528190499195710,0,0,-2,1,0,-1,0,2
1528190499195710,1,6,-1,2,-2,-1,-1,-1
1528190499225553,1,-1,0,0,-2,1,-1,-2
1528190499225553,-1,-3,-1,-4,0,0,1,-3
1528190499235270,-1,0,-4,-1,7,-3,-1,0
1528190499235270,-1,-3,0,-3,-15,-1,0,1
1528190499236266,-1,0,1,-2,-2,-2,-1,-1
1528190499236266,0,1,-1,1,-1,-2,-1,0
1528190499239259,-4,-3,-1,0,1,-1,0,-2
1528190499239259,0,0,-2,-2,1,0,0,-2
1528190499247484,-3,1,-2,-1,0,-1,-1,-1
1528190499247484,-3,-5,-1,-2,-2,-1,0,-1
1528190499255934,6,8,0,0,-1,-1,-2,1
1528190499255934,-2,-2,-2,0,-1,-4,-2,-1
1528190499270526,-3,-4,-2,0,-2,1,1,-2
1528190499270526,0,2,-1,0,6,2,-2,-2
1528190499277704,-4,-6,-1,-2,-11,-1,0,-1
1528190499277704,1,4,0,0,5,-1,-2,-1
1528190499293430,0,-2,-1,-2,-10,-3,0,-1
1528190499293430,-1,-2,-1,-1,4,0,2,0
1528190499294427,-1,-3,-2,-1,-6,1,-2,-3
1528190499294427,0,-4,0,-1,1,-2,-1,-1
1528190499323738,0,-1,-1,0,3,-1,-2,-1
1528190499323738,0,1,-2,-2,-1,-2,-1,0
1528190499325341,0,-1,-2,0,1,-2,-2,-2
1528190499325341,-3,-2,-3,0,0,-1,-1,-1
1528190499330571,1,0,-1,-1,-1,-1,-1,-2
1528190499330571,-2,-3,-1,-1,-6,-2,-2,-1
1528190499337309,-4,-4,0,-1,1,0,-1,-1
1528190499337309,5,2,-2,-3,-2,0,-2,-1
1528190499353747,0,-1,-2,-1,-1,-3,-1,-1
1528190499353747,-2,-1,-1,0,2,0,-1,0
1528190499377215,-1,-2,-1,-1,-2,3,2,1
1528190499377215,-2,-3,-3,-1,-3,-2,-3,-3
1528190499377215,-1,0,0,0,0,-1,-1,-1
1528190499377215,0,-1,0,-1,-3,-1,1,-2
1528190499379539,-1,-1,-2,-2,3,1,-1,-2
1528190499379539,-2,-2,-1,-1,-3,0,0,-1
1528190499398722,0,-2,0,-1,2,-3,0,-2
1528190499398722,-2,-2,-1,-2,-1,-3,-1,0
1528190499400581,0,-2,-1,-1,-6,-2,-2,-1
1528190499400581,-1,-2,0,0,2,-1,-1,0
1528190499421427,-1,-1,-1,-4,-2,-2,-3,-1
1528190499421427,0,-1,0,1,-1,-1,1,-1
1528190499422403,-3,-4,-1,-2,-4,-1,-2,-2
1528190499422403,0,2,-1,-2,2,-1,-2,-2
1528190499443383,-3,-1,1,2,18,3,-2,-1
1528190499443383,-2,-1,-2,-4,-19,-4,0,-2
1528190499445333,1,-2,0,-1,-2,-4,-3,-2
1528190499445333,-2,-2,0,-1,0,1,1,-1
1528190499466279,-1,-1,-1,-1,-3,-1,-2,-1
1528190499466279,-1,-1,-3,-1,8,1,-1,-1
1528190499467291,-1,1,-1,0,0,-2,1,-1
1528190499467291,-3,-2,-1,-2,-7,-4,-1,-2
1528190499473258,8,8,-3,-1,1,-1,1,1
1528190499473258,-2,-1,-3,0,-1,1,0,0
1528190499475253,-1,-2,-1,-1,-1,-1,-1,-2
1528190499475253,-2,-3,-1,0,1,1,-1,-1
1528190499503233,-4,-3,0,-4,-5,-3,0,-1
1528190499503233,1,-1,-1,0,-1,-1,-2,-1
1528190499510214,-1,-2,0,-1,1,2,0,-1
1528190499510214,2,2,1,0,4,-1,1,-1
1528190499518193,-3,-4,-1,-2,-13,-1,-1,0
1528190499518193,1,-1,-1,0,2,-2,-3,0
1528190499520133,-2,-3,0,0,1,-2,-1,-2
1528190499520133,-2,-3,-2,0,1,0,0,-2
1528190499533154,-4,-1,-2,-1,-7,-1,0,-1
1528190499533154,-2,1,0,-1,0,0,-2,-2
1528190499535094,0,1,-2,0,-3,-1,0,0
1528190499535094,-1,-2,0,-3,2,1,-2,-1
1528190499556092,-1,0,-1,-2,-5,-1,0,1
1528190499556092,-1,-2,-1,0,0,-1,-1,0
1528190499557045,-1,1,-2,-2,0,-1,-1,-2
1528190499557045,0,-1,-1,-1,-2,-1,0,-1
1528190499570054,-1,-5,-3,-2,-1,0,-2,-3
1528190499570054,1,-1,-2,-1,-1,-1,-3,-1
1528190499577037,1,-2,-1,0,-1,-1,0,-1
1528190499577037,3,3,-2,-1,-5,-1,0,-1
1528190499600976,-2,-2,-1,-1,1,-1,-1,-1
1528190499600976,0,-1,-1,-1,4,0,-1,-2
1528190499602913,-1,0,-1,-2,-10,-1,-2,-1
1528190499602913,-3,-2,1,1,-1,-1,0,-2
1528190499606948,-1,-2,0,1,3,1,-1,-2
1528190499606948,0,-1,1,1,-1,-1,0,0
1528190499615894,-1,-2,-3,-1,0,-1,-1,-1
1528190499615894,-2,-2,-1,-1,-3,-2,0,0
1528190499630871,0,0,-1,0,-1,0,-1,-1
1528190499630871,-3,-2,0,-1,-1,0,-1,-1
1528190499632864,0,0,0,-1,1,-2,-2,-1
1528190499632864,-1,-1,-2,-1,-1,-1,-1,0
1528190499652822,-1,-1,-2,-1,0,-4,-1,0
1528190499652822,0,0,-1,-1,-4,-1,-1,1
1528190499654774,-1,0,-1,-1,0,-2,-1,-1
1528190499654774,-2,-1,-1,-1,0,0,-1,0
1528190499666741,0,-1,-1,-1,-1,-1,-3,-1
1528190499666741,-3,-2,-1,0,-1,-1,-2,-3
1528190499675717,-2,-1,-1,0,0,1,-1,-1
1528190499675717,-1,-3,-2,-1,-1,-2,-3,0
1528190499698715,0,2,0,-1,-1,-2,0,-1
1528190499698715,-1,-2,-1,-1,-4,-2,-2,-2
1528190499699670,0,-2,-3,-1,0,-1,0,-1
1528190499699670,-1,-3,-2,-2,-2,0,-1,-1
1528190499713671,-2,0,-3,-1,0,0,0,-1
1528190499713671,-1,0,-1,-3,-2,-1,-2,-1
1528190499714613,0,0,-1,-1,1,-1,-2,-3
1528190499714613,-2,0,-2,-1,-2,-1,0,-3
1528190499735615,-2,-2,-1,-1,-3,-2,-1,-1
1528190499735615,-2,-2,0,-1,0,-1,-1,-1
1528190499737571,-1,-1,-2,-2,0,0,0,0
1528190499737571,-1,-1,-2,0,-2,0,-1,-1
1528190499766510,0,-1,-1,0,0,-2,-1,-1
1528190499766510,-2,-1,-1,0,-1,-1,-2,-2
1528190499767473,-1,0,0,-1,0,-2,-1,-2
1528190499767473,-2,-1,1,-2,-2,0,-2,-2
1528190499779446,0,0,-1,-1,-1,2,-1,-1
1528190499779446,0,-3,-4,-2,-3,-4,-2,-2
1528190499788899,-1,-3,-2,0,-1,1,-1,0
1528190499788899,-1,-1,-2,0,0,-2,-1,0
1528190499790681,0,-2,0,-3,0,-2,0,-1
1528190499790681,0,-1,1,-2,-1,0,-1,-2
1528190499796624,-1,-1,-1,0,-1,0,-2,0
1528190499796624,-1,-1,0,0,-2,0,-1,0
1528190499835233,-1,-1,-1,0,-1,0,-1,-1
1528190499835233,-1,-1,0,-2,-1,0,0,1
1528190499835840,-3,0,-2,0,-2,-1,-1,-2
1528190499835840,-1,-1,-2,-2,0,-1,-1,-1
1528190499837085,-1,-2,-3,-1,-1,-2,0,0
1528190499837085,3,4,0,0,-1,0,0,0
1528190499848058,0,-1,0,-1,-2,0,0,-1
1528190499848058,-1,-1,0,-1,-1,0,0,-1
1528190499854788,-11,-4,-2,-1,-2,-2,-1,-2
1528190499854788,7,-1,-2,0,-4,-3,0,0
1528190499855791,0,0,-1,0,-1,-1,-1,0
1528190499855791,-1,0,-2,-2,-2,-3,-2,-2
1528190499885975,-1,-3,1,-3,-2,1,-2,-1
1528190499885975,-5,-3,-1,1,-3,-2,-2,0
1528190499886703,-1,0,0,-1,-3,-1,-2,-2
1528190499886703,1,0,1,1,-1,-1,-1,1
1528190499892687,3,1,-1,1,-1,-1,-1,-2
1528190499892687,-2,-2,-2,-3,1,2,0,-1
1528190499893684,-1,-3,-1,-2,0,0,-1,1
1528190499893684,-3,-2,-1,-2,-2,-3,-1,0
1528190499924637,0,-2,0,1,0,0,0,0
1528190499924637,-2,-1,-2,-1,-2,0,-5,-2
1528190499925599,-1,-1,-1,-2,-1,-1,1,-2
1528190499925599,-1,-3,-1,-2,-1,0,2,0
1528190499929843,6,6,0,-1,-3,-1,-2,-1
1528190499929843,-5,-2,0,2,1,0,0,-2
1528190499937566,-3,-1,-2,-1,-1,-1,-3,-2
1528190499937566,-1,-1,-3,-1,1,-1,-3,-3
1528190499952528,0,-1,-1,1,0,-2,-1,0
1528190499952528,0,1,-1,-1,-3,-2,-2,0
1528190499976463,1,-1,1,-1,-3,-1,-1,-1
1528190499976463,0,0,-2,0,0,0,0,-2
1528190499978733,-1,0,-3,-1,1,-2,-2,-1
1528190499978733,-1,-1,-2,0,-1,-2,-1,0
1528190499979634,-2,-2,-2,-1,1,-1,0,-1
1528190499979634,-10,-3,-2,-1,-2,0,-3,-2
1528190499990118,3,-3,0,-1,-2,-1,-1,-1
1528190499990118,-3,-1,0,-2,0,-2,0,-2
1528190499997765,2,1,-1,0,0,-1,-2,-1
1528190499997765,-1,-1,-2,0,-1,0,-1,-1
1528190500020655,-2,-2,0,-2,0,0,-3,0
1528190500020655,-1,-2,-2,-1,0,-1,0,-1
1528190500021666,-3,0,-1,-2,0,-2,-1,-2
1528190500021666,1,0,-1,0,-2,-1,-1,-2
1528190500034622,-2,-2,-3,-3,-1,-3,-1,-1
1528190500034622,0,0,-1,-1,-1,0,-3,-2
1528190500036650,0,-2,-2,-1,-1,0,0,1
1528190500036650,1,0,0,0,1,-1,-2,0
1528190500049577,0,-1,-2,-2,-1,0,0,-1
1528190500049577,-3,0,-1,-2,-1,-1,1,-1
1528190500064576,-2,-1,-1,-2,1,0,-1,-1
1528190500064576,2,-1,0,-2,-2,0,-1,-1
1528190500072761,-6,-5,-2,1,-3,-1,-1,-1
1528190500072761,3,1,-1,-3,0,-2,0,0
1528190500080498,0,-2,-1,1,-2,-1,-2,-1
1528190500080498,0,-1,-1,-1,-3,-2,-1,0
1528190500095456,-2,-3,0,-1,0,-3,-1,-1
1528190500095456,-2,-2,-2,-1,-1,-1,0,-2
1528190500095456,0,-1,0,-4,-1,-2,-1,-1
1528190500095456,-2,-2,-2,-1,0,-1,-1,-1
1528190500111413,-1,-1,-1,-1,-3,0,-1,-1
1528190500111413,-2,0,-3,-2,-1,-1,-1,-2
1528190500112410,-1,0,-1,0,-1,-3,-1,0
1528190500112410,0,-1,-1,-1,-1,-1,-1,-1
1528190500133140,0,1,-1,-1,-1,0,0,-1
1528190500133140,-1,-2,-1,1,0,-1,-2,0
1528190500133809,-2,0,-1,-1,-2,-1,-1,-1
1528190500133809,-1,-1,-1,1,-1,-1,0,0
1528190500155907,0,-1,0,-1,0,-1,-1,1
1528190500155907,-2,-1,0,-1,-1,1,-2,-2
1528190500155907,-1,-3,-2,0,-1,-1,-1,-1
1528190500155907,-1,-2,-2,-2,-1,-1,-1,-1
1528190500169713,-1,-1,-1,-1,-1,-1,0,0
1528190500169713,-3,-1,0,-1,-2,-2,-1,-1
1528190500170720,-1,-1,-1,-2,-2,-1,0,-1
1528190500170720,0,1,0,0,-3,-1,-1,-2
1528190500192951,1,-1,-2,-1,-2,-2,-2,-1
1528190500192951,-1,-3,-2,-1,-1,-2,-2,-2
1528190500193650,-1,0,-2,-1,-1,-1,0,-1
1528190500193650,-1,-1,0,-2,0,-2,0,1
1528190500215829,-2,-1,-2,-1,-2,0,-1,0
1528190500215829,-1,-2,-2,-2,-1,0,1,-1
1528190500215829,0,-1,-2,-1,-2,-1,-3,-2
1528190500215829,-2,-2,-2,0,-1,-1,-1,-2
1528190500230774,-2,0,0,-2,-1,-2,0,-1
1528190500230774,0,-2,-1,-1,-1,-1,0,-1
1528190500230774,-1,-1,-1,1,0,-1,0,1
1528190500230774,0,0,-2,-2,-3,-1,0,-1
1528190500252524,-2,0,-1,0,-2,-1,-1,-1
1528190500252524,-2,-2,-1,-1,-1,-2,-1,-1
1528190500253488,-2,0,-1,0,-1,0,-2,-2
1528190500253488,0,0,0,-2,-2,-2,-2,-1
1528190500275965,-2,0,1,-1,0,-2,0,-1
1528190500275965,2,-1,0,-1,-2,-2,-1,0
1528190500275965,-1,-1,-1,-2,0,-1,-1,-1
1528190500275965,-1,-1,0,-2,-1,-2,0,-1
1528190500291696,-1,-2,-1,-2,0,-2,-2,-2
1528190500291696,-1,-1,-1,-1,-1,-1,-2,-1
1528190500297961,-1,-1,-2,-1,-1,-2,0,-1
1528190500297961,-1,-2,-2,-1,0,-2,-1,0
1528190500313252,-2,0,-1,1,-2,-1,-2,-1
1528190500313252,-1,-2,0,-2,0,-1,-1,-1
1528190500313252,-3,-2,-1,-1,0,-1,0,0
1528190500313252,-1,-3,-2,-1,0,-1,-1,-2
1528190500344832,0,-3,-2,-2,-2,-1,-2,-2
1528190500344832,0,-1,-1,-1,-2,-1,-2,-1
1528190500345834,0,0,0,-1,-3,-1,-3,-2
1528190500345834,0,-1,0,-1,-2,0,-1,0
1528190500349823,-1,-1,1,-1,-1,0,-3,-1
1528190500349823,-1,-1,-2,-1,-2,0,-1,1
1528190500350818,0,-1,-2,0,-1,-2,0,-1
1528190500350818,0,-1,-1,-1,0,-1,-1,-2
1528190500389047,0,-3,-2,0,1,-3,0,-1
1528190500389047,-1,-1,-1,0,-1,-1,0,-1
1528190500389047,-2,-1,-1,-1,-1,-1,-1,-3
1528190500389047,-1,-1,-1,-1,0,1,-1,0
1528190500395856,-2,0,0,-1,-1,0,-1,0
1528190500395856,0,-2,0,-1,1,-1,-2,-1
1528190500395856,1,-1,-1,0,-2,-1,-1,0
1528190500395856,-1,-1,-1,0,-1,0,-1,-1
1528190500409683,-1,-2,-1,0,-2,-2,0,-2
1528190500409683,-2,0,-2,-1,-2,-1,0,-1
1528190500418172,0,0,-1,-1,-2,-2,-2,0
1528190500418172,-3,0,-3,-3,-1,0,-1,-1
1528190500433892,0,0,-3,-1,0,0,-1,-1
1528190500433892,-2,-1,-1,-3,0,-2,0,0
1528190500433892,-1,-3,-2,0,0,-2,-2,0
1528190500433892,-1,-2,-1,-1,0,-1,-2,0
1528190500454813,-2,-1,-1,-1,-1,-2,-1,0
1528190500454813,0,-1,-3,0,0,-1,0,-2
1528190500454813,0,-1,-3,0,0,-1,0,-2
1528190500454813,0,-1,-3,0,0,-1,0,-2
1528190500454813,0,-1,-3,0,0,-1,0,-2
1528190500454813,0,-1,-3,0,0,-1,0,-2
1528190500454813,0,-1,-3,0,0,-1,0,-2
1528190500454813,0,-1,-3,0,0,-1,0,-2
1528190500454813,0,-1,-3,0,0,-1,0,-2
1528190500454813,0,-1,-3,0,0,-1,0,-2
1528190500454813,0,-1,-3,0,0,-1,0,-2
1528190500454813,0,-1,-3,0,0,-1,0,-2
1528190500454813,0,-1,-3,0,0,-1,0,-2
1528190500454813,0,-1,-3,0,0,-1,0,-2
1528190500454813,0,-1,-3,0,0,-1,0,-2
1528190500454813,0,-1,-3,0,0,-1,0,-2
1528190500454813,0,-1,-3,0,0,-1,0,-2
1528190500454813,0,-1,-3,0,0,-1,0,-2
1528190500454813,0,-1,-3,0,0,-1,0,-2
1528190500454813,0,-1,-3,0,0,-1,0,-2
1528190500454813,0,-1,-3,0,0,-1,0,-2
1528190500454813,0,-1,-3,0,0,-1,0,-2
1528190500454813,0,-1,-3,0,0,-1,0,-2
1528190500454813,0,-1,-3,0,0,-1,0,-2
1528190500454813,0,-1,-3,0,0,-1,0,-2
1528190500454813,0,-1,-3,0,0,-1,0,-2
1528190500454813,0,-1,-3,0,0,-1,0,-2
1528190500454813,0,-1,-3,0,0,-1,0,-2
1528190500454813,0,-1,-3,0,0,-1,0,-2
1528190500454813,0,-1,-3,0,0,-1,0,-2
1528190500454813,0,-1,-3,0,0,-1,0,-2
1528190500454813,0,-1,-3,0,0,-1,0,-2
1528190500454813,0,-1,-3,0,0,-1,0,-2
1528190500454813,0,-1,-3,0,0,-1,0,-2
1528190500454813,0,-1,-3,0,0,-1,0,-2
1528190500454813,0,-1,-3,0,0,-1,0,-2
1528190500454813,0,-1,-3,0,0,-1,0,-2
1528190500454813,0,-1,-3,0,0,-1,0,-2
1528190500454813,0,-1,-3,0,0,-1,0,-2
1528190500454813,0,-1,-3,0,0,-1,0,-2
1528190500454813,0,-1,-3,0,0,-1,0,-2
1528190500454813,0,-1,-3,0,0,-1,0,-2
1528190500454813,0,-1,-3,0,0,-1,0,-2
1528190500454813,0,-1,-3,0,0,-1,0,-2
1528190500454813,0,-1,-3,0,0,-1,0,-2
1528190500454813,0,-1,-3,0,0,-1,0,-2
1528190500454813,0,-1,-3,0,0,-1,0,-2
1528190500454813,0,-1,-3,0,0,-1,0,-2
1528190500454813,0,-1,-3,0,0,-1,0,-2
1528190500454813,0,-1,-3,0,0,-1,0,-2
1528190500454813,0,-1,-3,0,0,-1,0,-2
1528190500454813,0,-1,-3,0,0,-1,0,-2
1528190500454813,0,-1,-3,0,0,-1,0,-2
1528190500454813,0,-1,-3,0,0,-1,0,-2
1528190500454813,0,-1,-3,0,0,-1,0,-2
1528190500454813,0,-1,-3,0,0,-1,0,-2
1528190500454813,0,-1,-3,0,0,-1,0,-2
1528190500454813,0,-1,-3,0,0,-1,0,-2
1528190500454813,0,-1,-3,0,0,-1,0,-2
1528190500454813,0,-1,-3,0,0,-1,0,-2
1528190500454813,0,-1,-3,0,0,-1,0,-2
1528190500454813,0,-1,-3,0,0,-1,0,-2
1528190500454813,0,-1,-3,0,0,-1,0,-2
1528190500454813,0,-1,-3,0,0,-1,0,-2
1528190500454813,0,-1,-3,0,0,-1,0,-2
1528190500454813,0,-1,-3,0,0,-1,0,-2
1528190500454813,0,-1,-3,0,0,-1,0,-2
1528190500454813,0,-1,-3,0,0,-1,0,-2
1528190500454813,0,-1,-3,0,0,-1,0,-2
1528190500454813,0,-1,-3,0,0,-1,0,-2
1528190500454813,0,-1,-3,0,0,-1,0,-2
1528190500454813,0,-1,-3,0,0,-1,0,-2
1528190500454813,0,-1,-3,0,0,-1,0,-2
1528190500454813,0,-1,-3,0,0,-1,0,-2
1528190500454813,0,-1,-3,0,0,-1,0,-2
1528190500454813,0,-1,-3,0,0,-1,0,-2
1528190500454813,0,-1,-3,0,0,-1,0,-2
1528190500454813,0,-1,-3,0,0,-1,0,-2
1528190500454813,0,-1,-3,0,0,-1,0,-2
1528190500454813,0,-1,-3,0,0,-1,0,-2
1528190500454813,0,-1,-3,0,0,-1,0,-2
1528190500454813,0,-1,-3,0,0,-1,0,-2
1528190500454813,0,-1,-3,0,0,-1,0,-2
1528190500454813,0,-1,-3,0,0,-1,0,-2
1528190500454813,0,-1,-3,0,0,-1,0,-2
1528190500454813,0,-1,-3,0,0,-1,0,-2
1528190500454813,0,-1,-3,0,0,-1,0,-2
1528190500454813,0,-1,-3,0,0,-1,0,-2
1528190500454813,0,-1,-3,0,0,-1,0,-2
1528190500454813,0,-1,-3,0,0,-1,0,-2
1528190500454813,0,-1,-3,0,0,-1,0,-2
1528190500454813,0,-1,-3,0,0,-1,0,-2
1528190500454813,0,-1,-3,0,0,-1,0,-2
1528190500454813,0,-1,-3,0,0,-1,0,-2
1528190500454813,0,-1,-3,0,0,-1,0,-2
1528190500454813,0,-1,-3,0,0,-1,0,-2
1528190500454813,0,-1,-3,0,0,-1,0,-2
1528190500454813,0,-1,-3,0,0,-1,0,-2
1528190500454813,0,-1,-3,0,0,-1,0,-2
1528190500454813,0,-1,-3,0,0,-1,0,-2
