timestamp,emg1,emg2,emg3,emg4,emg5,emg6,emg7,emg8
1528185390862048,-1,0,0,-2,-2,1,-1,-1
1528185390862048,-1,-1,-1,-1,-2,0,-1,-1
1528185390863046,1,0,1,1,-1,0,-1,-2
1528185390863046,1,0,-3,-1,-2,-1,-1,1
1528185390865040,-1,0,-3,0,0,-1,-1,-2
1528185390865040,-1,-1,0,-1,0,0,0,-2
1528185390865040,-2,-1,-1,0,-1,0,-1,0
1528185390865040,0,-2,0,-1,-1,0,-1,-1
1528185390875013,-1,-1,0,0,-1,-1,-2,0
1528185390875013,1,-2,-1,0,0,-3,-2,-1
1528185390879003,1,-1,-2,-2,-1,-1,-1,-1
1528185390879003,-1,1,0,-1,-1,-1,0,-1
1528185390893963,0,0,1,-2,-2,-1,1,-1
1528185390893963,0,1,-1,-1,-1,0,-2,1
1528185390903936,-1,1,-2,-1,-1,-1,0,-1
1528185390903936,-2,-1,2,1,-1,-1,1,-1
1528185390909921,-2,-4,0,-1,0,0,-1,0
1528185390909921,-2,-1,-1,1,-1,0,0,0
1528185390932858,0,-2,-1,0,0,-1,-1,-1
1528185390932858,0,-1,-2,-1,0,0,-1,-1
1528185390962779,1,0,-1,0,0,-1,1,1
1528185390962779,0,-1,0,-3,0,-1,0,-2
1528185390970758,0,2,-1,-3,-1,-3,-2,0
1528185390970758,-3,0,-1,-1,-1,1,-1,0
1528185390971755,-2,0,1,0,-1,-2,-1,-1
1528185390971755,-1,0,-1,1,-1,0,-1,-1
1528185390972753,0,-1,-1,-1,-1,-2,-1,0
1528185390972753,-1,-1,1,0,1,-1,0,0
1528185390983722,0,-1,-1,1,0,0,0,1
1528185390983722,-1,-1,-2,-1,-1,0,-1,0
1528185390992698,-1,-2,-1,-2,-2,-1,0,-1
1528185390992698,-1,0,1,-1,-1,-1,-2,-2
1528185391006662,-1,-1,-1,-3,0,1,-1,-1
1528185391006662,-1,0,1,-1,-1,0,-2,0
1528185391013643,-1,0,0,0,2,-2,-1,-2
1528185391013643,-1,0,-2,-1,-2,1,0,0
1528185391020624,0,-1,-2,-1,0,-2,0,0
1528185391020624,0,-2,0,-2,0,-1,1,-1
1528185391037580,-1,0,-1,0,-1,0,-1,0
1528185391037580,-1,-1,-3,-1,0,-2,-2,1
1528185391043564,-1,0,0,-2,-1,0,1,-3
1528185391043564,-1,0,0,1,-1,0,0,0
1528185391059520,0,1,-2,0,-1,0,1,-2
1528185391059520,0,-2,-2,0,-2,-1,-2,-1
1528185391060517,1,-1,0,-1,-1,-1,-1,0
1528185391060517,-1,-1,0,-1,-1,-1,0,-1
1528185391081462,0,0,-2,-1,-1,1,-1,0
1528185391081462,-2,0,1,-1,0,-2,0,-1
1528185391082459,-1,-1,0,-1,-1,-1,-2,2
1528185391082459,2,-1,-2,-1,-1,-1,0,-1
1528185391104402,-1,-2,0,0,1,0,0,0
1528185391104402,-1,0,0,-1,-1,-1,2,-2
1528185391105398,-2,-1,-1,0,-1,-1,-1,-2
1528185391105398,-1,-1,-1,-2,0,-1,0,0
1528185391119406,-2,0,-1,-2,0,-1,-1,0
1528185391119406,1,0,-2,-1,0,-1,0,0
1528185391120401,1,0,-2,-2,1,0,0,0
1528185391120401,-2,0,-1,0,-2,1,-1,-1
1528185391141321,-1,-1,0,-1,0,-1,-1,1
1528185391141321,-2,0,1,1,-1,1,0,-1
1528185391142310,-2,0,0,0,0,-3,1,-1
1528185391142310,0,0,-2,-1,1,-1,0,0
1528185391164240,1,0,1,-1,-2,-1,0,0
1528185391164240,-1,-1,-2,-1,0,2,1,-1
1528185391165238,0,-1,0,-1,-1,0,-1,-1
1528185391165238,-1,-2,-1,-2,0,-3,-1,0
1528185391179201,-1,-1,-2,-2,-1,0,0,0
1528185391179201,0,0,-3,-2,0,-2,-1,0
1528185391180198,-1,0,-2,0,-2,0,1,0
1528185391180198,-2,0,-2,0,0,0,-1,0
1528185391202166,-3,-1,0,0,0,0,0,1
1528185391202166,0,0,1,-1,0,-4,-1,0
1528185391203137,0,0,-2,0,-2,0,-1,0
1528185391203137,-1,-1,0,-1,0,-1,-2,-2
1528185391224101,0,0,-1,1,-2,2,-1,-1
1528185391224101,-1,-2,0,1,0,-1,-2,-1
1528185391225078,0,-1,-1,0,-1,-1,0,0
1528185391225078,0,-1,-1,1,-1,-1,-1,0
1528185391239080,0,1,-1,0,-1,-2,-2,0
1528185391239080,-1,-1,1,-2,0,1,-1,-1
1528185391240037,-2,-2,-1,-1,0,-1,-1,-1
1528185391240037,0,-1,-1,-2,0,0,1,0
1528185391261981,-2,-3,-1,-2,-1,-2,0,-3
1528185391261981,0,0,0,-2,0,-2,0,-1
1528185391262977,-2,0,-2,-2,0,-1,-1,-2
1528185391262977,-3,2,-2,-2,-1,0,-2,0
1528185391283920,0,-1,-1,1,0,0,-1,-1
1528185391283920,0,0,-2,-1,-1,-1,-2,0
1528185391284919,1,-1,0,-2,0,0,1,0
1528185391284919,-1,-1,0,1,-1,-2,-1,-1
1528185391298916,1,-1,0,-2,0,-2,-1,0
1528185391298916,-1,-2,-3,-1,-1,1,0,-2
1528185391299879,-1,-1,-2,1,-1,1,0,0
1528185391299879,0,-3,2,-1,0,0,-1,0
1528185391321819,-2,-1,0,-1,-2,-1,-1,-2
1528185391321819,0,-2,-1,0,0,1,0,2
1528185391322819,0,-1,0,-1,-1,-2,-2,0
1528185391322819,0,0,-1,1,0,0,1,-1
1528185391344759,-2,-1,0,0,0,-1,0,1
1528185391344759,0,0,-1,0,-1,-1,-2,-1
1528185391344759,-2,0,-1,1,-1,-2,0,-2
1528185391344759,2,0,-1,-1,-1,1,0,0
1528185391367735,0,-1,0,0,-1,-1,0,0
1528185391367735,-1,-1,-2,0,0,-1,0,-1
1528185391368734,0,-1,-2,-1,0,-1,-2,1
1528185391368734,-1,0,-1,-2,0,-1,0,-1
1528185391381696,2,-1,-1,-1,1,0,-1,-1
1528185391381696,-1,0,0,-1,-1,0,-2,-1
1528185391396669,1,-2,-1,-2,0,-1,1,-1
1528185391396669,0,0,-1,0,0,-1,-2,-1
1528185391404599,0,1,0,-1,-1,0,-1,1
1528185391404599,1,-2,0,-1,-1,0,-1,0
1528185391405625,-1,-2,-1,1,-1,1,-1,0
1528185391405625,-1,-2,-1,-3,0,0,1,-1
1528185391419613,1,-1,-2,0,-2,-1,0,-2
1528185391419613,-1,0,-1,-1,-1,0,-1,1
1528185391420575,-2,0,1,-1,1,-1,0,0
1528185391420575,-1,0,-2,1,-1,-1,0,0
1528185391441499,-2,0,0,-2,0,-1,-1,-2
1528185391441499,1,2,-1,0,-1,-1,0,-1
1528185391449477,0,0,-1,0,0,1,0,0
1528185391449477,1,-1,-1,2,0,-1,0,0
1528185391481392,-2,-1,-2,-1,0,0,-2,1
1528185391481392,-1,0,0,1,0,-2,0,0
1528185391482389,0,-2,-1,0,-1,-2,-1,0
1528185391482389,-1,-1,0,0,-1,0,-1,0
1528185391483386,-1,-1,1,-1,0,-2,-2,0
1528185391483386,-2,0,-1,-2,-1,-1,0,0
1528185391486379,-1,-1,-2,-1,-1,-2,-3,-1
1528185391486379,-1,1,-1,-2,-1,-1,-2,0
1528185391510315,0,-1,0,-1,-1,0,1,-2
1528185391510315,-1,-2,-1,1,-1,0,0,0
1528185391511324,-1,0,0,0,1,0,-1,1
1528185391511324,0,-1,1,-1,0,1,0,-1
1528185391524278,-2,-1,-1,1,-1,0,-1,0
1528185391524278,-1,-1,0,0,-1,-2,-1,-1
1528185391525275,1,-1,-2,0,-1,0,-1,-1
1528185391525275,-2,0,-1,0,0,0,-2,0
1528185391539264,-1,0,-2,-1,0,0,0,-1
1528185391539264,-1,0,-2,-1,-1,0,-1,-1
1528185391540241,0,-1,0,-1,-1,0,-1,-1
1528185391540241,0,0,0,-1,0,0,-1,-1
1528185391562176,1,-1,-2,-1,0,-1,-1,0
1528185391562176,-1,-1,0,0,0,-1,-2,0
1528185391562176,-1,1,1,-2,-2,0,-1,-1
1528185391562176,-1,-2,-2,0,-1,0,0,0
1528185391593094,2,-1,-1,0,0,-1,-1,-1
1528185391593094,-1,-2,0,0,0,-1,0,-1
1528185391593094,-1,0,1,1,-1,0,-1,0
1528185391593094,0,-2,-1,-2,-1,-1,0,-1
1528185391599078,-1,0,0,-1,0,-1,-2,0
1528185391599078,1,1,-2,-1,0,0,-1,-1
1528185391600076,-2,1,1,-1,1,-1,-1,-2
1528185391600076,-2,0,-1,-1,1,-1,-2,1
1528185391622016,1,1,-1,1,-2,1,0,-1
1528185391622016,0,-2,0,-2,-1,-1,-3,-1
1528185391623014,0,-1,0,-1,-1,1,1,-1
1528185391623014,0,-1,-1,0,0,0,-1,-3
1528185391645035,-2,-1,0,-1,0,-3,-2,-2
1528185391645035,-1,-2,0,-1,0,-3,1,3
1528185391645035,1,-1,-3,0,0,0,-1,-1
1528185391645035,-2,1,-2,1,-1,-2,-1,0
1528185391659045,-1,1,-3,-1,0,0,0,1
1528185391659045,2,-1,0,0,0,-1,1,-1
1528185391673960,0,1,-1,0,0,-1,0,2
1528185391673960,-1,-1,0,-2,1,-1,-2,-1
1528185391682175,-1,-1,-2,1,1,-1,-1,-1
1528185391682175,-2,1,-1,0,1,1,-1,-1
1528185391682938,-1,-3,0,-1,-1,1,-1,0
1528185391682938,0,-1,0,-1,-1,-1,0,0
1528185391703889,-1,0,1,0,-1,0,-1,-1
1528185391703889,0,-2,0,0,-2,-1,0,-1
1528185391704878,-2,-1,-1,-1,-1,0,-2,-1
1528185391704878,0,-1,-1,0,-2,-1,0,-1
1528185391719517,0,-1,-1,-3,-2,0,-1,0
1528185391719517,-2,0,-1,0,-1,-1,0,0
1528185391727307,-1,-1,-1,-1,0,-2,-2,0
1528185391727307,-1,-1,0,-1,1,-2,0,-2
1528185391742263,-2,0,0,1,-1,0,-1,-1
1528185391742263,-1,0,-1,0,0,0,0,-1
1528185391742263,0,0,-1,-1,-1,0,0,1
1528185391742263,-1,-1,-2,0,0,-1,0,-1
1528185391764163,0,-2,0,0,0,-1,0,1
1528185391764163,-2,2,-1,-2,0,0,-2,-1
1528185391765754,1,0,0,-1,0,-1,0,-1
1528185391765754,-2,-1,-1,0,1,-1,-2,0
1528185391778721,-1,-1,-1,0,0,0,1,0
1528185391778721,-2,-4,-2,0,-1,0,-1,-2
1528185391786923,-2,-4,-1,-2,-2,0,0,-1
1528185391786923,0,-1,-1,0,-1,0,-1,-2
1528185391801890,1,-2,0,-2,1,-2,-2,-1
1528185391801890,-1,0,0,-1,1,0,0,0
1528185391802658,0,-4,-2,0,0,-2,0,-1
1528185391802658,0,0,-2,-1,-1,-2,-1,0
1528185391825095,-1,-1,1,0,-2,1,1,1
1528185391825095,0,0,0,-1,0,0,0,0
1528185391825095,-3,-1,0,-1,-1,0,-1,0
1528185391825095,-1,-1,-1,0,0,-1,0,-1
1528185391839222,-1,1,-2,-1,0,-2,0,0
1528185391839222,1,0,1,-1,-1,0,1,0
1528185391847478,0,-1,-1,1,0,1,0,-1
1528185391847478,0,-2,0,0,1,-2,-2,1
1528185391870339,-1,-2,-1,-2,0,0,-1,-3
1528185391870339,-1,-1,0,1,-2,-1,-1,-1
1528185391871080,-1,1,-1,-2,0,1,-2,0
1528185391871080,0,0,-1,-2,-2,2,-1,-1
1528185391885076,-1,1,0,-1,-1,0,0,-1
1528185391885076,-1,0,-1,-2,-2,-2,0,-1
1528185391885076,-2,-2,-2,-1,-1,-2,-1,1
1528185391885076,0,-1,1,0,0,0,-1,0
1528185391899318,-3,-1,-1,0,0,-1,-1,-2
1528185391899318,-2,-1,0,-3,1,-1,-1,-2
1528185391906489,-2,-1,0,0,1,-3,-1,-1
1528185391906489,1,-2,-1,1,1,0,-1,-1
1528185391922714,0,0,-2,0,-1,0,-1,-1
1528185391922714,-2,-2,-1,0,-2,0,-2,-1
1528185391922714,0,0,-1,0,-2,-1,0,-2
1528185391922714,1,1,0,-3,-1,-2,1,0
1528185391953399,-1,-2,-2,-1,-2,0,0,0
1528185391953399,1,0,-2,-1,0,0,-1,-1
1528185391954358,1,0,-1,0,0,1,-1,-1
1528185391954358,-1,-1,-1,0,1,1,-1,0
1528185391968362,0,0,0,-1,0,-1,0,0
1528185391968362,3,-1,0,-1,-2,0,-1,-1
1528185391969318,0,-1,0,-1,0,0,-1,-1
1528185391969318,-1,-1,0,-2,-2,-1,0,1
1528185391990509,0,0,0,-1,-1,0,0,0
1528185391990509,0,-1,0,-2,1,-1,0,0
1528185391991509,1,0,1,0,-1,0,1,-1
1528185391991509,-1,-2,-1,-1,0,0,1,-1
1528185392004233,-1,-1,0,2,-1,-2,-4,-1
1528185392004233,-1,-1,-1,0,-2,-1,-2,0
1528185392013404,-2,-1,-1,0,0,0,-1,0
1528185392013404,0,1,-1,-2,1,-2,-1,0
1528185392035764,0,2,-1,0,-1,-1,-1,-3
1528185392035764,-1,0,1,0,0,0,-1,-2
1528185392036448,-1,0,0,-1,-1,-1,-1,-1
1528185392036448,-1,1,-2,0,-2,-1,0,-1
1528185392049877,-1,-2,-1,0,-3,-1,1,-1
1528185392049877,-1,-1,-1,-1,0,-2,0,0
1528185392051871,-1,-2,1,-1,-1,0,-1,0
1528185392051871,-1,-1,-1,-1,-2,-1,-2,-1
1528185392063839,0,-1,2,0,0,1,-1,-1
1528185392063839,0,0,-2,0,-2,-2,-1,1
1528185392072815,0,-1,-1,-1,0,-2,0,-1
1528185392072815,0,0,-2,-1,-2,0,-1,-1
1528185392087800,-1,-1,-1,0,1,0,2,1
1528185392087800,-2,0,0,1,-2,1,0,-1
1528185392088791,0,0,-2,0,0,0,-1,-2
1528185392088791,-1,0,0,0,-1,-1,0,0
1528185392117747,-1,0,-1,-1,1,-3,-2,0
1528185392117747,1,-1,-1,0,0,-1,1,-1
1528185392118692,-1,0,-2,0,-1,-2,0,-1
1528185392118692,-2,-3,-1,0,1,-1,-1,-2
1528185392123678,1,-1,0,-2,-2,-1,-1,-2
1528185392123678,-1,-1,0,0,0,-1,0,0
1528185392132655,0,0,-1,-1,-1,0,-1,1
1528185392132655,0,0,0,-1,-1,-1,0,0
1528185392147666,-1,-1,-1,-2,0,0,-1,1
1528185392147666,-3,-2,-2,-1,-1,-1,-1,-1
1528185392149659,-2,-1,-1,-1,-1,1,-1,0
1528185392149659,-2,0,1,-2,-2,0,0,-2
1528185392169610,0,1,-1,4,2,-1,-1,1
1528185392169610,0,-1,0,-1,-1,0,0,0
1528185392171550,1,1,-1,-1,-1,-3,0,-1
1528185392171550,0,0,0,1,0,-1,1,0
1528185392183522,0,-1,-3,-10,-5,0,-1,-1
1528185392183522,-1,-1,-2,0,1,-1,-1,0
1528185392200474,-1,-2,-1,1,1,1,-2,1
1528185392200474,-2,-2,-1,-1,-1,-1,0,-1
1528185392207500,-1,-1,2,-2,-2,-1,-3,-2
1528185392207500,0,1,-2,-2,0,-1,0,-1
1528185392209483,1,-1,0,-2,-2,-3,0,-1
1528185392209483,1,0,-1,-1,0,1,-2,-1
1528185392230448,-2,-1,-2,0,1,0,1,0
1528185392230448,-1,-1,1,0,1,0,0,-2
1528185392231390,-1,0,-1,0,1,-1,-1,-1
1528185392231390,1,-1,-1,-1,0,-1,0,1
1528185392243413,0,-1,-2,1,0,-2,0,-1
1528185392243413,-1,0,0,-2,-1,-2,-2,0
1528185392252383,-2,-1,0,-2,-1,-1,-1,-2
1528185392252383,-1,-3,-1,1,1,1,0,1
1528185392267349,0,1,-1,-1,1,1,0,-1
1528185392267349,0,1,-1,-1,0,-1,-1,-1
1528185392269290,0,1,-1,-2,-1,0,1,0
1528185392269290,-1,0,0,-1,1,-1,0,-1
1528185392290259,0,0,-1,-2,0,1,0,-1
1528185392290259,-1,-2,-1,-1,-2,0,-1,-2
1528185392291262,-1,-1,-1,-1,0,-1,-1,-2
1528185392291262,-1,-1,-1,0,0,-1,0,-1
1528185392303213,0,-3,-1,-5,-3,1,-1,0
1528185392303213,0,-2,-1,2,1,0,0,1
1528185392312219,0,-3,-3,0,-1,-1,-1,0
1528185392312219,0,0,1,-2,-2,0,-3,-2
1528185392328186,-1,-1,-1,0,-2,-1,-2,-1
1528185392328186,0,-1,-1,-1,-1,-1,1,0
1528185392330126,-1,0,-1,0,0,-1,-2,0
1528185392330126,0,-1,-2,0,0,-1,1,-1
1528185392350073,1,1,-1,1,0,-1,-1,-2
1528185392350073,0,-2,0,-2,-3,-2,-1,-1
1528185392352069,-1,-2,0,0,0,0,-1,-1
1528185392352069,0,0,0,-2,-1,-1,0,0
1528185392364090,-1,-1,-1,6,5,0,0,-2
1528185392364090,0,0,-2,0,1,-2,0,1
1528185392379994,0,-1,-1,-2,-2,1,-2,-1
1528185392379994,-1,0,-1,0,0,-2,-1,-1
1528185392395008,-1,-1,-1,-1,-1,0,0,-1
1528185392395008,-1,0,1,-1,-1,0,-1,-1
1528185392397001,-1,-1,0,1,-1,-2,0,-2
1528185392397001,0,0,1,-1,-3,-2,-1,0
1528185392409952,0,-2,-1,0,0,0,1,-1
1528185392409952,0,0,-2,0,0,0,-2,-1
1528185392411909,0,-1,1,-4,-7,-2,-1,-1
1528185392411909,1,-1,-1,0,-1,-2,-3,-2
1528185392424121,-1,-1,1,-1,-1,-1,0,1
1528185392424121,-2,0,0,1,1,1,-1,-1
1528185392440102,0,0,0,1,0,0,0,-1
1528185392440102,0,-1,-2,-3,-2,0,-1,0
1528185392454800,1,1,0,-2,-1,-2,-1,-1
1528185392454800,-2,-1,0,-1,-3,-2,0,-1
1528185392456789,-2,2,0,0,2,0,-1,0
1528185392456789,-2,0,-2,-2,0,-1,0,0
1528185392478054,0,1,-1,-1,0,-2,0,-2
1528185392478054,0,-2,-1,-2,-1,1,-1,-1
1528185392478731,1,-1,-1,0,-1,1,-1,0
1528185392478731,-1,-2,-1,0,0,-1,-1,-2
1528185392484115,-1,-1,1,0,-1,-1,-2,0
1528185392484115,-1,0,1,3,-4,-3,-1,-1
1528185392492701,-2,-2,-2,0,0,-1,0,-1
1528185392492701,-1,-1,-1,0,-1,2,2,-1
1528185392506946,0,0,-2,0,1,-1,0,2
1528185392506946,0,-1,-1,-2,0,0,0,0
1528185392513639,2,0,-1,1,0,-1,0,1
1528185392513639,0,0,-1,1,-4,-2,-1,-1
1528185392529789,-3,0,-2,-2,-2,2,0,-2
1528185392529789,-1,-1,-1,-1,0,1,1,0
1528185392536885,-3,1,-1,1,1,-1,0,-2
1528185392536885,-1,0,0,-1,1,0,-1,1
1528185392561559,0,-2,0,-2,-1,0,-1,0
1528185392561559,0,0,-2,-3,1,0,0,1
1528185392562506,0,1,-2,0,0,0,-1,-1
1528185392562506,-2,-1,-1,0,-1,-2,-1,0
1528185392566837,0,0,-1,1,-1,-2,-1,-2
1528185392566837,-1,-1,-1,0,-1,0,0,0
1528185392574156,-1,-2,-1,-2,0,-1,0,1
1528185392574156,-1,-1,1,-1,1,1,0,-1
1528185392590864,-1,-1,-1,-1,-1,0,-1,0
1528185392590864,0,0,-1,-3,-1,0,0,-1
1528185392591733,-1,-1,-1,1,1,-4,-1,0
1528185392591733,0,-1,-1,-1,-2,-2,1,-1
1528185392620292,0,0,-2,-2,-1,-2,-1,0
1528185392620292,-1,1,0,0,-1,-2,0,-1
1528185392621949,0,-3,-1,-1,0,-1,0,-1
1528185392621949,-2,1,1,-1,0,0,0,-1
1528185392627933,0,-1,0,-1,-1,1,-1,0
1528185392627933,-2,0,-1,-1,-1,1,-2,0
1528185392629194,0,0,-1,-1,-1,-1,0,-1
1528185392629194,1,0,-4,0,0,-1,-1,-1
1528185392658136,-1,-2,-1,0,-1,1,0,-1
1528185392658136,0,-2,1,0,0,-2,-1,-1
1528185392664537,1,-1,0,-2,-1,0,0,0
1528185392664537,-1,-1,-1,-2,0,1,1,-1
1528185392672839,-1,-1,-1,-2,0,0,-1,-1
1528185392672839,0,-2,-2,0,-1,0,0,-1
1528185392674551,-1,-1,0,-1,-2,-2,-1,-1
1528185392674551,-1,0,-1,-3,-1,-1,-2,-2
1528185392686864,-2,-1,-1,0,-2,-1,0,0
1528185392686864,-2,-1,-1,0,-1,-3,-1,-1
1528185392702442,-1,-1,0,-2,-1,-1,0,0
1528185392702442,0,-2,-1,0,0,-1,0,-2
1528185392711563,-1,1,-1,0,-1,0,-1,-1
1528185392711563,0,-1,-2,-1,0,1,0,0
1528185392712412,-1,-1,-1,0,-2,-2,-1,-1
1528185392712412,0,-1,-1,1,0,0,0,-1
1528185392732700,1,0,-1,0,-2,0,0,0
1528185392732700,-1,0,-1,-1,-1,-1,1,-1
1528185392734352,-2,0,-1,-2,0,1,0,-2
1528185392734352,-2,-1,0,0,-1,-1,-1,0
1528185392755593,-2,-1,-1,0,-1,-2,2,-1
1528185392755593,-1,-1,-2,-1,-1,-1,0,1
1528185392756294,0,0,-2,0,1,0,0,0
1528185392756294,-1,-2,0,-1,-1,-2,-1,0
1528185392770530,-2,-1,0,-1,1,0,-1,0
1528185392770530,0,-1,0,-1,0,-2,-2,-1
1528185392771255,-2,0,-1,1,-2,0,-2,-1
1528185392771255,1,0,-1,0,-1,0,-1,-1
1528185392792574,0,-1,1,-2,-1,0,-2,-1
1528185392792574,0,1,-1,0,0,0,-1,-1
1528185392794212,0,-2,0,1,0,0,0,-1
1528185392794212,0,-1,0,2,0,-1,0,1
1528185392806490,-1,-1,0,0,0,-1,-2,-2
1528185392806490,0,-2,0,-2,-1,1,0,-1
1528185392815150,-1,-1,0,0,-1,-2,-1,-1
1528185392815150,-1,-1,-2,-1,-1,0,1,-1
1528185392837169,-2,0,1,-1,0,-1,-1,-2
1528185392837169,-1,-1,0,-1,-1,0,-1,-3
1528185392839072,0,1,-1,-1,-2,-1,-2,-1
1528185392839072,-1,-2,0,0,-1,-1,-2,1
1528185392868343,-1,-1,-2,0,-3,-2,0,0
1528185392868343,0,1,0,0,0,-1,0,0
1528185392869989,1,-1,0,-3,0,0,1,0
1528185392869989,0,0,-1,-1,0,-1,-1,-1
1528185392870987,0,0,0,-1,-2,1,-1,0
1528185392870987,0,0,-2,-1,0,-1,-2,0
1528185392875124,-1,-2,-1,-1,0,-2,-1,-1
1528185392875124,-1,-2,-1,-1,-1,-1,0,-2
1528185392898172,1,-3,-1,-1,-1,-3,-2,-1
1528185392898172,-1,-1,-2,-1,-1,-1,0,-1
1528185392899157,-1,2,-1,-1,-1,-1,0,-1
1528185392899157,-2,0,0,-1,-1,0,-1,-2
1528185392912663,1,0,0,1,1,-1,-1,1
1528185392912663,0,-1,-1,0,1,-2,-1,0
1528185392914418,0,-1,-1,-1,0,2,-2,0
1528185392914418,0,-1,-1,-2,0,0,-1,0
1528185392926649,0,-1,1,-1,0,-2,1,-1
1528185392926649,-1,-3,-1,-1,-3,-1,0,-1
1528185392935427,0,-1,-2,-1,-1,0,-1,-1
1528185392935427,-1,-1,-1,-1,-3,-2,-1,1
1528185392950660,0,0,-1,0,0,-1,1,-1
1528185392950660,-1,-1,-1,-1,0,0,1,-1
1528185392952397,-1,-1,0,-1,-1,0,2,-1
1528185392952397,-1,0,1,-3,-2,0,1,-1
1528185392973344,-1,0,-2,0,0,-2,0,0
1528185392973344,-2,1,1,0,-2,-1,-2,-1
1528185392974323,0,-1,1,0,-1,1,-1,-2
1528185392974323,1,-1,-1,-2,0,1,-1,1
1528185392986553,0,-2,0,-2,-1,1,-1,0
1528185392986553,-2,0,0,-1,-1,-1,-2,0
1528185392995267,0,-2,-1,-2,-2,-2,2,1
1528185392995267,1,0,0,-2,0,-1,-1,1
1528185393010240,0,-1,-1,-2,-1,0,0,-1
1528185393010240,-1,-1,-1,0,-2,1,0,0
1528185393012421,0,0,0,-1,1,-1,-1,0
1528185393012421,-2,1,-1,0,-1,-1,-2,-1
1528185393033245,-1,0,-2,0,1,-1,-1,0
1528185393033245,2,-1,-2,0,0,0,0,-1
1528185393034163,0,-3,1,-1,0,-1,-1,-1
1528185393034163,0,-2,-2,-1,-1,-2,0,0
1528185393046387,-1,0,0,-1,-1,-2,1,-2
1528185393046387,0,1,0,-1,-2,-1,1,0
1528185393072061,-1,0,-3,-1,-3,-2,0,1
1528185393072061,-1,-1,-1,-1,1,-1,-1,-1
1528185393073060,0,-4,0,-1,0,-1,-1,0
1528185393073060,-1,-3,-1,0,-2,-2,-1,-1
1528185393076104,-1,1,-1,1,-2,0,0,-1
1528185393076104,-3,0,0,0,-1,0,-1,-2
1528185393093005,-1,0,-2,0,-1,-2,-2,-1
1528185393093005,1,0,-1,-1,0,-2,0,-1
1528185393094003,-1,-1,0,-1,1,0,-1,-1
1528185393094003,0,-1,-1,-1,0,0,0,1
1528185393115211,-1,-1,-2,0,-1,-1,-1,1
1528185393115211,-2,0,-1,-1,-1,0,0,-2
1528185393116941,0,0,0,1,0,-1,1,-1
1528185393116941,-1,-1,-1,1,-2,1,0,-1
1528185393130933,1,0,0,0,0,-1,-1,-1
1528185393130933,-1,-2,-1,-2,1,-2,-2,-2
1528185393131903,-2,0,-2,-1,-2,-1,-2,1
1528185393131903,-1,0,-1,-2,1,-2,1,0
1528185393153110,-1,1,-1,-2,-1,-1,-1,-1
1528185393153110,0,0,0,1,0,0,-1,0
1528185393153842,-2,-2,-2,-1,-1,-1,-1,-1
1528185393153842,0,0,-1,1,-1,-2,-2,-2
1528185393175881,-1,1,-3,0,-1,0,0,0
1528185393175881,-1,-1,0,0,-1,0,0,1
1528185393176783,-1,-2,0,-2,-1,0,-3,0
1528185393176783,0,0,-1,1,-1,-1,-1,0
1528185393190792,0,-3,0,0,-1,0,-2,0
1528185393190792,0,-2,0,-2,0,-1,-1,0
1528185393191742,-1,-1,1,-1,0,-2,1,-1
1528185393191742,0,-1,0,0,0,-1,0,0
1528185393213256,-1,-1,-1,-1,-1,-1,0,0
1528185393213256,1,-1,0,-2,-1,0,0,-1
1528185393213987,-1,0,0,0,-1,-2,-2,-1
1528185393213987,-3,-2,-1,-3,0,-1,-1,-1
1528185393225955,0,-1,-2,1,1,-1,-1,0
1528185393225955,-1,0,-1,0,-1,-1,0,0
1528185393234949,1,-1,-1,0,0,-1,1,0
1528185393234949,-1,-1,-1,0,-2,0,-1,-1
1528185393250888,-3,-1,1,0,1,1,-1,-1
1528185393250888,-1,-1,-1,0,-1,-1,0,0
1528185393251886,-1,0,-1,-2,0,0,0,0
1528185393251886,0,-2,0,0,-1,-1,0,-1
1528185393273090,1,-2,1,0,1,-1,0,0
1528185393273090,-1,0,-2,-1,0,-1,-1,1
1528185393273827,0,-1,0,-2,1,-1,-1,0
1528185393273827,-1,0,0,-2,0,-2,-1,0
1528185393286980,-2,1,-1,-1,-1,-1,-1,0
1528185393286980,-1,-1,1,0,-2,-1,0,-1
1528185393295103,0,0,-1,1,0,-1,0,-1
1528185393295103,1,-1,-1,-1,-1,0,1,-1
1528185393309734,1,-1,0,-2,-1,0,1,-1
1528185393309734,-1,0,0,0,0,-2,-1,0
1528185393316864,0,0,-1,-1,-1,-1,-2,-1
1528185393316864,-1,2,-1,-1,-3,0,-1,2
1528185393332984,0,-1,-2,-1,-1,-2,-2,-1
1528185393332984,-1,-1,-2,-1,0,1,-2,-3
1528185393334934,0,1,-1,-2,0,-1,-2,1
1528185393334934,-2,-2,0,-1,2,-1,0,0
1528185393346636,-1,0,-1,0,-2,-2,-1,-1
1528185393346636,-1,-1,-1,0,-1,0,0,0
1528185393355634,-2,-1,-2,0,0,1,-1,1
1528185393355634,1,1,0,0,0,0,0,-3
1528185393369571,0,0,0,0,-1,-1,-1,-2
1528185393369571,1,-2,0,-2,0,-1,1,-1
1528185393376696,0,-2,-2,1,-2,0,1,-1
1528185393376696,0,-1,0,-1,1,0,0,0
1528185393392513,-1,-2,-1,-2,0,0,1,-1
1528185393392513,0,0,-1,0,-2,0,0,-2
1528185393394504,-3,-1,-2,-1,-1,-2,0,-1
1528185393394504,-1,1,-1,-1,-2,-1,-1,-1
1528185393406756,0,-1,0,-1,1,0,-1,-1
1528185393406756,-1,0,0,0,-1,-1,0,0
1528185393415449,0,-2,1,-1,-1,0,1,0
1528185393415449,-2,-1,-1,-1,-1,-1,-2,0
1528185393429832,-1,0,2,-2,0,0,-1,-1
1528185393429832,-1,-1,-1,-1,0,0,-1,0
1528185393436719,-1,0,-1,2,-2,-1,-1,-1
1528185393436719,-3,0,0,-1,-1,-2,0,0
1528185393452350,-2,-1,0,0,-2,-1,1,1
1528185393452350,-1,-2,2,0,1,-1,0,-1
1528185393454346,-1,-2,0,-1,-2,1,-1,0
1528185393454346,0,-2,-1,-2,-1,0,0,-1
1528185393475567,-2,0,-2,0,-1,0,-1,-1
1528185393475567,0,1,-1,-1,0,-2,-1,-1
1528185393477400,-1,-1,-1,0,0,-2,0,-1
1528185393477400,-1,-1,-1,0,-1,0,-1,-2
1528185393489563,0,-1,-1,0,0,0,1,-2
1528185393489563,0,-1,-1,-1,-1,0,0,0
1528185393503523,0,1,0,0,1,0,0,-1
1528185393503523,0,1,0,0,0,0,0,1
1528185393512502,0,1,-1,-2,-1,-2,-1,1
1528185393512502,-2,-2,-1,-1,-1,-2,-1,0
1528185393514494,0,-1,-1,0,0,0,-2,-1
1528185393514494,0,-1,0,-1,0,-2,-2,0
1528185393535683,0,-1,0,0,0,-1,0,1
1528185393535683,-1,0,-2,-1,-1,-1,2,-2
1528185393536435,0,0,-1,-3,0,-3,-1,0
1528185393536435,-2,-1,0,-1,-1,-1,-1,-2
1528185393549621,-1,-1,-1,1,0,0,-1,-1
1528185393549621,-1,-1,-2,0,-1,1,-1,1
1528185393556623,0,-1,-1,-2,0,-3,-1,-2
1528185393556623,0,1,0,-1,0,1,0,-1
1528185393572748,-1,-1,0,-1,-1,-2,-2,-1
1528185393572748,-2,-2,0,-1,-1,0,-2,-1
1528185393574334,-1,-1,-3,-2,0,1,0,-1
1528185393574334,1,-1,1,-1,-1,1,-1,0
1528185393595544,0,1,-2,-1,-1,-1,-2,-1
1528185393595544,0,1,0,0,-1,-2,0,0
1528185393596534,0,0,-1,0,-1,0,1,0
1528185393596534,-1,-2,-1,-1,-2,1,1,-1
1528185393609241,-1,-1,0,0,-1,0,1,-2
1528185393609241,0,-1,1,0,-1,-1,-1,0
1528185393618221,-3,-1,0,-1,0,-1,-1,-1
1528185393618221,-1,-2,-1,0,1,-1,-1,-1
1528185393633267,1,-2,-1,-1,-1,-1,0,0
1528185393633267,-2,0,0,-1,-2,-1,-1,-1
1528185393634219,-1,0,0,-2,-2,-1,0,1
1528185393634219,-1,-1,-2,-1,0,-1,-1,0
1528185393655164,-2,-2,1,1,0,1,-2,-2
1528185393655164,-1,0,0,0,0,0,-2,-2
1528185393656200,1,-2,1,-1,0,-1,0,0
1528185393656200,0,0,-1,-1,-1,-2,0,-1
1528185393669154,-1,-3,-1,-1,-1,-1,0,1
1528185393669154,-1,1,-1,-1,-1,-1,-1,-1
1528185393678102,0,0,0,-1,-1,-1,-1,-2
1528185393678102,0,0,1,1,-1,-1,-1,2
1528185393693269,-1,-1,0,-3,0,-1,0,-2
1528185393693269,0,-2,0,-2,-2,-1,-2,0
1528185393694116,0,-2,-2,1,-3,0,-1,0
1528185393694116,0,-1,-1,-1,0,-2,-1,0
1528185393715280,-1,0,-1,0,0,-1,0,0
1528185393715280,-1,-1,1,0,0,-1,0,0
1528185393717054,-1,0,-2,-2,-1,1,-1,-2
1528185393717054,2,0,1,0,1,-1,0,-2
1528185393729430,-2,1,-1,1,1,-1,0,0
1528185393729430,-1,-1,0,-2,-2,-1,-1,0
1528185393737442,0,-1,1,0,-2,-2,-2,1
1528185393737442,-1,-1,-1,-2,-2,1,0,-1
1528185393752643,-1,-1,-1,-1,0,-1,1,1
1528185393752643,1,-1,-2,-2,1,0,-1,-2
1528185393754398,-1,-1,1,1,1,-2,0,-1
1528185393754398,-1,1,0,-2,0,1,0,-1
1528185393775604,0,0,-1,-1,-1,-2,-2,-2
1528185393775604,1,-1,-2,0,-1,-1,-1,1
1528185393776346,-1,0,-1,-2,-2,-1,0,-2
1528185393776346,0,-1,-2,0,0,0,-2,-1
1528185393789442,-2,0,0,0,0,-1,0,-2
1528185393789442,-1,0,0,1,0,0,-1,-1
1528185393798504,-1,0,-1,0,0,0,-1,1
1528185393798504,1,-2,-1,0,-1,-1,0,-1
1528185393812383,0,0,0,-1,-2,0,-1,0
1528185393812383,1,-1,-1,1,-1,0,1,-2
1528185393814378,-1,1,-3,1,0,-1,-1,1
1528185393814378,-1,-2,0,-1,-3,0,-1,-1
1528185393836533,-2,-1,-1,0,-3,-1,-1,1
1528185393836533,0,-1,-1,0,0,-2,1,-1
1528185393837317,-1,-1,0,0,0,0,0,-1
1528185393837317,0,0,0,-1,1,-1,0,-2
1528185393848306,1,-1,0,-2,0,-2,-1,0
1528185393848306,-1,0,-1,-1,-1,-1,0,1
1528185393857278,0,-2,1,-1,-2,-1,-1,-1
1528185393857278,-2,-1,-2,-1,0,0,-2,-1
1528185393872223,0,-2,1,0,-2,1,-1,-1
1528185393872223,-1,0,-1,-1,0,0,0,-1
1528185393874217,-1,-2,-2,-1,0,0,-1,-1
1528185393874217,-2,0,-1,0,-1,-1,0,0
1528185393895382,-1,-1,0,-1,-2,0,-1,0
1528185393895382,-1,0,-1,1,-1,-1,-1,0
1528185393897303,0,0,-1,-1,0,0,0,-1
1528185393897303,1,-1,-2,0,-1,-1,1,1
1528185393909307,-2,-1,-2,-1,-1,0,0,-1
1528185393909307,-2,-1,-1,-2,1,0,-2,1
1528185393917544,1,0,-2,0,-1,0,-1,-2
1528185393917544,0,-1,-1,-2,-2,-2,-1,0
1528185393932722,0,-1,1,0,-2,-1,0,0
1528185393932722,-2,0,-1,-1,-1,-1,1,-1
1528185393934054,-2,0,1,-1,0,-1,-1,-3
1528185393934054,-1,-2,-1,-1,-1,-1,-1,0
