timestamp,emg1,emg2,emg3,emg4,emg5,emg6,emg7,emg8
1528446615156172,0,-1,-2,-1,1,-2,0,-2
1528446615156172,0,-1,-1,0,-3,-1,0,-2
1528446615157170,-2,-2,-2,-2,-1,-1,-1,-1
1528446615157170,-2,-1,0,0,-2,0,-1,-1
1528446615159164,-2,-1,-1,1,-1,-1,-1,0
1528446615159164,-2,-2,-1,0,-1,0,0,-1
1528446615163153,0,1,-2,-1,-1,-1,-1,-2
1528446615163153,-1,-1,-2,-1,-3,0,-2,-1
1528446615168139,-1,-1,0,-1,-3,-1,-1,-1
1528446615168139,1,-1,-1,-1,0,-3,-2,-2
1528446615173126,-2,-1,-2,0,0,-1,-1,-1
1528446615173126,-1,-1,-3,-3,0,-2,0,-2
1528446615185130,-2,-1,-1,-3,0,-1,-1,-1
1528446615185130,-1,-1,0,-2,0,0,0,0
1528446615198061,-1,-1,0,0,-1,0,0,0
1528446615198061,0,0,0,-1,-2,-1,1,-1
1528446615206087,0,-2,-2,0,-2,-2,-1,-3
1528446615206087,-1,-1,1,0,-2,0,-2,0
1528446615226982,-1,-2,-1,-1,-1,-2,-1,-1
1528446615226982,-2,-2,-1,1,0,-1,-1,0
1528446615228976,-3,0,0,-2,-2,0,0,0
1528446615228976,-2,0,-2,-1,0,-2,-1,-2
1528446615241998,-2,-1,-1,-2,-2,-1,-1,-3
1528446615241998,-1,0,-1,1,-1,-3,-2,-2
1528446615248974,0,0,-2,0,0,-1,-1,-1
1528446615248974,-2,-2,-2,-1,0,-2,-3,-2
1528446615288817,1,-2,-1,-1,0,0,0,0
1528446615288817,-1,0,-1,-1,-1,0,1,-1
1528446615290814,-3,-1,-1,-1,-1,-2,-1,-3
1528446615290814,-3,-2,-1,1,-1,-1,-1,0
1528446615290814,-1,1,-1,-1,-2,-2,-2,0
1528446615290814,-1,-2,-3,-2,0,-1,-1,-1
1528446615309761,-1,-2,1,-2,-3,-1,0,0
1528446615309761,0,-1,-2,-3,-2,-1,-1,0
1528446615310770,0,-2,-1,-1,-2,-1,-3,-1
1528446615310770,1,-1,-2,0,0,0,-1,0
1528446615312753,0,0,-2,0,1,-1,-1,0
1528446615312753,-1,-2,-1,-1,0,-2,-1,-1
1528446615315746,-2,-1,0,-2,0,1,-1,0
1528446615315746,0,-1,-1,-1,-1,-2,-2,-1
1528446615339682,0,-1,-1,-1,0,0,-1,-1
1528446615339682,0,0,0,-1,-1,0,-1,0
1528446615340704,-1,0,-1,-1,1,-1,-1,-2
1528446615340704,-1,-2,0,-1,-1,0,0,0
1528446615361623,-1,1,-2,-1,-3,0,-3,0
1528446615361623,-1,0,-1,-1,0,0,-2,-2
1528446615362620,0,0,-2,-1,-1,-2,-2,-1
1528446615362620,0,-1,-2,-2,-1,-1,-2,0
1528446615376583,-1,-1,-1,-2,0,-2,-2,0
1528446615376583,0,-2,-1,-1,-2,-1,-1,-2
1528446615376583,-2,-1,-1,0,-1,-1,-1,-2
1528446615376583,0,-1,-1,-3,-1,0,-1,-2
1528446615399551,0,1,0,1,-1,1,-2,-2
1528446615399551,1,-1,-3,-4,-1,-1,-1,0
1528446615400520,0,-1,0,-2,-1,-1,-1,0
1528446615400520,-3,-1,-2,0,-1,-1,-2,-1
1528446615422460,-1,0,-2,-3,0,-1,0,-1
1528446615422460,-1,0,-1,-1,0,-1,-1,-1
1528446615422460,0,-2,-2,-2,-2,-2,0,0
1528446615422460,-1,0,-1,0,0,-2,-1,-2
1528446615436475,1,-1,0,0,0,-2,-1,0
1528446615436475,-1,0,0,1,-2,-1,-1,-2
1528446615437439,-2,-2,-1,-1,-1,-1,0,-2
1528446615437439,-1,-1,-2,-1,-2,0,-1,0
1528446615459361,-1,0,-2,-1,-2,-1,0,-1
1528446615459361,-1,0,-2,0,0,-1,-1,-1
1528446615460358,-2,-2,0,1,-1,-2,-1,-2
1528446615460358,-2,-1,-1,-1,-1,-2,-1,-1
1528446615482339,-1,-3,-1,0,-2,-1,-1,-1
1528446615482339,-2,-1,0,-2,0,-2,-1,-2
1528446615482339,-1,0,-3,0,-1,-1,0,-2
1528446615482339,0,-2,-1,0,-2,0,-1,-1
1528446615504241,-1,-1,-1,-1,-2,-1,-3,0
1528446615504241,-1,-2,-2,-2,-3,0,0,-1
1528446615505239,-2,0,-1,0,0,-1,-1,-1
1528446615505239,-1,-2,-1,0,0,-1,0,-2
1528446615519201,-1,-2,-1,0,-1,-2,-2,-1
1528446615519201,-1,-1,-2,0,-2,-2,0,0
1528446615521196,0,1,-2,-2,-2,1,-3,0
1528446615521196,-1,0,-2,-1,-3,-3,0,-2
1528446615542140,-1,-1,-1,-1,-3,-1,0,0
1528446615542140,-2,-2,0,-1,2,-2,-2,-2
1528446615543137,-1,-1,1,-2,0,-1,0,1
1528446615543137,0,1,-3,1,0,-1,-1,0
1528446615556106,-2,-1,-2,0,0,0,-1,-2
1528446615556106,-2,-1,-1,-1,-1,0,-1,0
1528446615564093,-2,-1,-1,-2,-1,0,1,0
1528446615564093,-2,1,-2,-3,-2,-1,0,-2
1528446615587020,0,-1,-2,-2,-2,-1,-1,-2
1528446615587020,-1,-1,-1,1,-1,-3,-1,0
1528446615589015,0,-1,-2,-1,-1,-2,0,-1
1528446615589015,0,0,0,-2,-1,-2,-1,0
1528446615601986,0,0,0,0,-2,-2,0,-1
1528446615601986,-2,-1,-1,-2,-1,-1,-1,-1
1528446615603984,-1,-2,0,-1,-1,0,-2,-2
1528446615603984,1,-2,-1,0,-1,-1,-1,-2
1528446615615957,-3,0,-2,-2,0,-1,-1,-1
1528446615615957,-1,-2,-1,-1,-2,0,-1,-1
1528446615624919,-1,1,-2,-3,-2,0,0,-1
1528446615624919,0,-1,1,0,-1,0,-1,0
1528446615639879,-1,-2,0,-1,0,0,-3,-1
1528446615639879,0,0,0,1,0,0,0,-1
1528446615641874,0,-2,-1,-1,-3,-1,-1,-4
1528446615641874,-1,-1,-1,-2,0,-2,-1,0
1528446615661820,-2,-2,-1,-1,-1,-2,0,-1
1528446615661820,-1,-2,-1,-1,-2,-1,-2,-1
1528446615663815,0,-1,-1,0,0,-2,-1,1
1528446615663815,-2,-1,-1,-1,0,0,-1,-1
1528446615675783,-1,0,1,0,-2,0,0,-1
1528446615675783,-1,0,-1,-2,-1,0,-3,0
1528446615691740,-1,0,0,0,-1,-1,-2,-2
1528446615691740,-1,-2,-2,-2,0,0,-2,-1
1528446615699719,-3,-2,-2,-1,1,-2,0,0
1528446615699719,0,0,-2,-1,-1,0,0,-1
1528446615700716,-1,-1,-1,0,-2,-1,-1,-1
1528446615700716,-1,-1,-1,-2,-1,-1,-3,-1
1528446615721662,0,-1,-2,-1,-2,1,-1,0
1528446615721662,0,-1,-1,-2,-2,-1,0,-2
1528446615723655,-2,0,-1,0,-1,0,-1,0
1528446615723655,-1,-2,0,0,-1,0,-1,1
1528446615736620,-1,-2,-1,-1,0,-1,-1,-2
1528446615736620,-1,-2,-2,0,-1,-1,-3,-2
1528446615742605,-1,-2,-2,-3,-2,-3,-1,-2
1528446615742605,0,-2,-2,-1,-3,-2,-1,-2
1528446615759559,1,-1,0,0,-1,0,-1,-1
1528446615759559,-1,-1,-2,-2,0,0,-1,1
1528446615760556,0,0,-2,-2,-1,0,0,-2
1528446615760556,-3,-2,-2,1,-2,0,-1,-1
1528446615782499,0,0,-2,-1,0,-2,0,-1
1528446615782499,-1,0,0,-1,-2,-1,0,-2
1528446615783495,-2,0,-2,0,2,-2,-3,1
1528446615783495,-1,-2,-2,-2,0,0,0,-1
1528446615796461,-1,-1,-2,-2,0,0,-2,-2
1528446615796461,-1,0,0,-1,0,-2,0,-2
1528446615803442,0,-2,-1,0,-2,-1,-1,-1
1528446615803442,-1,-1,0,0,-1,-1,0,-1
1528446615819399,-1,0,0,-1,-1,-2,-1,0
1528446615819399,-1,-2,-2,0,0,-1,-1,0
1528446615821394,-1,-2,0,-1,-1,1,-2,-2
1528446615821394,-1,-1,-1,1,-1,-1,0,-2
1528446615842338,-1,-1,-1,-2,-2,-2,-2,-2
1528446615842338,-1,1,0,-1,0,-1,-1,0
1528446615843335,0,0,-1,-3,0,1,-1,-1
1528446615843335,-1,0,-1,-3,0,-1,-3,-1
1528446615864333,-2,-2,-2,0,0,-1,1,-2
1528446615864333,0,-1,-1,0,-3,-2,-1,-3
1528446615866324,-2,-2,0,0,-2,-1,-1,0
1528446615866324,0,0,-1,0,-1,0,-2,-2
1528446615879273,-2,-1,-2,-2,-1,-1,-1,-1
1528446615879273,-1,-1,-2,-1,0,-2,0,-2
1528446615881269,-1,0,-2,-2,1,0,0,-1
1528446615881269,-1,0,-1,-1,-1,0,0,-2
1528446615902213,-1,0,0,0,0,-2,-2,-1
1528446615902213,-2,-1,-1,-1,-1,0,-2,0
1528446615903218,-1,0,0,0,-2,-1,0,-2
1528446615903218,1,0,-1,-1,-2,-1,-1,-2
1528446615915177,0,0,-1,-1,0,-1,1,-1
1528446615915177,-2,-1,0,-2,0,-1,-1,-1
1528446615924119,-2,-2,-2,-2,-1,0,-1,0
1528446615924119,-1,-1,-1,-1,-2,0,-2,1
1528446615939079,-1,-1,0,0,-2,-1,-1,-2
1528446615939079,-1,0,0,-2,1,-1,-1,0
1528446615941074,-1,0,-1,-2,1,0,-1,-3
1528446615941074,-2,-2,-2,0,-1,-1,-1,0
1528446615962018,-1,-3,0,0,0,-2,0,-1
1528446615962018,0,-2,-1,-2,-4,-2,-1,1
1528446615970025,-2,-2,-2,-1,-2,-2,1,-2
1528446615970025,-3,-1,0,-2,-1,0,-1,-1
1528446615976023,-1,0,-1,-2,-1,0,-1,-1
1528446615976023,-1,1,-2,0,-1,0,-1,-1
1528446615985009,-1,-2,0,-1,-1,-1,-1,-1
1528446615985009,0,-3,1,-1,0,0,0,0
1528446615999917,-1,-2,-1,0,-1,-1,-1,0
1528446615999917,-3,-1,0,-1,-2,-1,-3,-2
1528446616000914,-1,-2,-1,0,-1,0,-2,0
1528446616000914,-2,-1,-2,-1,-1,0,0,-1
1528446616021858,0,0,0,-2,0,1,-1,-1
1528446616021858,-2,-2,-1,0,0,0,0,-2
1528446616023853,-2,-1,-1,0,-1,-1,0,-1
1528446616023853,0,-2,-2,0,-2,-2,-3,-1
1528446616035881,-1,-1,-1,0,-2,-2,-1,0
1528446616035881,-1,-2,-1,-1,-2,-1,-2,-1
1528446616059812,-1,1,0,-1,-1,-1,-2,-1
1528446616059812,-2,-1,0,-2,0,-1,0,-1
1528446616060754,0,0,-1,-1,-2,-1,-1,-2
1528446616060754,0,-1,-2,-1,-1,-1,-1,-1
1528446616062749,-1,1,-1,-2,-1,-1,-2,0
1528446616062749,0,0,-1,-1,-1,-1,0,-1
1528446616081755,1,-1,-2,-1,-1,0,-1,-1
1528446616081755,0,-1,0,0,1,-1,-1,0
1528446616083693,-1,-2,-2,-1,-1,-1,-2,-2
1528446616083693,1,0,0,-2,0,-1,0,0
1528446616095715,-3,-1,0,0,-2,-1,-1,1
1528446616095715,-1,0,-3,0,0,-1,-1,-2
1528446616104638,-1,-2,-2,0,-1,1,-2,-1
1528446616104638,-2,-1,1,0,-2,0,-1,-1
1528446616119849,0,0,-1,-1,-1,0,-2,-2
1528446616119849,0,-1,-1,-1,0,1,0,-1
1528446616121592,-1,0,-1,0,0,-2,0,-1
1528446616121592,-1,-1,-3,-2,-2,-2,0,-1
1528446616143084,-3,0,-2,-1,1,1,-1,-1
1528446616143084,1,-1,-3,0,-2,-2,-1,0
1528446616143841,-2,0,-2,-2,0,-2,-2,-1
1528446616143841,1,-1,0,0,-1,0,-1,-1
1528446616165052,-1,-1,-2,0,-2,-2,-2,-1
1528446616165052,-2,-1,-1,-1,-1,0,-2,0
1528446616166876,0,-2,0,-1,-2,-1,0,-1
1528446616166876,0,-1,-1,-1,-2,-2,-2,0
1528446616179163,-2,0,-1,0,0,-2,0,-1
1528446616179163,-1,0,0,-1,-1,-1,-1,-3
1528446616181157,-2,0,0,-1,0,-1,-1,-2
1528446616181157,-3,-1,-1,-2,1,-1,-1,-1
1528446616202102,-1,-2,0,-2,-1,-1,-1,-1
1528446616202102,-1,0,0,-1,-1,-2,0,0
1528446616203099,0,-2,-1,-2,-1,0,0,-2
1528446616203099,-2,-1,-2,-1,-1,-2,-1,-2
1528446616215330,-2,-1,-2,-1,-1,-2,-2,-2
1528446616215330,-2,-2,-2,-1,-2,0,0,-2
1528446616225042,0,-1,1,0,-2,-1,-1,0
1528446616225042,-1,-1,-2,-1,0,-1,-1,0
1528446616246984,1,-1,-2,-1,-3,0,0,-2
1528446616246984,0,-2,-1,-1,0,-3,-2,-1
1528446616248205,1,-1,-1,-1,-1,-3,-1,-1
1528446616248205,-1,0,-2,-1,-2,0,0,-2
1528446616261173,-1,-3,1,-1,-1,-1,-1,0
1528446616261173,-1,0,-2,-1,0,-2,-3,0
1528446616268417,0,-2,-2,-1,0,-1,-1,0
1528446616268417,0,-1,-2,-1,0,-3,-1,0
1528446616284142,-1,-2,-2,-1,0,-1,-2,-1
1528446616284142,0,-1,-2,-1,-2,-1,0,-1
1528446616286106,-2,-2,-3,-1,-1,-2,-1,-2
1528446616286106,-1,0,0,-2,-2,-1,0,-1
1528446616306972,-2,1,0,-1,-2,-2,-1,-2
1528446616306972,0,-2,-2,-2,0,-1,-1,-1
1528446616308652,0,0,-2,0,0,0,-2,-1
1528446616308652,-2,-3,0,-1,0,-1,-1,-2
1528446616320840,-1,-2,-1,-1,0,-1,-1,-1
1528446616320840,-2,-1,-1,-2,-1,0,-1,-1
1528446616337541,-1,1,-2,-2,-1,-1,1,-1
1528446616337541,0,-1,-1,-2,-1,-1,-1,-1
1528446616344516,-1,-2,-2,-2,-1,-2,-2,0
1528446616344516,-1,-1,-1,0,0,-1,-1,-2
1528446616345513,0,-1,-2,-1,-2,-1,-2,-1
1528446616345513,-2,-2,0,0,0,-1,0,-1
1528446616367643,-2,0,-2,-1,0,-1,0,-1
1528446616367643,-2,-1,-1,-2,-2,0,1,1
1528446616368533,-1,0,0,-2,-2,-1,-2,-3
1528446616368533,-2,-2,-3,-1,-2,-1,-1,-1
1528446616381019,-1,-1,-2,0,0,-1,-1,-2
1528446616381019,-1,-1,0,0,0,-1,-1,-1
1528446616389998,0,0,-1,-1,0,-2,0,0
1528446616389998,0,0,-1,-2,-2,-1,-1,-1
1528446616419917,0,-1,-1,-2,0,-1,-1,-1
1528446616419917,-1,0,-2,-2,-2,-1,0,-2
1528446616420915,-1,-2,1,-2,-1,0,0,-1
1528446616420915,-1,0,-1,0,-1,-2,-2,0
1528446616426899,-2,0,-1,-1,-3,-3,-1,-1
1528446616426899,-1,-1,-1,0,-1,1,0,-2
1528446616428894,-2,-1,-2,0,1,0,-1,0
1528446616428894,0,-1,-1,-1,-2,-1,-2,-2
1528446616440893,0,-1,0,0,1,0,-1,-1
1528446616440893,1,0,1,-2,-2,0,0,2
1528446616449837,-1,-1,-2,0,-1,-2,1,0
1528446616449837,0,-1,-1,0,1,-2,-1,-1
1528446616465119,-2,0,-1,0,-3,-1,-1,-1
1528446616465119,-1,0,0,-2,0,-2,-2,0
1528446616466811,0,-3,-1,-1,-2,-1,-2,-3
1528446616466811,-2,0,-1,-2,-1,0,-1,-2
1528446616495175,1,-2,-1,-1,1,-1,2,-1
1528446616495175,-1,0,-3,1,-2,-2,0,-1
1528446616496071,-3,-1,0,-1,0,-2,0,-2
1528446616496071,-1,0,-2,-2,-2,0,-1,-1
1528446616501275,-1,0,0,0,-1,-1,-2,-1
1528446616501275,-2,-1,-1,-1,-1,-2,-2,-2
1528446616510284,0,-2,-2,-1,-3,-1,-2,-2
1528446616510284,0,-1,-1,0,-1,-1,0,-1
1528446616524902,0,-3,-1,-1,-1,-1,0,0
1528446616524902,0,-1,-3,0,1,0,1,0
1528446616526860,-2,0,-2,0,-2,-2,-2,1
1528446616526860,0,-2,-1,0,0,-2,-1,-2
1528446616547303,-1,-1,0,-2,-3,-1,-1,-1
1528446616547303,0,-2,0,-1,-2,-1,-3,-3
1528446616548301,1,0,-2,-1,-1,-1,1,0
1528446616548301,-2,-2,-2,-1,-2,-1,-1,-1
1528446616560306,-1,0,-1,-1,0,-1,-1,-1
1528446616560306,0,-1,2,-1,-2,-2,0,-1
1528446616569251,-2,-1,-1,0,-2,0,-1,-1
1528446616569251,-2,1,-2,-1,-1,-2,-2,0
1528446616584430,-1,-3,-1,-1,-2,0,-1,1
1528446616584430,-1,-2,-2,0,0,-1,-1,-2
1528446616586200,0,0,0,-1,-1,1,-1,1
1528446616586200,-2,-1,-3,-2,-1,0,-1,-2
1528446616606710,-1,0,-1,-2,-1,-1,-2,-3
1528446616606710,2,-2,-2,0,0,-1,-2,0
1528446616614643,-3,-3,-1,-2,-1,-1,0,-2
