timestamp,emg1,emg2,emg3,emg4,emg5,emg6,emg7,emg8
1528448285460803,-2,-1,-3,0,0,0,0,0
1528448285460803,0,-2,-1,0,-2,-1,0,-1
1528448285465792,-3,1,0,-1,-1,-2,-1,-1
1528448285465792,1,-1,-1,0,-1,-1,0,0
1528448285473770,-1,-1,0,0,0,-1,-1,0
1528448285473770,-1,0,0,-2,0,0,-1,-2
1528448285488730,0,-1,-2,0,0,1,-1,1
1528448285488730,-2,-2,0,-1,0,0,0,-1
1528448285510670,-1,0,-1,-2,-2,-1,-1,0
1528448285510670,0,-1,-1,-1,0,-1,-1,-1
1528448285518649,1,0,-2,0,-1,0,1,-1
1528448285518649,-2,0,0,0,0,-2,-1,-1
1528448285533609,-1,0,-1,-2,0,-2,0,-2
1528448285533609,-2,0,0,0,1,2,0,0
1528448285540592,0,-2,0,-2,0,-1,1,-1
1528448285540592,-1,0,-1,0,-1,-1,-2,-1
1528448285556547,0,-2,0,0,0,-2,0,-1
1528448285556547,-2,0,-1,0,-1,-1,0,-1
1528448285573503,-1,-2,1,-1,-1,1,0,-1
1528448285573503,-1,0,0,-2,-2,0,0,-1
1528448285579487,-1,-1,0,0,0,-1,-1,0
1528448285579487,-1,0,1,-1,-1,0,-2,1
1528448285585470,0,2,0,1,-1,-2,0,0
1528448285585470,0,0,-1,-1,1,-1,0,-1
1528448285593448,1,-1,-2,-1,0,1,1,0
1528448285593448,-1,-1,-1,0,0,-2,-1,-1
1528448285600431,-2,-2,-1,-1,-1,1,0,-1
1528448285600431,0,-1,0,-1,-1,0,0,0
1528448285608408,0,0,-2,-1,-1,-1,0,0
1528448285608408,-1,0,-1,0,1,0,0,-2
1528448285626361,-1,0,0,0,-2,-2,0,0
1528448285626361,0,-1,-2,0,0,-2,0,0
1528448285631376,0,0,1,-1,0,-1,0,0
1528448285631376,-1,1,-1,-1,0,-1,-1,-1
1528448285638330,0,0,0,-1,-1,-1,-1,-3
1528448285638330,-1,-2,1,-1,-1,0,0,-1
1528448285646346,0,-1,-1,0,0,-1,-1,-1
1528448285646346,-1,-1,-1,0,-1,-2,0,0
1528448285661307,0,1,0,-1,-2,1,-3,-2
1528448285661307,0,-1,-2,0,-2,-2,0,-2
1528448285668250,-1,0,-1,-1,0,-2,-1,0
1528448285668250,0,0,1,0,1,0,-1,0
1528448285683247,-2,0,0,2,-1,0,-1,0
1528448285683247,0,-2,0,0,-2,0,-1,-1
1528448285691226,0,-1,-1,0,-1,-1,-2,-1
1528448285691226,-1,-1,-1,0,-1,-1,1,0
1528448285698205,1,-3,0,-1,0,-2,0,0
1528448285698205,0,-1,-2,0,-1,0,0,0
1528448285706148,-1,0,-1,1,1,0,0,-1
1528448285706148,0,-2,-1,1,1,0,-1,0
1528448285721110,-2,0,0,0,-1,-1,1,0
1528448285721110,0,0,1,-2,-1,-1,0,-1
1528448285731099,-1,-2,-1,0,-1,0,-2,-1
1528448285731099,-2,-1,-1,-3,-1,0,-2,-1
1528448285743051,-1,0,-1,-1,0,2,-1,0
1528448285743051,-1,0,-1,-1,-1,0,-1,0
1528448285751066,1,0,-1,-2,-2,-1,-2,1
1528448285751066,1,-1,0,0,-1,0,-2,0
1528448285758059,0,1,0,1,0,0,-2,-1
1528448285758059,-2,1,-1,0,-1,-3,-1,-1
1528448285765988,0,-1,-2,-2,-1,-1,0,-2
1528448285765988,-3,0,-1,0,-1,-1,0,-2
1528448285781972,-1,0,-1,-2,-1,0,0,0
1528448285781972,1,0,0,-1,0,0,0,2
1528448285795910,1,1,-1,-1,-2,-1,0,-2
1528448285795910,-1,-2,-1,-1,1,1,-1,-1
1528448285802890,-1,-1,-1,0,-1,-1,-2,-2
1528448285802890,-1,0,-1,1,1,-2,0,-1
1528448285810869,-2,-1,-3,-1,-1,0,-1,0
1528448285810869,0,-2,-1,-2,-1,0,0,-1
1528448285818849,0,2,0,-3,-2,-1,-1,0
1528448285818849,-1,-1,-1,0,-1,-1,0,-1
1528448285825829,-1,-1,0,1,-1,0,-1,1
1528448285825829,-2,0,-1,0,-1,-1,-1,0
1528448285840788,0,-3,-1,2,0,0,0,0
1528448285840788,-1,1,-1,-1,-2,-1,-1,0
1528448285848803,-3,-1,0,-2,-2,-1,-2,0
1528448285848803,-1,0,1,-1,-1,-2,0,0
1528448285863765,1,-3,0,0,-1,-2,-2,-2
1528448285863765,1,-1,1,-3,0,-2,-1,0
1528448285878736,0,0,0,0,0,0,0,-1
1528448285878736,-1,0,-2,0,1,2,0,0
1528448285885701,-3,1,0,1,2,-2,0,0
1528448285885701,-1,0,-1,-1,-1,-1,-1,-1
1528448285893647,0,-1,-2,-3,0,-2,0,0
1528448285893647,-1,-1,0,-2,-2,-2,-2,0
1528448285908609,0,1,-3,-1,-2,2,0,-1
1528448285908609,-1,-1,0,1,-1,2,0,0
1528448285915616,1,0,1,0,-1,0,-1,0
1528448285915616,-3,-1,0,-1,-1,-1,1,0
1528448285930550,0,0,-1,-1,0,-1,-1,0
1528448285930550,1,0,-1,-1,-2,-3,-3,-3
1528448285938529,-1,-1,-1,0,0,-2,0,0
1528448285938529,0,-2,-3,0,0,2,-1,-1
1528448285945508,0,0,-1,-2,-1,-2,-1,0
1528448285945508,0,0,0,1,-1,1,-1,-1
1528448285960470,-1,-1,-1,-1,-2,-3,-1,-1
1528448285960470,-1,0,-1,0,-2,-1,-1,-1
1528448285968447,-2,-1,-1,2,-1,-1,-1,-2
1528448285968447,-1,-1,-1,-1,1,-1,0,1
1528448285983408,-2,-1,1,-1,-1,-2,-1,-1
1528448285983408,-1,0,1,-1,-1,-1,-1,0
1528448285990426,1,0,0,-1,2,0,0,-1
1528448285990426,0,1,-1,0,-1,-1,0,0
1528448285998403,-1,1,-2,-1,-1,-1,0,1
1528448285998403,-1,0,0,-1,-1,-1,0,-2
1528448286005359,-1,-2,1,1,-1,-2,1,0
1528448286005359,-1,0,-1,-1,0,-2,0,-2
1528448286021310,-1,-3,-2,-1,0,1,-2,0
1528448286021310,-2,-1,-1,-1,-1,-1,0,-1
1528448286028288,-1,0,0,0,-1,0,0,0
1528448286028288,-1,-1,-1,0,0,-1,1,-1
1528448286043253,1,2,-1,-2,-2,1,1,0
1528448286043253,0,-3,0,-1,2,0,0,0
1528448286051266,0,-1,1,0,0,-1,-1,1
1528448286051266,-1,0,0,-1,-2,-2,-2,-1
1528448286058249,-1,0,0,-1,-1,-1,-2,-1
1528448286058249,-1,-1,-1,-2,-1,-2,1,0
1528448286066188,1,-1,-2,0,-1,-1,0,0
1528448286066188,-1,-2,-1,0,-2,0,-1,0
1528448286081147,-1,-1,2,-1,-1,-1,-1,-1
1528448286081147,0,-1,-1,1,0,0,-1,0
1528448286088127,-1,-2,-2,-1,-1,0,-2,-2
1528448286088127,-1,-1,-3,-1,-1,0,-1,1
1528448286103086,0,-1,0,-1,0,-3,-1,-1
1528448286103086,0,-1,0,0,0,-1,0,1
1528448286111103,-3,1,-1,-1,-1,0,1,-1
1528448286111103,-1,0,-1,-1,-1,0,0,0
1528448286118047,0,-1,-3,-2,1,1,-1,-1
1528448286118047,0,-1,-1,0,0,-1,-1,-1
1528448286126034,0,-2,0,1,0,-1,-1,0
1528448286126034,-1,1,0,-1,0,-1,0,-1
1528448286140986,0,-1,0,-1,-1,0,-2,-1
1528448286140986,0,1,0,0,-2,0,-3,1
1528448286155946,1,0,-2,0,-1,1,-1,1
1528448286155946,0,0,-1,0,0,0,-1,-1
1528448286177913,1,1,-1,1,0,-2,0,-1
1528448286177913,-2,-1,-1,-1,-1,-2,-1,-1
1528448286185913,0,1,1,0,1,-1,1,0
1528448286185913,-2,-1,-1,-1,1,-1,1,1
1528448286193844,-2,-1,-1,-1,0,-1,-3,-1
1528448286193844,0,0,-1,0,-2,0,0,-1
1528448286200875,0,-2,-1,-1,-1,-1,-3,0
1528448286200875,1,-1,0,-1,1,1,1,0
1528448286215838,0,-1,-1,-1,-2,0,0,-2
1528448286215838,0,1,0,-1,-2,-2,-1,0
1528448286222825,0,-1,0,-1,-1,-1,-1,0
1528448286222825,-1,0,-2,-1,0,-1,-2,-1
1528448286230801,-1,1,-1,0,0,-2,1,-2
1528448286230801,0,-2,-2,0,-1,0,-1,0
1528448286238725,1,-1,0,0,0,1,0,1
1528448286238725,-1,-1,1,-1,-1,0,1,-1
1528448286245706,1,-1,0,-1,-1,0,-1,-1
1528448286245706,-1,-2,-1,-1,-1,-1,-1,-1
1528448286260667,1,-1,0,0,-1,-1,0,-1
1528448286260667,0,-2,-1,0,0,0,-1,0
1528448286268645,0,-2,0,-2,-1,0,0,1
1528448286268645,0,0,1,-1,-1,-1,-1,-1
1528448286283605,-3,1,0,-1,1,-1,0,-1
1528448286283605,-1,0,-1,-1,-1,0,0,-1
1528448286290587,-2,-2,0,-2,0,-2,-1,-2
1528448286290587,-1,-2,-1,0,-1,-1,0,0
1528448286298565,0,0,0,0,0,-1,-2,-1
1528448286298565,0,0,-1,-1,0,-1,0,0
1528448286305546,-4,0,-1,-2,-2,-3,1,-1
1528448286305546,-1,0,1,-2,0,-1,-2,0
1528448286320506,0,0,-2,0,-1,1,-1,-2
1528448286320506,0,-2,-1,-1,0,-1,1,-1
1528448286328485,-1,-1,-1,0,-2,0,-2,-3
1528448286328485,1,-1,-1,0,-2,0,-1,0
1528448286343445,-1,-1,-1,-1,0,-2,-2,-1
1528448286343445,-1,-1,-1,0,-1,-2,-2,-1
1528448286351433,0,-1,-2,0,1,-2,-1,-1
1528448286351433,-2,-2,1,1,-1,-1,-1,-2
1528448286358404,0,-2,0,0,-2,0,0,1
1528448286358404,0,0,0,0,-2,-1,-1,0
1528448286365386,-1,-1,0,0,1,1,0,0
1528448286365386,0,0,0,-1,-1,0,-1,1
1528448286381343,0,0,-2,-2,-1,-3,0,0
1528448286381343,-1,-1,-2,-2,0,0,-1,0
1528448286388325,-2,0,0,-1,-2,-2,-1,0
1528448286388325,0,-1,0,1,1,-1,-1,-1
1528448286411318,-2,0,-1,0,-2,1,-1,-2
1528448286411318,0,1,-2,-1,1,-3,-1,-1
1528448286418250,-1,-2,-2,-1,-1,1,-2,-1
1528448286418250,0,-1,0,-1,0,-1,0,-1
1528448286426224,-2,-2,-2,0,0,-1,0,1
1528448286426224,-1,1,2,-1,-2,-2,-2,0
1528448286433765,1,0,1,0,-2,-2,-1,0
1528448286433765,0,-1,0,-1,1,1,0,-1
1528448286456543,-1,0,0,-1,-1,1,-1,0
1528448286456543,-1,-3,0,-2,-1,-1,-2,0
1528448286471602,0,-1,0,0,0,-2,-1,-2
1528448286471602,-1,-1,-2,-1,0,2,-1,-1
1528448286478655,-1,0,-1,-1,1,0,-1,0
1528448286478655,-1,-2,-2,-3,-3,0,0,0
1528448286486578,-1,-2,0,-2,-1,0,-1,0
1528448286486578,0,0,-2,0,-1,-1,1,0
1528448286493616,0,1,-1,0,1,-2,-2,0
1528448286493616,0,0,-1,-1,-1,-1,0,0
1528448286500843,-2,-2,-2,1,0,1,1,0
1528448286500843,0,-1,-3,-1,-2,1,0,-2
1528448286508891,-1,-3,-2,1,0,0,0,-1
1528448286508891,0,0,-1,1,-1,-2,0,-1
1528448286523852,1,-1,0,-1,0,-2,-1,1
1528448286523852,0,-1,0,-1,-1,0,0,0
1528448286531263,0,0,1,0,-1,1,1,1
1528448286531263,-1,-1,0,0,1,-1,-1,-1
1528448286539154,0,0,-1,-1,0,-2,-2,-1
1528448286539154,-2,-2,0,-1,-2,0,-2,0
1528448286553863,-1,0,0,-1,-1,-2,1,-1
1528448286553863,0,-2,0,-1,-2,-1,0,-1
1528448286561188,0,-1,-2,-1,-1,0,1,-1
1528448286561188,-1,1,0,0,0,-2,-1,0
1528448286576109,-1,-2,-3,-1,-1,0,-1,-1
1528448286576109,-2,-1,-1,0,0,-1,-1,1
1528448286583081,-1,-1,0,0,0,0,0,0
1528448286583081,0,-1,-2,-2,1,-1,-1,0
1528448286598059,0,-1,-1,-1,0,0,0,0
1528448286598059,0,-1,0,1,1,0,0,1
1528448286613675,1,-2,-3,-3,0,0,0,-2
1528448286613675,1,-1,-1,-2,0,-1,-3,1
1528448286620965,-1,0,-1,-1,0,-1,2,0
1528448286620965,-1,-2,1,-2,-1,-1,-2,-2
1528448286635976,0,0,0,-1,-2,0,-1,0
1528448286635976,-1,-2,-2,0,1,0,2,-2
1528448286642961,-2,0,-1,0,-1,0,-1,-1
1528448286642961,-1,1,-1,0,0,-1,-1,0
1528448286658281,2,-1,0,-1,0,-1,-1,1
1528448286658281,-2,-1,0,0,-2,0,-2,-1
1528448286673500,0,-2,-1,-3,-3,-1,-1,-1
1528448286673500,-2,-2,-2,0,1,-1,0,0
1528448286681576,1,0,-2,-1,0,-1,0,-2
1528448286681576,1,0,-1,-1,0,0,-1,-1
1528448286696596,-1,-2,-1,0,1,1,0,-1
1528448286696596,-1,-1,0,-1,0,-1,-3,-2
1528448286704015,0,0,0,-1,-2,-3,-1,0
1528448286704015,1,0,0,1,-2,-2,1,1
1528448286718828,-1,-2,0,0,0,-1,-1,-1
1528448286718828,-2,-1,0,0,1,-1,-1,-2
1528448286733787,-1,0,-2,-2,1,1,1,2
1528448286733787,0,0,1,0,-1,0,-2,0
1528448286740805,-2,1,-1,-1,-1,1,-3,1
1528448286740805,-1,-1,-2,-2,-2,-2,-1,-1
1528448286763060,-1,-1,0,0,0,-1,-1,0
1528448286763060,-1,-1,1,-1,0,-1,0,1
1528448286771034,0,-1,-1,-2,-1,0,-1,-1
1528448286771034,0,-1,-2,-1,1,-1,-1,0
1528448286785994,0,-1,-1,-1,-2,-2,-1,0
1528448286785994,-1,-2,0,-1,0,-1,-1,1
1528448286801177,0,0,-1,-2,0,0,0,-1
1528448286801177,0,-1,-2,-1,0,0,-2,0
1528448286808174,-2,-1,1,-1,-1,-1,-1,-2
1528448286808174,0,0,0,1,0,-1,-1,0
1528448286823622,0,-1,-2,0,-1,1,-1,0
1528448286823622,1,-1,0,-2,0,0,1,0
1528448286838626,0,0,-1,1,0,-2,0,1
1528448286838626,1,0,-2,0,0,0,0,-1
1528448286853590,-1,0,0,1,1,2,-3,0
1528448286853590,-2,-2,-1,-1,-2,0,-2,0
1528448286861508,-1,0,0,1,1,1,-1,-2
1528448286861508,-1,-1,-1,0,0,0,0,-1
1528448286875607,0,-3,-2,-1,-1,1,0,-1
1528448286875607,0,-1,0,-1,-1,0,2,-2
1528448286883807,-2,-1,0,1,-3,0,-1,0
1528448286883807,-2,-1,-1,1,-1,-1,1,-1
1528448286898506,-1,-2,-2,-1,-1,-1,-1,0
1528448286898506,0,0,0,-2,-1,-1,-1,0
1528448286914044,0,-1,0,-1,0,0,0,0
1528448286914044,-1,-2,-1,0,-2,-1,1,0
1528448286928730,-1,0,-2,-1,-2,-2,0,-1
1528448286928730,1,0,1,-2,-1,0,-2,-3
1528448286943958,-1,0,-1,0,0,0,0,-1
1528448286943958,0,-2,0,-2,0,2,-2,0
1528448286951711,-2,1,-1,-2,0,-1,-2,0
1528448286951711,-1,-2,-3,-2,-1,-2,0,0
1528448286965632,-2,0,2,2,1,1,0,-1
1528448286965632,-2,-1,-1,0,2,0,1,1
1528448286980855,-1,-1,-1,-1,-1,-1,-1,0
1528448286980855,0,0,-1,1,2,-1,0,0
1528448286996089,1,-1,1,1,3,1,0,0
1528448286996089,1,1,-1,0,0,-2,0,-1
1528448287004058,-1,-1,-3,0,3,0,-1,-1
1528448287004058,-2,0,-1,-4,-7,1,-1,-1
1528448287019057,1,-2,0,0,0,-3,0,-1
1528448287019057,-1,-1,0,-1,0,0,-2,0
1528448287034010,0,-1,-1,1,-2,-1,-2,-1
1528448287034010,0,1,-1,1,0,0,1,0
1528448287041287,-1,0,-1,-3,-1,-1,0,-2
1528448287041287,0,2,1,-1,-1,-4,-1,-1
1528448287056626,-2,-1,-3,-2,-3,-1,0,0
1528448287056626,-1,-1,-1,0,0,-1,-2,-1
1528448287063776,-1,-2,-1,-2,0,1,-1,-2
1528448287063776,1,1,-1,0,1,2,-1,1
1528448287079081,1,-1,0,-1,-2,0,-2,-2
1528448287079081,-1,-1,-1,-1,-2,0,0,-2
1528448287094068,-2,-2,-2,0,0,0,0,0
1528448287094068,-1,-2,-2,-1,0,-2,0,-1
1528448287101010,0,0,0,1,0,1,2,0
1528448287101010,0,-2,-2,0,0,2,1,0
1528448287115738,-2,-1,-2,-3,-3,-3,-2,-1
1528448287115738,0,-1,-2,0,-1,0,-2,-1
1528448287130966,-2,-2,0,1,2,0,-2,0
1528448287130966,-1,-1,-4,-6,-4,-1,-2,-1
1528448287154203,0,0,-2,-2,-3,-2,-3,-2
1528448287154203,-1,-1,1,1,1,0,0,-1
1528448287169076,-1,-1,-1,-2,-2,0,-1,1
1528448287169076,1,1,1,-1,0,0,-2,0
1528448287176255,0,1,0,0,1,0,0,0
1528448287176255,-1,0,-1,-1,-1,-2,0,-1
1528448287191402,-1,-1,-2,-2,-1,0,1,-1
1528448287191402,0,-2,-1,0,0,-2,0,-2
1528448287206560,0,-2,0,-1,0,0,1,0
1528448287206560,-2,-3,-1,1,1,2,0,0
1528448287236575,-1,-1,-3,-2,-3,-1,0,0
1528448287236575,0,1,1,-1,-1,-1,-1,-1
1528448287251617,-1,1,0,0,-1,0,-3,-2
1528448287251617,-3,-1,-1,0,0,1,-1,0
1528448287258740,-1,0,-1,0,-1,1,-1,1
1528448287258740,1,-2,0,-2,-2,-4,-4,-1
1528448287281583,1,1,0,2,2,0,0,1
1528448287281583,0,0,0,1,1,2,-1,0
1528448287296580,-2,0,1,-1,-1,1,-1,-1
1528448287296580,-2,0,0,1,0,-1,0,-1
1528448287318746,-1,0,0,2,1,0,-2,0
1528448287318746,0,1,-2,0,-4,0,0,0
1528448287333965,-1,-1,1,2,0,0,-2,-1
1528448287333965,0,0,-1,1,2,1,0,0
1528448287348924,-2,-2,-3,-4,-1,-3,-3,-2
1528448287348924,-2,-2,-1,-1,0,-1,-2,-1
1528448287363884,-1,-2,-2,-1,-1,0,1,-1
1528448287363884,-1,-1,0,-1,-2,-1,-1,-1
1528448287379205,0,1,2,-1,-1,-1,0,-2
1528448287379205,-1,0,-2,-1,1,-2,-3,-2
1528448287393849,-1,-2,-1,1,0,0,-1,-1
1528448287393849,-3,-2,-3,-2,-1,0,-1,-3
1528448287400831,-1,-1,0,1,0,-1,0,-3
1528448287400831,0,-2,-1,0,0,3,2,0
1528448287415847,0,0,1,1,0,-2,1,-1
1528448287415847,-1,-2,-1,-2,0,-1,-3,0
1528448287423959,-1,1,-2,-2,-3,0,0,1
1528448287423959,-1,0,-1,-2,-1,0,0,0
1528448287438730,0,-3,-3,-1,-2,-1,-2,0
1528448287438730,-1,-2,-2,0,0,-2,-2,0
1528448287453690,-1,0,-1,0,-1,-1,1,0
1528448287453690,-1,0,1,3,2,2,1,0
1528448287460670,-1,-1,-1,-1,-1,-2,1,-1
1528448287460670,-2,-1,-3,-2,-1,-4,0,0
1528448287483660,0,-2,-1,-2,1,1,-1,-1
1528448287483660,0,-1,0,-1,-2,3,1,0
1528448287490645,-1,-2,-1,-2,-1,0,0,1
1528448287490645,-1,-1,1,-1,0,-2,0,0
1528448287505606,1,0,-1,-1,-1,0,-1,0
1528448287505606,-1,1,0,-1,-2,0,-1,0
1528448287520566,-1,0,-1,0,1,0,1,-2
1528448287520566,-1,-2,0,0,-1,-3,-2,0
1528448287528544,1,-1,0,0,-1,-1,-2,-1
1528448287528544,0,-2,-2,0,-1,0,2,-1
1528448287565446,0,0,-2,-2,-1,-2,1,1
1528448287565446,2,-2,-1,0,-1,-1,-1,2
1528448287588383,-1,1,0,0,1,1,-1,2
1528448287588383,0,-1,-2,-2,-2,-1,-2,-1
1528448287603289,0,-1,-3,-1,-1,-3,-1,-1
1528448287603289,1,0,-1,0,-2,-2,0,-1
1528448287611321,0,-2,-1,1,1,0,1,0
1528448287611321,-1,0,0,0,2,2,0,-1
1528448287626232,0,-1,0,1,2,1,1,1
1528448287626232,0,-1,-1,-2,-4,-1,-1,-1
1528448287633264,-1,-1,-1,-1,-2,-1,-2,-2
1528448287633264,-2,-1,-1,-2,-2,-2,-2,-2
1528448287641246,0,-1,-3,-2,-1,0,1,0
1528448287641246,-1,1,-1,-1,-1,-2,0,-1
1528448287656203,0,-2,-3,-1,0,-1,-1,-2
1528448287656203,-1,2,0,1,1,0,-1,-1
1528448287663188,0,-1,1,-1,-2,0,-2,-1
1528448287663188,1,1,1,2,1,1,0,0
1528448287686120,0,-1,-1,-6,-4,0,-2,0
1528448287686120,1,2,1,1,0,-1,1,-1
1528448287693109,-1,0,-1,-1,-1,-1,-2,0
1528448287693109,0,-2,-1,-1,0,0,-1,-1
1528448287708059,0,-1,-3,-1,-2,-2,-2,-1
1528448287708059,0,-1,1,0,0,0,-1,2
1528448287731003,-2,0,0,-1,-1,-1,0,0
1528448287731003,-1,-2,-2,-1,1,-2,-1,0
1528448287737982,-1,0,0,2,0,0,1,-1
1528448287737982,-1,-1,-1,-1,-2,-2,0,0
1528448287745960,0,0,-2,-1,0,0,-1,-1
1528448287745960,-2,-2,-1,-1,0,2,-1,-1
1528448287754078,-1,-2,-1,-3,1,-1,-1,0
1528448287754078,-1,-1,-1,-2,-3,0,0,-1
1528448287769103,0,-1,0,-2,0,0,0,-2
1528448287769103,0,-1,0,-2,-2,-1,-1,0
1528448287784076,-1,-1,-2,-4,-6,-3,-2,-1
1528448287784076,-2,-2,-3,-1,-2,-1,-1,2
1528448287806165,0,1,1,-1,0,0,0,-1
1528448287806165,-2,-1,-1,0,-1,-3,-1,-2
1528448287813761,-1,-1,1,2,1,0,1,0
1528448287813761,1,0,0,-1,0,-1,0,-2
1528448287828974,-2,0,-1,0,0,0,-2,0
1528448287828974,-1,-1,-1,-2,-1,-1,-1,-1
1528448287843669,0,0,1,1,0,-1,1,-1
1528448287843669,1,-2,-1,0,-2,1,-1,-1
1528448287850891,-1,1,0,2,-1,-1,0,0
1528448287850891,-2,-2,-1,-1,0,-1,0,-2
1528448287858669,-1,0,0,0,-1,1,1,0
1528448287858669,-1,-3,-2,-1,-3,-2,-2,0
1528448287866652,0,0,0,0,1,-3,0,0
1528448287866652,-1,-3,0,2,-1,-2,0,-1
1528448287881123,0,-1,0,-1,1,0,0,-1
1528448287881123,0,0,-1,0,-1,0,-2,0
1528448287897095,-1,-1,-2,0,-1,0,-1,-1
1528448287897095,-1,-2,0,0,1,1,2,1
1528448287904076,0,-1,-1,0,0,0,0,-2
1528448287904076,0,-2,-1,0,0,0,0,-2
1528448287919046,0,-1,0,-1,-2,0,-1,0
1528448287919046,0,0,-1,0,-1,-1,-1,-1
1528448287925788,-2,-2,1,0,0,-1,-1,0
1528448287925788,-1,-2,1,1,-1,-1,0,-1
1528448287940969,-1,2,1,0,-1,0,1,-1
1528448287940969,0,-1,0,0,0,0,-2,-1
1528448287963661,-1,-2,-2,0,0,-2,-1,0
1528448287963661,-1,0,-2,-1,-1,0,0,-1
1528448287970953,1,-1,-2,0,0,0,-2,-2
1528448287970953,-1,1,1,-2,0,0,-1,0
1528448287985915,0,0,-1,0,-2,-1,-1,-1
1528448287985915,-1,-1,-1,-1,-1,-1,-2,-1
1528448287993891,0,-2,-1,0,-1,0,1,0
1528448287993891,-3,-1,-3,-3,-2,0,-2,-2
1528448288007983,-1,-2,-1,0,-1,-1,-2,0
1528448288007983,1,-1,-1,1,1,-2,0,1
1528448288024092,-2,-2,0,-1,0,1,-1,0
1528448288024092,-2,1,0,-1,0,0,-1,-3
1528448288038374,-1,-2,0,1,-1,0,0,0
1528448288038374,0,-1,-3,-1,-4,-2,-1,-1
1528448288046577,0,-1,1,-1,-1,-1,0,-2
1528448288046577,-1,0,0,0,-1,-2,-1,1
1528448288061540,0,0,-1,-2,-2,-1,-1,-2
1528448288061540,0,0,-1,-1,0,-1,-1,-1
1528448288076307,0,-1,0,-1,1,0,0,0
1528448288076307,1,-1,0,-3,0,-1,-1,1
1528448288091501,1,-1,-3,0,-1,-2,-1,1
1528448288091501,-1,-1,-1,-1,-1,0,-2,0
1528448288113805,-1,0,1,0,0,-1,0,-1
1528448288113805,-2,-1,-1,0,0,0,-1,-1
1528448288121557,-1,-1,0,0,-3,1,0,-2
1528448288121557,-1,0,-2,-1,-3,-2,0,0
1528448288136555,1,1,-1,-1,-2,1,-1,0
1528448288136555,0,-1,-1,0,1,-1,1,1
1528448288151203,-1,-1,-1,-2,0,0,-1,1
1528448288151203,0,-2,-1,-1,0,-1,-1,0
1528448288165906,0,0,-2,0,-1,-2,-1,-1
1528448288165906,-1,-2,0,0,-2,-1,-1,0
1528448288180858,-2,-1,-1,0,0,-1,1,-1
1528448288180858,-1,0,0,0,-1,0,-1,-2
1528448288196081,-1,-1,-1,-2,0,-2,-1,-2
1528448288196081,0,-1,-2,0,0,0,0,0
1528448288204060,0,1,-1,0,-1,-2,1,1
1528448288204060,-1,0,-1,-2,1,0,0,0
1528448288218101,0,0,-1,-1,0,-2,0,0
1528448288218101,0,-2,-1,-3,-1,-1,-2,0
1528448288226050,0,-1,0,-2,-2,-1,-2,-1
1528448288226050,-1,1,-1,-1,-1,0,0,0
1528448288241253,-1,-1,-1,-1,-1,-1,0,1
1528448288241253,0,0,-1,-3,-1,1,0,0
1528448288264083,1,0,-1,-1,-2,0,2,2
1528448288264083,-1,-2,-1,-1,0,-1,-1,-1
1528448288270959,0,-2,-1,-1,-1,-1,0,-1
1528448288270959,0,-2,0,-2,2,-1,-1,0
1528448288286184,0,-1,0,-2,-1,-1,-1,-1
1528448288286184,-2,0,-1,-1,0,-1,-1,-1
1528448288294222,-1,-1,0,-1,-1,0,-1,0
1528448288294222,-1,-2,-2,1,0,0,0,0
1528448288308388,0,-2,-3,-1,0,-2,-2,-1
1528448288308388,1,0,-1,-1,-2,0,-1,0
1528448288324101,-1,0,2,0,0,0,-1,-1
1528448288324101,0,0,-2,-2,-2,-1,0,0
1528448288339102,0,0,-1,0,1,1,0,-1
1528448288339102,0,-1,-2,-1,0,-1,1,1
1528448288346290,0,-2,0,-2,0,0,-3,-1
1528448288346290,-2,-3,-2,-2,0,-1,-2,-2
1528448288368621,-1,0,0,0,-2,2,1,1
1528448288368621,-2,0,0,-1,-1,1,0,-1
1528448288398696,0,-1,-2,-1,0,1,-1,0
1528448288398696,-1,-2,-1,-2,-1,-3,-1,-2
1528448288405647,-1,-1,-1,1,-1,-1,2,0
1528448288405647,-1,0,0,0,-1,0,-2,1
1528448288428924,1,-1,-3,-1,-1,1,-1,-2
1528448288428924,1,-1,1,0,0,0,0,0
1528448288443593,0,-1,-1,0,-1,-1,0,0
1528448288443593,-1,1,-1,1,-1,0,0,-1
1528448288458593,-1,-2,-1,-1,0,1,0,-1
1528448288458593,1,-1,0,-2,-1,-1,0,-2
1528448288465495,-2,0,-1,0,-1,1,-2,0
1528448288465495,1,-1,-1,1,-2,1,-1,-1
1528448288473731,-1,0,0,-1,-1,-1,0,-1
1528448288473731,0,1,-1,0,-1,-2,-1,0
1528448288480446,-2,0,0,0,0,-2,-1,0
1528448288480446,-1,1,-1,1,-1,-1,1,-1
1528448288496469,0,0,-1,-1,0,0,2,-2
1528448288496469,1,1,-3,-1,0,1,-1,-2
1528448288503676,0,0,-1,-2,-1,-2,0,0
1528448288503676,-1,-1,0,-1,-1,0,-2,-2
1528448288525616,1,1,0,-2,0,-1,-1,0
1528448288525616,1,-2,-2,0,-1,-1,1,1
1528448288533836,0,0,-1,0,-1,0,-2,-1
1528448288533836,0,-1,-1,-1,0,-1,-1,-3
1528448288548815,0,-2,0,0,-3,1,0,-1
1528448288548815,-1,0,2,-1,1,-1,0,-1
1528448288556620,0,1,-1,0,-1,-1,-1,0
1528448288556620,0,-2,-1,-2,-1,-1,0,1
1528448288586062,-1,0,0,1,-1,-1,0,-3
1528448288586062,-1,-3,-1,0,-1,-1,-1,-1
1528448288594258,-1,0,1,1,0,-1,-2,-1
1528448288594258,0,-1,1,0,-1,-1,-1,-1
1528448288601288,-2,-1,-1,-3,0,0,-2,-1
1528448288601288,0,2,3,1,-1,0,-1,0
1528448288616683,0,-1,-1,-1,-1,-2,0,0
1528448288616683,-2,-1,0,-3,-1,0,-2,0
1528448288631600,-1,-3,-1,-1,-1,-1,0,-1
1528448288631600,0,-1,-1,-1,-1,0,0,0
1528448288638100,1,-1,-2,-1,0,-1,-1,0
1528448288638100,-1,0,-3,1,-1,0,0,0
1528448288646317,-1,0,-1,-1,-1,-1,-1,0
1528448288646317,-1,0,-3,-4,-2,0,0,-1
1528448288654089,-2,1,-1,-2,1,2,-1,-1
1528448288654089,1,-1,-2,-1,-1,-1,-2,-1
1528448288675999,0,0,-2,0,1,0,-1,-1
1528448288675999,0,-1,0,2,1,0,0,0
1528448288684083,-1,-1,-3,-3,-1,0,2,1
1528448288684083,-2,-1,-2,-2,-2,-3,-4,-1
1528448288691223,-1,1,0,-1,0,-2,-1,-2
1528448288691223,0,-2,-4,-2,0,2,1,1
1528448288706487,-1,-3,-2,1,0,0,1,0
1528448288706487,-3,0,2,3,1,1,0,-1
1528448288713471,0,-1,-1,-1,-1,-1,-1,0
1528448288713471,-1,-2,-2,-7,-6,-5,-3,0
1528448288721443,1,-1,2,-2,-1,1,1,0
1528448288721443,-1,0,-3,-2,-1,-1,-1,-2
1528448288729220,1,0,0,5,1,1,-1,1
1528448288729220,0,2,3,4,5,-1,1,1
1528448288743187,-1,-1,0,0,0,1,0,-1
1528448288743187,-1,-1,-1,0,-1,2,1,0
1528448288758627,0,0,0,0,0,-5,-1,-1
1528448288758627,0,-1,0,0,0,3,-2,-1
1528448288766201,-1,-4,-3,-5,-3,-2,0,0
1528448288766201,-2,-1,2,12,7,-1,-2,0
1528448288781101,2,1,-1,-10,-7,1,5,1
1528448288781101,0,-1,-3,-4,-7,-3,-3,0
1528448288788998,-1,-1,1,-5,-5,-5,-7,-2
1528448288788998,0,-1,0,-2,-1,0,-1,0
1528448288804067,0,-1,-2,2,2,4,2,0
1528448288804067,-1,2,3,2,2,0,0,-1
1528448288819026,-2,-3,-3,-10,-10,-3,-5,-3
1528448288819026,-2,1,-1,-2,-3,-3,-2,-1
1528448288825756,1,2,3,2,-2,1,1,0
1528448288825756,-1,0,0,-1,1,-1,1,1
1528448288840755,0,-2,0,2,3,4,5,-1
1528448288840755,-2,-6,-5,-2,0,-3,-5,-1
1528448288848730,1,-1,0,-1,0,-3,1,1
1528448288848730,0,1,1,-1,-2,1,1,0
1528448288863636,1,6,9,7,4,-1,2,0
1528448288863636,0,-2,-4,-6,-7,-2,-2,-1
1528448288878896,-3,0,-2,-2,-1,0,-2,-3
1528448288878896,0,-1,-4,-1,1,4,3,1
1528448288886154,-2,-2,-3,-2,-1,-2,-3,0
1528448288886154,0,2,4,0,-4,-11,-4,-3
1528448288901116,-1,-2,-1,1,0,0,1,1
1528448288901116,-1,0,3,3,2,-1,-2,-1
1528448288908168,-3,-3,-4,2,4,3,2,0
1528448288908168,0,1,0,-1,3,3,-2,-2
1528448288923357,0,-2,-4,-8,-6,1,3,-1
1528448288923357,1,6,9,7,2,3,1,1
1528448288939085,2,0,1,7,9,1,4,3
1528448288939085,-2,1,4,6,5,-1,-3,-3
1528448288946307,-1,-2,-4,-4,-9,-8,-7,-1
1528448288946307,-2,-4,-7,-8,0,0,0,-1
1528448288961257,0,0,2,2,0,2,2,1
1528448288961257,0,-2,-1,2,4,1,4,2
1528448288969101,-2,2,10,8,5,-3,-5,-4
1528448288969101,-2,-3,-5,-13,-15,-3,-1,-1
1528448288984107,-3,-3,-3,2,6,2,-2,-4
1528448288984107,0,-1,-2,-4,-8,-2,1,0
1528448288998205,-2,-3,-1,-2,-1,-2,-1,-2
1528448288998205,1,-1,-2,-11,-11,-1,-2,-2
1528448289006530,2,2,2,0,-3,0,3,3
1528448289006530,0,0,4,10,7,2,0,0
1528448289021142,-1,2,0,9,8,0,0,1
1528448289021142,0,2,4,6,10,3,-1,-5
1528448289028122,-1,-4,-9,-12,-5,-2,-1,0
1528448289028122,-2,-1,5,1,-5,-2,-1,-3
1528448289043080,0,-3,-3,-6,-6,-1,1,3
1528448289043080,-2,-5,-7,-4,-3,2,-1,-1
1528448289058507,-2,-3,-3,1,0,0,1,0
1528448289058507,2,3,1,-1,4,0,0,2
1528448289066321,-3,-6,-7,-11,-9,-3,-7,-6
1528448289066321,1,4,7,8,4,2,1,3
1528448289080624,0,1,0,0,1,-3,-1,2
1528448289080624,-4,-6,-6,-8,-6,-3,-2,-2
1528448289088882,1,2,0,3,3,-1,1,-1
1528448289088882,1,1,1,-2,1,1,2,-1
