timestamp,emg1,emg2,emg3,emg4,emg5,emg6,emg7,emg8
1528873185888484,-1,-11,4,-1,3,3,4,-1
1528873185888484,-12,-23,-29,-19,-8,-3,-8,-6
1528873185903442,-8,-56,-35,-5,6,25,24,6
1528873185903442,-11,-8,-12,1,-11,2,0,-3
1528873185911435,5,26,30,9,12,-10,-4,-1
1528873185911435,5,23,6,-10,-33,-20,-14,-7
1528873185926381,3,-21,-1,4,-1,-2,2,5
1528873185926381,1,29,-8,-2,13,-5,-2,0
1528873185933364,8,19,10,2,-6,11,7,2
1528873185933364,7,13,17,9,5,1,1,5
1528873185941343,-12,-37,-33,-12,-1,-2,2,-5
1528873185941343,-14,-19,6,-3,9,-3,-2,-4
1528873185949331,2,25,-2,0,-12,14,0,1
1528873185949331,11,14,18,12,26,3,3,3
1528873185964297,-9,-18,1,2,-3,-5,-7,-5
1528873185964297,2,5,29,4,-2,0,-4,1
1528873185971262,2,13,-5,-1,-7,-3,-2,-1
1528873185971262,1,-6,-5,-1,4,1,2,1
1528873185986223,-6,-10,-13,-9,-1,7,4,1
1528873185986223,-4,-1,10,8,3,-6,-7,-4
1528873185994218,5,-18,-15,-4,-3,3,5,2
1528873185994218,6,38,28,4,2,1,7,2
1528873186001184,0,2,1,4,1,-14,-12,-2
1528873186001184,-2,-6,-19,-11,-9,9,1,-3
1528873186009160,-1,5,21,5,-11,-14,4,0
1528873186009160,-10,-39,-20,6,1,2,-5,-3
1528873186024122,1,17,2,-12,-5,-4,-4,-1
1528873186024122,5,9,-3,-1,11,5,0,0
1528873186039110,-2,-1,7,-1,5,-8,-5,1
1528873186039110,0,-11,3,14,-2,3,4,-1
1528873186046062,3,20,14,2,-2,0,-2,3
1528873186046062,2,-2,-9,-3,3,-1,-6,0
1528873186061035,-1,-10,-10,-1,2,-5,-6,-2
1528873186061035,1,-7,-2,-5,-7,-2,6,2
1528873186076031,2,19,24,10,5,1,-4,0
1528873186076031,-1,-4,-12,-7,3,-2,-3,-2
1528873186084102,-2,-11,-2,0,-2,0,2,0
1528873186084102,-4,-8,-6,-1,-2,-2,-2,0
1528873186098953,0,1,-8,-3,0,-1,-2,0
1528873186098953,-1,-4,-16,-11,4,3,2,0
1528873186105935,3,13,32,22,0,-2,-3,-2
1528873186105935,-3,-6,-2,2,-6,-1,-2,0
1528873186120897,-4,-5,-3,-3,-6,-1,-3,-1
1528873186120897,-1,-1,14,8,4,2,1,-2
1528873186136826,-3,-4,-20,-4,2,-2,-2,-2
1528873186136826,1,2,10,9,0,0,3,0
1528873186143800,0,10,5,-4,0,0,1,-1
1528873186143800,0,-3,5,9,-4,0,0,-2
1528873186158760,0,6,3,-5,2,1,-1,-1
1528873186158760,-2,-1,4,2,-12,-3,-4,0
1528873186166739,-1,0,-1,-9,-4,-6,-2,-4
1528873186166739,-2,-11,-7,-1,-3,0,2,-3
1528873186181700,-2,-7,-12,-4,0,-1,-2,-1
1528873186181700,-3,-4,-14,-10,-3,3,2,1
1528873186196670,0,3,27,16,-1,-2,-1,-2
1528873186196670,0,7,6,0,3,3,-2,0
1528873186203691,-3,-9,-13,0,0,0,-3,1
1528873186203691,0,3,0,-2,-5,-7,-2,-2
1528873186218738,0,-2,-4,-1,4,0,-3,0
1528873186218738,2,4,3,9,0,-1,1,1
1528873186226716,-1,-3,-2,-1,2,-3,3,-2
1528873186226716,-2,-2,-10,-12,1,6,-4,-3
1528873186241114,2,2,3,31,6,4,-16,6
1528873186241114,3,5,10,5,-15,-11,16,10
1528873186256909,2,-2,-13,-29,-9,-14,-18,0
1528873186256909,-9,-4,-2,-9,42,38,42,-4
1528873186263891,-6,-6,0,-2,-34,-23,-47,-28
1528873186263891,-8,-12,-3,15,32,-1,-7,-22
1528873186279061,9,18,10,9,-13,6,-2,5
1528873186279061,1,1,0,0,18,1,1,2
1528873186286095,-1,1,-2,-2,-28,5,30,2
1528873186286095,0,-6,1,14,70,15,-28,-4
1528873186301055,-3,-4,-2,7,8,7,14,5
1528873186301055,1,2,-3,-20,-5,4,-2,-5
1528873186316960,-1,-1,-6,-7,10,-3,-10,-1
1528873186316960,-1,-5,-3,4,-7,7,-6,14
1528873186324066,-1,-6,-1,-2,21,-10,5,-1
1528873186324066,-1,9,3,-1,-32,3,10,5
1528873186339055,-9,-6,-7,7,5,-16,-22,-18
1528873186339055,2,-25,-7,-3,-56,-5,-15,2
1528873186345880,10,23,8,3,31,5,15,9
1528873186345880,-1,22,13,-3,-17,10,16,6
1528873186361180,-10,-36,-24,-18,-7,3,-1,-4
1528873186361180,9,38,1,-4,-6,-14,-4,2
1528873186376124,8,17,23,10,0,3,7,3
1528873186376124,-3,-9,-13,14,9,-7,-10,-3
1528873186384247,2,17,29,-22,2,8,1,-3
1528873186384247,-19,-89,-42,-11,-16,-2,5,5
1528873186399219,-1,44,7,0,8,-7,-5,-7
1528873186399219,22,38,3,-1,-7,-3,-3,1
1528873186406072,-8,-16,-11,0,-3,-2,1,5
1528873186406072,-1,1,18,13,4,-2,4,1
1528873186421005,-3,-4,-10,-12,-19,-7,-2,-2
1528873186421005,10,29,10,0,1,-5,-9,-4
1528873186436010,-12,-25,-20,-9,-5,-7,-3,-8
1528873186436010,2,8,16,10,-4,1,3,3
1528873186443944,2,-3,-12,-7,4,1,-3,-1
1528873186443944,-1,17,-1,0,-2,-6,-1,0
1528873186458958,16,41,41,23,15,13,11,8
1528873186458958,0,-10,-14,-9,-2,-4,-6,-1
1528873186465884,-4,-15,-21,-5,1,1,-3,-1
1528873186465884,-4,-21,-10,7,-1,2,2,0
1528873186481859,3,2,-6,0,11,3,0,1
1528873186481859,-3,-6,-8,0,-5,3,-1,-2
1528873186496862,-6,-18,-7,1,0,-13,-5,-1
1528873186496862,-7,-9,-26,-18,3,5,-6,-7
1528873186503837,4,9,12,16,9,1,3,2
1528873186503837,1,7,7,-14,-63,-18,-5,0
1528873186518795,-2,-12,-8,7,28,5,0,-2
1528873186518795,-5,0,-11,-8,-10,-7,3,1
1528873186526791,1,5,-3,0,17,4,-6,0
1528873186526791,1,0,4,0,-5,5,1,1
1528873186541736,3,11,12,6,4,0,-1,0
1528873186541736,3,2,2,-1,11,3,1,0
1528873186556696,-4,-15,-25,-5,-9,-9,-9,-3
1528873186556696,1,14,14,5,9,11,8,3
1528873186563675,-1,2,15,8,-14,-5,-2,-2
1528873186563675,-1,-1,-11,-12,9,0,1,3
1528873186578638,-1,-8,-16,2,-9,-5,-6,0
1528873186578638,-1,-4,-3,-7,1,8,6,-1
1528873186586616,0,-1,2,8,-2,-3,-4,0
1528873186586616,-2,-2,4,12,10,2,1,-3
1528873186601522,8,4,-5,-6,-2,0,4,5
1528873186601522,-3,2,14,43,5,1,4,-7
1528873186616534,-11,-3,0,-27,-8,-10,-44,-13
1528873186616534,3,-3,3,7,0,2,23,-2
1528873186623518,-2,6,-2,-3,-7,-8,-15,-9
1528873186623518,6,-4,-13,-31,-5,-2,2,16
1528873186638480,0,4,14,28,12,10,15,6
1528873186638480,-2,-3,1,10,-1,-5,-11,-9
1528873186646458,1,-1,-3,-8,28,16,7,-1
1528873186646458,-3,-1,6,27,-32,-11,-5,-4
1528873186661362,-1,3,11,13,1,7,8,-1
1528873186661362,-4,2,6,-13,7,-11,-10,-3
1528873186676323,5,-3,-5,11,0,6,6,-2
1528873186676323,-5,2,-1,0,5,7,2,4
1528873186684311,3,1,-1,-4,-10,7,0,7
1528873186684311,-7,-4,1,2,13,-2,-6,-5
1528873186699314,9,8,9,5,-4,0,12,6
1528873186699314,-1,2,1,6,-2,1,-5,-9
1528873186706296,-8,-8,-6,-5,-7,-6,-4,-4
1528873186706296,-4,-13,-7,-10,5,-3,-8,-7
1528873186721258,52,0,-7,2,-2,-4,11,17
1528873186721258,-2,0,2,-5,3,-3,-6,-5
1528873186736305,-2,-2,4,2,-1,2,0,1
1528873186736305,1,-1,-5,8,-1,-4,-6,-4
1528873186744142,-21,-4,-3,-9,-8,-8,0,-8
1528873186744142,3,-9,4,12,4,0,1,2
1528873186759256,0,2,-13,-22,8,8,2,3
1528873186759256,-1,7,7,6,-5,-7,-3,-2
1528873186766237,-10,-6,2,2,-1,4,-4,-4
1528873186766237,5,5,-4,-7,1,0,4,3
1528873186781042,-5,2,4,-3,-9,-5,-2,-4
1528873186781042,3,5,-4,-6,1,4,1,0
1528873186796005,-5,-3,1,2,11,0,0,0
1528873186796005,1,-10,-20,-1,-27,-9,-4,0
1528873186804296,-1,10,11,-12,-5,-5,-2,-2
1528873186804296,-1,1,-5,3,21,14,14,3
1528873186819141,-1,1,16,10,-10,-10,-9,-2
1528873186819141,2,-5,-8,0,3,12,7,1
1528873186826244,-10,-8,-15,-15,-3,-15,-7,-4
1528873186826244,-1,2,2,-5,-9,5,1,2
1528873186841377,-5,2,7,12,0,5,1,0
1528873186841377,0,5,4,-17,1,-1,-3,-2
1528873186856372,-1,-6,-4,-2,-3,0,-2,-2
1528873186856372,0,1,5,1,-5,-2,-2,-1
1528873186864350,-4,-4,-8,-1,3,3,-3,0
1528873186864350,-2,-2,-2,-3,-5,-9,0,-1
1528873186879154,-3,-1,-3,2,7,3,1,-1
1528873186879154,1,1,2,-5,-6,-4,-1,-1
1528873186886136,0,2,8,3,3,1,0,-2
1528873186886136,-1,0,0,5,-1,-2,0,0
1528873186901252,1,-1,-1,-8,-3,2,3,3
1528873186901252,-2,7,5,1,0,-1,0,0
1528873186916058,-1,-6,-15,-9,-6,-4,-2,-3
1528873186916058,0,0,-9,-2,16,2,-4,0
1528873186924360,0,-2,0,7,-1,0,1,-2
1528873186924360,0,0,6,1,-3,0,6,1
1528873186939446,1,6,10,8,2,4,-3,1
1528873186939446,-1,-1,-3,-2,-1,0,3,-1
1528873186946467,-4,-5,-9,-7,-6,-4,-3,-1
1528873186946467,-2,-4,0,0,2,0,1,-3
1528873186961263,-2,-2,-4,0,-3,-1,-1,-3
1528873186961263,0,-6,-7,-3,1,0,-1,1
1528873186976362,1,0,0,1,0,-2,-3,-2
1528873186976362,1,4,9,1,-4,-2,-2,-1
1528873186984360,0,-2,-4,-6,5,3,2,2
1528873186984360,0,-3,-8,1,-1,-4,-1,-1
1528873186998671,1,-2,1,-5,-8,0,1,-3
1528873186998671,-1,-2,2,-1,-1,-1,-2,-1
1528873187006650,-2,0,-1,2,-4,-3,-3,-3
1528873187006650,1,3,11,0,0,1,-1,-1
1528873187021940,-4,-6,-11,-12,1,-2,0,-2
1528873187021940,-1,-3,-4,1,2,-1,-6,-2
1528873187036209,0,4,12,0,-3,-4,1,1
1528873187036209,-2,-3,-6,-3,-1,0,-3,0
1528873187044031,-2,-4,-12,1,-1,0,4,1
1528873187044031,2,12,27,5,0,0,0,-2
1528873187059359,0,-7,-7,0,2,0,-2,-1
1528873187059359,0,2,2,-4,-3,-5,-4,-3
1528873187066173,2,0,-1,6,-1,1,2,-1
1528873187066173,-1,-6,-10,-5,-4,1,-1,-1
1528873187081131,-1,2,3,3,-1,-3,-5,-2
1528873187081131,-3,-10,-13,-1,-3,0,-1,-1
1528873187096090,1,2,-1,-9,0,-1,0,0
1528873187096090,8,5,-6,-7,0,-2,-1,2
1528873187104212,-1,5,21,16,4,3,-1,0
1528873187104212,0,1,-3,-4,-1,0,1,0
1528873187119169,-4,-8,-6,-2,-2,-1,0,-2
1528873187119169,-2,-6,-1,-1,-2,-1,0,-1
1528873187126153,0,-2,-1,-3,-1,-1,-1,-1
1528873187126153,1,8,6,3,1,1,-1,1
1528873187141991,2,2,2,-6,-1,0,0,1
1528873187141991,0,3,7,4,0,-1,-2,0
1528873187156972,-3,3,6,-1,-2,-1,-1,-2
1528873187156972,-3,-4,-9,-2,0,1,0,0
1528873187164351,-1,-4,-4,0,-1,-1,1,0
1528873187164351,-1,-4,-11,-6,-1,-2,0,-1
1528873187179451,0,0,1,1,0,-1,0,-1
1528873187179451,-2,2,4,-1,-2,-2,0,-2
1528873187186437,0,-1,-4,0,-1,-1,-1,-1
1528873187186437,-1,-1,1,-6,1,1,0,-1
1528873187201255,-1,0,0,2,6,-1,-1,-2
1528873187201255,-2,-6,-12,-6,2,2,1,-1
1528873187216351,-1,-4,-5,-1,-3,0,0,1
1528873187216351,2,5,12,4,17,5,1,0
1528873187224555,-2,-3,0,-2,-24,-10,-3,2
1528873187224555,-1,0,-6,-1,-2,0,0,-1
1528873187246335,1,3,0,-3,1,-2,0,-1
1528873187246335,0,-2,-6,-2,3,0,-1,-1
1528873187254313,0,-2,-2,2,2,2,-1,-1
1528873187254313,-3,-6,-13,-6,1,-1,1,0
1528873187269449,0,1,1,-2,-2,-2,-1,-1
1528873187269449,-1,-7,-16,-6,-4,-3,-2,-1
1528873187283423,-2,-5,-6,-3,-2,2,-1,-1
1528873187283423,0,3,6,-1,1,0,1,1
1528873187291591,-1,-1,-5,0,1,2,0,-1
1528873187291591,2,4,12,5,3,1,1,2
1528873187298574,-3,-5,-4,-1,4,0,1,-2
1528873187298574,-1,-2,-3,-8,-8,-4,-2,-2
1528873187306552,-1,0,0,8,5,0,-2,-1
1528873187306552,-1,-2,0,2,1,-2,-2,-1
1528873187321844,-1,1,-1,-4,2,1,0,-1
1528873187321844,0,0,1,-1,1,1,0,-1
1528873187335943,-1,-1,-2,-1,-1,0,0,1
1528873187335943,1,0,0,3,-1,-1,-1,-1
1528873187343901,0,-3,3,-4,0,1,0,0
1528873187343901,-2,-2,2,-1,-1,0,-1,0
1528873187359024,-3,-3,-2,1,-1,-1,1,-1
1528873187359024,-1,-2,0,4,-3,-6,-2,1
1528873187366843,0,4,4,-4,0,1,0,-1
1528873187366843,-1,2,1,5,0,-1,-1,1
1528873187381166,-1,-5,-1,11,2,0,-2,-1
1528873187381166,0,2,2,-4,7,0,-1,-2
1528873187396179,5,7,4,3,1,1,0,2
1528873187396179,-3,-4,-4,-1,-3,0,-2,-2
1528873187404163,-1,-2,-4,-7,-2,-1,0,0
1528873187404163,-2,-6,4,2,-3,-1,-1,-3
1528873187426541,0,5,3,-2,-2,-1,-1,-1
1528873187426541,2,0,0,-4,-3,0,0,0
1528873187433392,0,-2,-2,-1,-1,-2,1,1
1528873187433392,-1,-7,-7,-2,-3,0,0,1
1528873187449341,1,-3,0,1,2,1,0,-1
1528873187449341,-2,-4,-7,-7,-3,-4,-1,1
1528873187471617,2,-2,1,6,0,0,-2,0
1528873187471617,-2,-1,-2,-3,1,1,2,-2
1528873187479435,1,7,3,2,-1,-2,0,-1
1528873187479435,1,-3,-9,-2,-2,-1,-2,-1
1528873187486420,-1,-2,-6,-5,-2,-2,-1,-1
1528873187486420,-1,-1,2,2,-1,-1,0,1
1528873187494406,-3,-2,-5,-5,1,1,1,-1
1528873187494406,0,-4,-7,0,-3,-1,0,1
1528873187509408,0,8,12,0,-1,1,0,1
1528873187509408,1,-2,-2,-1,-2,-2,1,-1
1528873187524387,0,-1,-1,-1,-1,0,-3,-2
1528873187524387,1,3,6,1,1,0,-1,0
1528873187539412,-1,-6,-8,-1,0,-1,-2,-1
1528873187539412,0,-1,0,-3,-3,-3,-1,0
1528873187546399,-2,-1,-2,-1,0,-1,0,0
1528873187546399,0,2,4,2,-1,-2,-1,-1
1528873187561803,-3,-2,-1,-1,0,0,1,0
1528873187561803,-1,-2,-5,-2,-1,-1,-1,-1
1528873187568736,1,-1,0,-1,0,-1,0,1
1528873187568736,0,2,1,-1,2,0,-1,1
1528873187584204,0,1,-4,-5,-4,-3,-2,0
1528873187584204,1,3,3,1,-2,1,1,-1
1528873187599174,0,-4,-4,-2,0,0,-1,-1
1528873187599174,-1,0,0,0,-3,-1,-1,-2
1528873187606999,-1,1,-1,0,0,0,-1,0
1528873187606999,0,-2,0,-1,-3,-1,1,0
1528873187621955,0,-2,-4,0,1,-1,-2,-1
1528873187621955,-1,-2,-1,-1,-1,1,-2,-1
1528873187629085,-1,-1,1,0,0,0,0,-2
1528873187629085,-2,1,2,-1,-1,-1,-1,0
1528873187643890,1,0,2,0,-2,0,0,1
1528873187643890,-1,2,0,0,0,-1,-2,-1
1528873187659366,-2,-2,-1,0,1,-1,1,-3
1528873187659366,2,-1,-3,-3,-1,0,-1,1
1528873187666347,0,-1,-2,-1,-1,-2,-1,-1
1528873187666347,1,0,0,0,-2,0,-1,-2
1528873187681308,-2,-1,-2,-1,1,-1,1,0
1528873187681308,0,-1,0,-1,-1,-2,-3,-1
1528873187689146,-2,-1,0,-1,0,-1,0,0
1528873187689146,1,-1,0,-1,0,-1,-1,1
1528873187704229,0,-1,0,-1,0,1,-1,-1
1528873187704229,0,1,-1,0,0,-1,0,0
1528873187719051,-1,0,-1,-2,0,-1,-1,1
1528873187719051,-1,-2,0,-2,0,0,1,-1
1528873187726089,0,-1,0,-1,2,-2,-2,0
1528873187726089,0,0,-1,-1,-2,-1,0,0
1528873187741136,-1,-1,-2,-1,0,0,0,-2
1528873187741136,-1,1,0,2,1,-1,-2,0
1528873187749109,-1,0,-2,0,0,-1,0,0
1528873187749109,-3,-1,-1,-2,2,1,0,-2
1528873187763933,-1,0,0,-1,-3,-2,-1,-1
1528873187763933,0,0,0,-2,-1,-2,-2,1
1528873187778893,0,-1,0,-1,-1,-2,-2,-1
1528873187778893,-1,-1,-2,0,-1,0,-2,-1
1528873187786946,0,-3,-2,0,1,-1,1,-1
1528873187786946,-1,-1,0,-1,-2,0,0,-1
1528873187801234,0,-1,-1,0,-1,-1,0,0
1528873187801234,0,1,0,0,-1,0,-2,0
1528873187809213,-1,-1,0,-1,-1,0,0,1
1528873187809213,0,0,-2,0,-2,-2,-1,-1
1528873187824014,0,-1,-1,0,-1,0,0,-1
1528873187824014,0,-1,0,-1,0,0,0,-1
1528873187839109,-2,-2,-3,-3,-1,2,0,0
1528873187839109,0,-2,0,0,-2,-1,-1,0
1528873187846979,-1,-1,0,-2,-2,-1,-1,-2
1528873187846979,-2,-2,0,1,0,-1,-1,1
1528873187861105,-1,0,0,1,-1,-2,-2,-1
1528873187861105,0,1,-1,-1,-1,-1,-1,-1
1528873187869073,0,0,-2,2,0,-1,0,-1
1528873187869073,0,-1,-2,-2,-1,2,0,-1
1528873187884367,0,-1,0,-1,-2,-1,0,0
1528873187884367,0,-1,0,0,-3,-2,-1,-1
1528873187898577,1,-2,-2,0,12,15,4,0
1528873187898577,-1,-3,-4,-4,0,3,3,-1
1528873187906550,0,0,-3,-3,-2,3,1,0
1528873187906550,0,3,6,6,8,0,-4,0
1528873187921401,-2,-1,-2,-3,-7,-3,-1,-1
1528873187921401,1,-1,0,-2,0,0,-1,1
1528873187929385,-3,0,0,0,4,5,0,0
1528873187929385,2,-2,-2,-2,-4,-4,0,-1
1528873187951401,-1,1,-1,-1,-3,-5,-2,-1
1528873187951401,-1,-1,-1,-1,-2,-1,-1,-1
1528873187966369,0,0,1,1,-1,-3,-2,-2
1528873187966369,-3,-2,-2,-3,-2,0,-1,1
1528873187974347,1,-2,1,0,-2,-2,-1,0
1528873187974347,-1,-1,-3,-4,-2,1,1,-1
1528873187988705,1,0,0,1,-1,1,1,0
1528873187988705,-2,1,0,0,0,-1,-2,-1
1528873187996904,-2,-2,0,-2,-1,-2,-1,1
1528873187996904,-1,-1,0,-2,1,-2,0,-1
1528873188003724,0,-1,-1,2,1,-2,-1,1
1528873188003724,2,0,-1,-2,-3,-2,-1,-1
1528873188019073,-1,0,1,-2,0,-2,-3,-1
1528873188019073,-2,-1,-2,-1,0,0,-1,-1
1528873188026254,-1,0,1,-2,2,0,-1,-1
1528873188026254,0,-1,-1,0,0,0,0,0
1528873188041421,0,-1,-2,-2,-1,-1,0,0
1528873188041421,0,0,-2,-1,-1,0,1,-1
1528873188049400,1,-1,-1,0,-2,-2,-2,-2
