timestamp,emg1,emg2,emg3,emg4,emg5,emg6,emg7,emg8
1529296548802719,-1,4,9,4,5,-11,-3,1
1529296548802719,-11,-18,1,-1,-10,-9,-5,-6
1529296548814688,7,1,3,-1,-9,-2,-5,1
1529296548814688,-1,5,-1,7,1,1,-4,-4
1529296548823667,11,8,5,0,1,-12,0,6
1529296548823667,-9,-7,-9,-7,0,-1,-1,-1
1529296548838622,-1,-1,3,-7,11,14,1,-2
1529296548838622,-5,-2,-2,4,-6,-9,-1,-2
1529296548839620,1,-3,-1,10,-13,14,0,-2
1529296548839620,-2,-2,-4,2,27,-8,3,0
1529296548860592,5,-4,3,-1,7,17,2,1
1529296548860592,-7,-3,3,0,-3,-10,-1,-1
1529296548862560,-13,-5,-5,-14,-9,-3,-5,-5
1529296548862560,31,20,2,0,-8,-2,3,7
1529296548874528,-15,-18,-4,-2,-21,-15,-4,-2
1529296548874528,-2,0,-2,-3,38,12,-1,0
1529296548883503,-1,-5,-5,-4,-27,-14,1,-1
1529296548883503,-7,2,0,-3,0,17,2,-2
1529296548898508,10,6,5,13,16,-8,-1,2
1529296548898508,-4,-10,-2,-5,-14,-7,-6,-4
1529296548900518,-2,1,-5,-4,15,-11,-5,-6
1529296548900518,-3,-2,-1,8,-27,3,-1,0
1529296548920404,-6,-5,0,10,23,1,-1,-3
1529296548920404,-7,-4,0,-8,-2,14,3,0
1529296548922398,28,24,3,6,12,5,7,10
1529296548922398,-14,-17,-3,8,21,7,-4,-5
1529296548934366,1,3,0,2,-23,-10,1,0
1529296548934366,-5,-3,-2,-15,-12,-17,-6,-2
1529296548943353,2,5,1,-7,11,25,-3,-4
1529296548943353,2,-1,0,4,6,-3,1,1
1529296548958312,-4,-2,-3,-2,-23,-23,-6,-5
1529296548958312,0,-2,-3,4,0,-13,-1,-1
1529296548960333,-5,-9,-1,-6,-11,4,0,-2
1529296548960333,-1,6,-1,-6,-11,3,0,0
1529296548981242,-8,-12,0,-13,29,-2,-2,-2
1529296548981242,13,13,-4,9,-72,-29,-9,0
1529296548982295,-4,-4,-4,8,50,-17,-2,-3
1529296548982295,4,1,2,6,44,95,8,1
1529296548995205,-7,0,5,13,1,-15,2,1
1529296548995205,11,4,-2,-20,-10,7,3,3
1529296549003231,-4,-11,2,18,0,-17,-3,-2
1529296549003231,-10,-4,-7,-24,-88,-96,-16,-8
1529296549018206,3,1,-1,6,88,74,6,0
1529296549018206,5,4,5,0,12,27,7,3
1529296549018206,-12,-6,-1,8,-12,-13,-3,-3
1529296549018206,-6,-12,-7,-8,-82,-66,-12,-6
1529296549040085,-4,-3,-6,-16,12,-14,-9,-5
1529296549040085,0,2,2,9,46,73,9,-1
1529296549041082,7,1,3,-15,9,21,10,4
1529296549041082,-7,0,1,15,17,-4,-3,0
1529296549063022,10,2,0,-18,-64,-52,-8,0
1529296549063022,-8,-4,-3,-4,-1,-27,-3,-3
1529296549063022,-1,-3,0,10,7,46,4,-2
1529296549063022,5,-1,0,8,15,-28,0,3
1529296549077984,-2,-3,-3,-10,-17,43,2,0
1529296549077984,1,-1,-3,9,6,-41,-7,-3
1529296549078980,-5,-4,-4,-13,5,-2,-6,-4
1529296549078980,0,1,-1,0,37,47,6,1
1529296549099927,3,3,0,0,-21,-13,1,2
1529296549099927,-6,-5,0,-11,5,-3,-1,-2
1529296549100924,2,0,-3,-8,-42,-43,-2,0
1529296549100924,-1,1,0,-2,22,11,-6,-4
1529296549122877,-2,2,-3,21,-8,2,3,0
1529296549122877,-4,-7,-4,-8,-10,-5,-3,-1
1529296549123862,-5,-4,-1,-3,26,30,4,3
1529296549123862,8,8,2,0,0,-4,3,1
1529296549137860,-5,0,-1,2,-7,-17,-9,-4
1529296549137860,-3,-2,1,-12,-11,11,-1,-2
1529296549138858,3,0,-2,21,8,-6,-1,2
1529296549138858,-4,1,0,12,29,30,2,-1
1529296549168780,2,0,0,-14,-9,-31,-1,0
1529296549168780,-4,-2,-6,-14,-41,-33,-12,-5
1529296549168780,2,-1,-2,-37,-22,2,-7,-3
1529296549168780,1,-1,4,43,34,22,9,2
1529296549182732,-1,-1,-4,1,-7,-2,1,0
1529296549182732,0,1,-1,-5,10,6,1,-3
1529296549183701,-6,-4,1,10,-9,-19,-5,-3
1529296549183701,-4,0,-1,-48,-57,-47,-12,-4
1529296549197662,-3,-4,-6,29,44,65,10,0
1529296549197662,8,2,2,4,18,16,10,5
1529296549198660,-2,1,3,5,2,-27,-3,-4
1529296549198660,-4,-9,-3,7,16,13,-1,-1
1529296549220601,-1,1,3,-55,-46,-25,-5,-2
1529296549220601,-3,1,-1,30,-21,-18,-7,-2
1529296549220601,-5,-1,-3,3,14,9,4,2
1529296549220601,1,-1,-3,13,40,17,3,0
1529296549242742,0,-1,2,-4,4,-1,-1,-1
1529296549242742,-1,-6,-1,7,-2,-3,2,-1
1529296549243706,2,3,-6,-47,-40,-6,-3,-2
1529296549243706,-1,1,1,11,-3,-3,0,0
1529296549257816,1,-2,3,20,17,5,3,1
1529296549257816,0,1,0,-6,7,5,-3,-1
1529296549258667,-2,-3,-1,13,-10,3,-2,-3
1529296549258667,-2,-3,-7,-29,-18,-10,-1,0
1529296549280609,-3,5,1,-6,-19,-7,-5,-3
1529296549280609,5,-1,2,14,24,8,0,3
1529296549280609,-1,-2,-3,-15,-34,-19,0,0
1529296549280609,0,1,0,-6,32,20,1,0
1529296549303138,0,-1,0,13,-3,-4,-1,0
1529296549303138,-3,-2,-4,-10,-1,4,3,-1
1529296549304082,-3,-2,-4,4,-2,-6,-3,-1
1529296549304082,-3,1,5,40,-8,-6,-8,-2
1529296549317658,-2,6,-1,-24,9,10,54,14
1529296549317658,-4,-6,-20,27,-3,3,9,-22
1529296549318656,25,-14,14,3,14,-13,-57,0
1529296549318656,5,0,25,61,-4,-9,-3,21
1529296549340598,15,5,-50,-69,-7,1,25,19
1529296549340598,-4,-27,-14,-45,-9,20,9,11
1529296549340598,15,27,-4,96,12,9,23,-34
1529296549340598,-15,24,42,-65,0,-8,-43,-30
1529296549362540,16,-13,-4,74,6,-40,-59,2
1529296549362540,7,23,-50,71,6,28,71,65
1529296549363536,64,-6,23,-125,-22,20,35,-35
1529296549363536,-27,-17,2,111,13,-5,-51,-9
1529296549377510,-59,8,-10,-57,-14,3,-12,-32
1529296549377510,23,-6,-1,-73,-18,-31,-35,36
1529296549378495,-18,9,-14,-31,20,-21,-27,24
1529296549378495,36,11,9,59,2,15,64,27
1529296549400437,12,-1,2,-93,-10,9,4,-2
1529296549400437,-18,-3,34,126,13,-8,-24,-55
1529296549401434,-18,-4,-25,-106,-14,17,115,27
1529296549401434,-12,-5,-11,-128,-37,-12,-53,16
1529296549422379,0,-11,20,43,22,12,-33,-29
1529296549422379,-18,2,-12,55,-2,-3,-39,0
1529296549423376,-13,-5,-15,-29,-17,-32,-13,28
1529296549423376,2,-11,-25,42,16,0,8,-14
1529296549439333,4,-5,7,28,-8,2,23,10
1529296549439333,-3,3,21,-31,-28,-18,-10,-25
1529296549440482,-19,-16,4,79,49,16,-11,-11
1529296549440482,-5,-7,-28,-81,-13,10,31,-23
1529296549460277,4,5,7,15,-5,-1,2,16
1529296549460277,3,4,22,-29,3,5,2,-6
1529296549461275,-12,-5,-6,22,-3,-6,-17,3
1529296549461275,5,-1,-13,-40,-11,3,12,6
1529296549483307,1,1,18,38,6,-2,-11,-16
1529296549483307,1,-6,-13,-24,-14,-23,-7,-3
1529296549483307,-9,-2,-2,-19,-6,18,-18,1
1529296549483307,-1,-1,1,11,-4,-14,3,-6
1529296549497437,0,-3,5,18,13,13,-2,2
1529296549497437,-2,-3,-1,-36,4,-1,4,1
1529296549498392,-6,2,4,54,-4,-4,-5,-2
1529296549498392,0,-3,-4,46,4,0,1,-5
1529296549528304,-4,-8,-9,-54,-9,-8,0,5
1529296549528304,1,7,6,-58,-14,-5,-3,-3
1529296549529300,-5,-2,8,20,-32,-19,-16,-13
1529296549529300,-1,-5,-6,-14,18,13,8,3
1529296549551296,3,4,-3,85,39,15,9,8
1529296549551296,-2,-1,2,-22,13,6,10,-15
1529296549551296,-4,0,2,11,-4,-11,-22,-1
1529296549551296,0,1,-6,-34,-59,-33,-16,5
1529296549558222,1,2,-1,-21,7,1,-1,-8
1529296549558222,-3,-1,3,17,45,51,6,-2
1529296549558222,-4,-4,-3,17,7,0,6,-1
1529296549558222,-1,0,-2,-19,-6,-17,9,0
1529296549580217,-2,-6,0,-9,-33,-8,-11,-3
1529296549580217,0,0,2,-5,-17,-24,1,0
1529296549581162,-1,2,-2,9,-7,-6,-8,-4
1529296549581162,2,-1,-4,7,36,23,2,-1
1529296549603103,0,-2,2,6,7,-3,1,-1
1529296549603103,1,-2,-1,-29,-17,-17,-3,0
1529296549603103,-3,0,3,8,-7,12,1,2
1529296549603103,0,0,-1,11,21,-6,3,-3
1529296549618063,-4,-5,-4,-2,-4,5,0,-1
1529296549618063,0,1,2,-14,3,25,-2,0
1529296549618063,-1,-1,2,-8,6,-12,-3,0
1529296549618063,0,5,10,14,-15,-2,6,2
1529296549640005,-2,-6,0,7,31,6,-4,-3
1529296549640005,1,-1,-4,7,-7,-16,-6,0
1529296549641002,-5,1,-1,-11,5,2,0,-3
1529296549641002,-2,-5,1,-21,-17,1,-2,6
1529296549662944,-5,-3,-6,1,-22,-19,-12,-6
1529296549662944,-6,-12,-6,-1,3,-2,-7,-6
1529296549663941,5,6,0,10,7,3,1,1
1529296549663941,1,0,-1,1,-4,3,3,-4
1529296549677904,4,9,4,-24,-20,-4,5,4
1529296549677904,-6,-10,-6,6,-1,-4,-7,-3
1529296549678901,-1,4,7,12,13,5,-3,-2
1529296549678901,1,2,-5,20,18,5,3,0
1529296549699845,-3,1,-2,6,5,3,5,2
1529296549699845,1,10,8,-21,-7,-3,1,2
1529296549707877,0,-1,-2,19,2,18,4,1
1529296549707877,-4,-11,-11,-9,-15,-22,-5,-4
1529296549722840,0,-4,-11,-21,-12,12,-1,-1
1529296549722840,-3,-2,1,14,15,5,1,1
1529296549723781,-3,-3,4,0,6,-2,-4,0
1529296549723781,0,2,-3,-23,-28,-3,-2,-4
1529296549744725,-1,0,2,4,-10,-16,0,0
1529296549744725,4,3,3,30,18,5,3,3
1529296549745729,-1,-1,-4,-1,2,6,-1,0
1529296549745729,-1,-3,2,5,9,5,-1,-3
1529296549759739,-3,-8,1,-31,-26,-11,0,-1
1529296549759739,1,6,-1,7,-3,-8,-5,-2
1529296549767718,0,-1,-3,1,6,-6,2,0
1529296549767718,-3,0,7,-20,-6,5,-2,-1
1529296549782677,-2,-5,-9,15,8,8,-2,-2
1529296549782677,-2,-2,1,2,4,-5,-2,-2
1529296549783621,-2,-1,-1,-16,-8,-1,-2,-2
1529296549783621,-3,1,0,6,-12,-19,-1,-1
1529296549805562,2,3,9,32,51,28,1,0
1529296549805562,2,0,-4,-9,4,13,5,-1
1529296549805562,-2,-5,-8,-3,-12,-10,-2,-3
1529296549805562,-1,0,5,-11,-7,-2,2,-1
1529296549828501,0,-1,-14,11,-16,-19,-5,-2
1529296549828501,0,-5,-2,21,11,4,0,0
1529296549829498,-1,-2,2,-27,0,-1,-1,-1
1529296549829498,0,-2,-5,11,26,9,2,1
1529296549842606,3,4,6,-3,-10,-6,-4,-1
1529296549842606,-1,-2,-3,-26,-14,-10,-5,-3
1529296549843466,-7,-3,-2,4,-21,-9,-2,-3
1529296549843466,3,2,2,9,45,24,4,1
1529296549865656,-1,-1,5,22,4,-5,0,-1
1529296549865656,1,0,-2,-23,-14,-2,-1,0
1529296549865656,1,-3,-2,5,-2,-2,-1,-1
1529296549865656,-2,-2,-4,-23,-7,-3,-3,-4
1529296549880016,0,0,0,4,-2,0,2,0
1529296549880016,-1,0,-1,4,-6,-4,-3,-1
1529296549888001,1,-1,2,3,14,3,-2,-1
1529296549888001,-1,-3,-4,-9,-15,-1,0,1
1529296549903121,-1,-3,-3,-16,-13,-5,0,-1
1529296549903121,-2,1,1,6,4,-4,12,9
1529296549904090,-2,4,-1,22,4,2,-9,-10
1529296549904090,-3,-4,-9,-13,-3,-2,-22,-19
1529296549925280,16,23,10,-4,-1,4,32,18
1529296549925280,-19,-28,1,59,7,-7,-21,15
1529296549926120,0,-10,-1,-36,9,5,22,-11
1529296549926120,42,-16,-36,15,-13,0,15,22
1529296549948624,0,16,32,-51,-3,-12,-51,6
1529296549948624,-47,-15,-27,80,-11,-9,-6,-85
1529296549949457,73,44,36,-1,14,-3,8,59
1529296549949457,-41,-29,15,-84,-25,0,-37,-13
1529296549962803,26,-22,-78,-76,-27,11,-5,-107
1529296549962803,47,13,-24,10,1,7,53,52
1529296549963639,63,-16,24,-77,3,-4,-101,3
1529296549963639,-8,42,-9,120,13,-6,43,-32
1529296549985112,-17,25,39,18,4,26,101,103
1529296549985112,-83,-24,11,19,14,3,-27,-88
1529296549986111,-57,-39,-29,-73,-29,-26,-55,-50
1529296549986111,44,22,12,35,23,1,-51,93
1529296550008209,1,-11,-13,22,16,-9,-128,-19
1529296550008209,23,22,36,-11,-6,1,35,24
1529296550009069,-37,3,5,60,-18,0,44,-3
1529296550009069,-15,-4,-1,2,17,1,17,-61
1529296550023052,-17,-7,8,-50,-23,-12,86,-18
1529296550023052,22,12,11,13,-12,-10,-29,46
1529296550023052,3,-6,-28,31,-2,6,-30,1
1529296550023052,-23,-17,-8,35,9,-6,-2,2
1529296550046091,3,4,-11,-10,18,2,20,-11
1529296550046091,21,3,11,-35,12,22,89,39
1529296550047005,-15,1,-18,-29,-32,-18,-40,-10
1529296550047005,14,10,11,-5,0,-1,-61,5
1529296550068264,-5,-6,6,13,22,2,-23,12
1529296550068264,-5,-5,6,-32,-7,7,-16,-30
1529296550069091,-11,3,-9,127,21,13,62,8
1529296550069091,-26,-9,-11,-112,-15,-9,23,-6
1529296550091026,8,-22,-14,-54,-28,-20,-39,-28
1529296550091026,22,6,-3,-48,-19,-6,-31,51
1529296550091860,-13,6,5,53,16,7,31,-1
1529296550091860,-2,-7,-3,-9,0,8,1,-18
1529296550105979,-14,-11,-3,67,9,-3,13,-4
1529296550105979,6,8,2,-18,2,-9,-30,15
1529296550106977,-12,-4,3,-21,3,-2,-4,-16
1529296550106977,0,-3,5,99,-23,-17,3,-8
1529296550127975,2,5,-2,-60,4,18,12,11
1529296550127975,8,-1,-14,-51,27,7,-4,-8
1529296550128972,0,1,2,-38,-9,-6,-1,5
1529296550128972,-9,-8,-6,46,-7,3,32,-4
1529296550151401,0,-2,6,6,-2,-2,-13,9
1529296550151401,7,5,0,3,-8,-15,-37,-17
1529296550152316,-9,-3,-6,-37,-16,-3,6,-12
1529296550152316,2,-4,-5,-26,2,6,8,8
1529296550165206,-3,-2,2,30,-3,-11,-2,2
1529296550165206,-5,-2,-10,-21,11,13,5,-4
1529296550166199,2,-4,1,0,6,4,12,5
1529296550166199,7,7,6,-30,-16,-7,2,8
1529296550188500,-4,-4,2,27,-6,-2,-12,3
1529296550188500,-6,-2,-6,-5,-20,-12,-5,-15
1529296550189336,2,2,-3,26,32,9,16,6
1529296550189336,4,0,5,-18,18,0,-3,1
1529296550202305,-6,2,6,21,6,7,-8,-6
1529296550202305,-1,-2,-9,5,-18,-9,-1,-6
1529296550203298,1,-1,-4,10,9,1,5,5
1529296550203298,-1,-1,-2,-24,-1,3,-3,-4
1529296550225270,0,0,-3,20,8,-2,3,7
1529296550225270,0,-3,7,19,-12,-2,-4,-3
1529296550226374,-1,-2,-2,-19,-3,-1,-5,2
1529296550226374,-3,7,3,-28,-13,1,-2,-2
1529296550248736,-2,-5,-9,13,-1,-5,-2,2
1529296550248736,2,3,2,9,-4,-1,-2,-1
1529296550249736,-1,1,-4,-14,-2,1,3,-3
1529296550249736,0,-4,0,1,3,2,4,0
1529296550262694,1,2,9,4,-4,-3,1,1
1529296550262694,-6,-10,-11,-3,5,-3,-7,-7
1529296550263535,-3,2,16,8,-11,-4,-2,-2
1529296550263535,-2,0,13,2,-4,2,3,0
1529296550285632,2,1,-9,10,1,-1,-1,-1
1529296550285632,2,2,9,-6,8,2,2,1
1529296550286618,-2,-6,-14,-6,-4,-2,0,-3
1529296550286618,2,1,-4,-1,-5,-2,-2,-1
1529296550308806,-3,1,1,6,-5,-7,-3,-3
1529296550308806,-3,2,-8,2,8,1,2,0
1529296550309819,0,-2,-3,-6,-3,4,2,1
1529296550309819,-1,-8,-3,-6,2,-1,-3,-2
1529296550322739,-2,3,-4,8,-2,-2,-1,1
1529296550322739,-1,0,-4,0,0,0,0,-3
1529296550323572,0,0,0,-1,-2,-3,-1,2
1529296550323572,0,0,-6,-9,-1,0,-1,-1
1529296550345211,-2,-4,1,2,-5,-1,-2,0
1529296550345211,-3,-3,-2,5,2,0,-3,-5
1529296550346209,-1,-3,2,-5,-2,-3,-1,-3
1529296550346209,1,0,-3,-2,-3,-1,-1,0
1529296550368366,-3,-2,0,4,0,-1,-1,2
1529296550368366,-1,0,3,-1,1,0,-1,-1
1529296550369366,-2,0,-5,-8,-2,0,0,-2
1529296550369366,0,0,0,0,0,0,-1,-2
1529296550383517,0,-1,1,-1,-7,-3,-5,-1
1529296550383517,0,1,0,-3,-1,-1,-1,0
1529296550384325,0,-4,-3,6,4,3,3,-2
1529296550384325,-2,1,0,1,2,0,0,1
1529296550405292,0,1,1,-5,-7,-3,-1,-2
1529296550405292,0,-2,-3,2,4,0,0,-1
1529296550406287,0,-1,-5,-6,-10,-5,-3,0
1529296550406287,-1,-1,6,3,2,-1,-1,1
1529296550428210,-2,-3,-7,-1,-3,0,0,0
1529296550428210,-1,-1,-1,-7,-7,-4,-1,0
1529296550429206,-1,-1,3,1,0,-1,0,-2
1529296550429206,0,0,2,4,2,-2,-1,-2
1529296550443274,-5,-2,2,-4,0,-2,-2,0
1529296550443274,1,-1,-7,5,5,0,-2,-1
1529296550443274,-2,-1,-4,-4,1,0,-2,-1
1529296550443274,-1,-1,-5,-5,-8,-1,-2,0
1529296550465449,1,-1,4,-2,-3,-4,-1,-2
1529296550465449,-2,-1,0,2,-3,-3,1,-3
1529296550466284,3,4,2,4,3,0,2,-1
1529296550466284,-2,-1,-5,-7,-7,1,0,-2
1529296550488594,-3,-4,-4,4,4,1,2,0
1529296550488594,-3,-6,-4,-6,-3,1,-3,-3
1529296550489582,1,0,3,-3,-4,-1,-2,-2
1529296550489582,-2,-2,-3,-2,2,2,0,2
1529296550502394,-2,-3,-4,0,1,-2,-1,-1
1529296550502394,0,3,6,5,0,-5,-3,0
1529296550503393,-2,-3,-1,-3,-4,-1,-3,-2
1529296550503393,2,1,-1,-3,-1,0,0,-1
1529296550525331,1,-2,0,3,6,2,1,1
1529296550525331,-1,0,-3,0,4,1,0,-1
1529296550526327,1,5,3,3,0,-2,-3,-1
1529296550526327,0,-2,-4,-5,-7,-3,-1,-1
1529296550548425,-2,-1,-1,-1,0,0,1,0
1529296550548425,0,0,6,3,-1,-2,0,-1
1529296550549275,1,0,-3,-3,-1,-2,-1,0
1529296550549275,1,3,3,2,-1,-9,-3,1
1529296550563430,-4,-6,-9,-2,0,13,-1,-1
1529296550563430,-2,-4,-4,-10,-10,-4,-1,-1
1529296550570625,-3,-5,-1,12,11,2,-2,-1
1529296550570625,2,2,-1,0,1,-2,-2,0
1529296550585736,3,3,3,1,-5,-8,-3,-2
1529296550585736,-1,-6,-6,-2,-4,1,0,1
1529296550586668,-3,-5,-3,-9,-7,1,-2,-1
1529296550586668,-4,-3,0,-1,-2,0,-1,-4
1529296550608672,1,1,3,0,2,1,1,-1
1529296550608672,-2,0,-2,1,-2,0,-1,-1
1529296550609672,1,5,2,4,3,-2,0,0
1529296550609672,-2,-2,-4,-2,-7,-1,0,-1
1529296550622489,-4,-5,-7,-17,-13,-3,-2,-2
1529296550622489,-1,0,1,2,1,2,-1,0
1529296550630597,-2,-2,-1,5,5,1,1,0
1529296550630597,1,1,0,3,10,4,2,-2
1529296550644420,1,0,-1,-7,-13,-10,-4,-2
1529296550644420,-1,2,2,2,6,4,0,-2
1529296550660775,-2,-6,-9,-14,-15,-2,-1,-2
1529296550660775,0,0,-2,1,5,2,-1,0
1529296550668869,-2,-3,0,4,1,-2,-3,-1
1529296550668869,1,2,2,-6,-6,-7,-3,0
1529296550669827,-1,0,-2,-4,-6,-2,-2,-1
1529296550669827,-1,2,2,4,0,-3,-1,-1
1529296550681998,0,-3,-4,4,5,-1,-2,-2
1529296550681998,-1,-1,-2,5,3,-3,-1,-2
1529296550690959,-3,-3,-6,-5,-2,2,0,-1
1529296550690959,0,-2,-2,-4,-2,2,3,0
1529296550705459,0,3,2,4,2,3,-1,0
1529296550705459,-2,-4,-4,-4,-4,0,-1,-1
1529296550712347,3,2,2,0,6,-2,0,-1
1529296550712347,-2,-7,-6,-8,-10,-3,-3,-4
1529296550728271,2,4,5,10,5,4,2,0
1529296550728271,-2,-5,-5,0,-2,0,-2,-2
1529296550730251,-3,-3,-4,-9,-5,-4,-1,0
1529296550730251,-2,-1,-2,4,-1,-1,1,0
1529296550751203,1,5,5,1,2,-4,-1,0
1529296550751203,-3,-2,-2,-3,-6,-5,-4,-2
1529296550752192,-3,1,4,-3,-2,-2,0,0
1529296550752192,4,0,-1,-6,2,-8,-3,-1
1529296550765550,1,-1,-3,-1,3,14,-1,-2
1529296550765550,2,0,-1,-8,-2,-3,2,0
1529296550779676,3,5,5,16,1,1,2,1
1529296550779676,-5,-5,-2,9,9,3,-2,-2
1529296550788490,-3,-2,-2,-7,-8,-8,-1,0
1529296550788490,-2,-3,-4,6,-1,-1,-3,1
1529296550790486,0,1,0,-16,-5,-1,1,-1
1529296550790486,-4,-5,-8,-13,-9,-2,-2,-3
1529296550810471,4,0,2,9,4,-4,0,-1
1529296550810471,1,4,1,-4,-2,2,-2,0
1529296550812431,-3,-4,-3,1,-5,-4,-1,1
1529296550812431,-9,-4,-1,-2,-1,1,1,-2
1529296550825449,1,0,0,-2,3,-2,-2,-1
1529296550825449,0,2,0,1,-2,-2,-2,-2
1529296550833388,4,1,0,4,4,-2,-3,-3
1529296550833388,0,-3,-3,2,-3,-2,-1,0
1529296550848388,-4,-4,1,-1,-10,-4,-1,-3
1529296550848388,1,0,3,-4,4,-1,1,-1
1529296550850380,-3,-6,-8,0,-5,-2,-2,-2
1529296550850380,0,-2,0,2,3,0,-1,1
1529296550871289,1,1,-2,-4,-3,-2,-1,0
1529296550871289,-2,0,1,2,1,0,-1,-2
1529296550872285,-1,1,-1,-6,-3,1,-1,-2
1529296550872285,-1,0,0,-1,-3,-2,-1,-1
1529296550884305,-3,-1,-2,-1,-1,-1,-1,0
1529296550884305,-2,-1,-2,-3,-1,-1,0,0
1529296550893228,0,-3,-2,0,-1,0,1,-1
1529296550893228,2,2,2,0,0,0,-1,-2
1529296550908189,-2,-3,-2,1,2,-1,-3,-4
1529296550908189,-3,-3,-2,2,1,0,0,0
1529296550910183,4,3,1,1,3,0,0,0
1529296550910183,-4,-7,-3,-3,-5,0,1,0
1529296550938112,-3,-2,-2,-10,-7,-2,0,-1
1529296550938112,0,-1,-1,-2,0,-2,-2,-2
1529296550940104,-1,-2,1,5,0,-1,-1,-2
