timestamp,emg1,emg2,emg3,emg4,emg5,emg6,emg7,emg8
1529306029401290,-1,0,-1,-4,-4,3,1,-1
1529306029401290,-1,-2,-1,-2,1,3,0,-2
1529306029409306,-1,0,-1,-4,-4,-13,-5,-2
1529306029409306,-2,-1,-2,2,0,-2,-2,0
1529306029424286,1,-3,0,-2,-4,-3,-4,-3
1529306029424286,-3,1,-3,2,6,-2,-1,-1
1529306029431258,-1,-1,-1,-3,3,13,3,-1
1529306029431258,-1,-4,0,2,-5,-4,-1,0
1529306029446180,3,5,0,2,8,-1,0,1
1529306029446180,-3,-2,-1,0,0,1,-2,-3
1529306029454175,1,-1,2,5,5,2,0,-1
1529306029454175,-4,-8,-5,-17,-16,-9,-2,-1
1529306029469108,-2,-2,-1,5,0,-4,-2,-4
1529306029469108,-3,0,0,-2,3,4,-1,-3
1529306029484066,3,-3,-2,-8,-17,-19,-3,0
1529306029484066,7,8,2,2,9,10,3,4
1529306029491048,-4,-4,-5,-2,-11,-14,-5,-2
1529306029491048,-2,2,6,11,5,11,2,-1
1529306029506035,-2,-2,-1,-2,-6,-4,-2,-1
1529306029506035,-2,0,-4,-1,5,5,0,-2
1529306029513986,-1,-2,1,-5,-12,-5,-1,0
1529306029513986,-2,-2,-7,-2,3,-5,-1,-1
1529306029528958,-1,-3,3,2,6,7,-1,-1
1529306029528958,0,1,1,0,12,17,2,0
1529306029543908,1,3,2,6,3,17,5,2
1529306029543908,-1,0,3,8,11,3,2,-1
1529306029550888,-2,-1,-4,-6,-6,-10,-7,-2
1529306029550888,0,1,-2,-6,-12,-16,-4,-2
1529306029565849,-1,1,4,5,9,16,9,3
1529306029565849,-7,-12,-11,-9,-10,-6,-4,-4
1529306029573828,1,1,-3,-4,0,-3,-1,-1
1529306029573828,1,0,3,0,-4,-4,-4,-3
1529306029588787,1,1,-1,4,-2,-6,-1,1
1529306029588787,1,-4,-4,-10,-13,-13,-3,-1
1529306029603755,-6,-3,-1,3,9,4,-1,-2
1529306029603755,6,4,2,0,2,5,2,3
1529306029611725,-3,1,1,-3,-9,-5,-4,-4
1529306029611725,0,3,0,7,4,-9,-5,0
1529306029626685,-2,-1,0,8,12,7,0,-2
1529306029626685,0,-2,0,-10,-6,-4,-2,1
1529306029633707,-4,-4,-8,-11,-17,-15,-4,-6
1529306029633707,2,1,8,9,15,27,8,3
1529306029648627,-1,0,-4,-3,3,1,2,1
1529306029648627,-1,1,-6,-10,-8,4,0,-1
1529306029663587,0,2,4,10,0,-7,-5,-4
1529306029663587,1,-2,2,-6,-10,-1,1,-1
1529306029671613,-4,-4,-7,-15,-10,-18,-12,-6
1529306029671613,-2,0,-2,7,13,-3,1,2
1529306029686552,-1,-2,-3,-5,-10,0,-1,0
1529306029686552,-3,-5,2,4,-4,-2,-2,-1
1529306029693507,5,3,4,3,5,6,3,6
1529306029693507,-5,-5,-1,0,-8,-18,-8,-7
1529306029708466,1,0,3,7,14,13,5,1
1529306029708466,-1,-5,-6,-14,-25,-10,0,0
1529306029723428,-2,0,-4,-6,-4,-18,-7,-5
1529306029723428,2,2,2,8,10,19,7,3
1529306029731406,0,-1,0,-4,-6,1,0,1
1529306029731406,-2,-2,1,4,4,-8,-6,-2
1529306029746366,5,1,-2,-11,-9,-2,3,3
1529306029746366,-2,-1,0,11,3,2,-3,-5
1529306029753348,-2,-3,-1,-2,-1,-4,-1,1
1529306029753348,-1,-4,-2,-9,-7,1,-2,-2
1529306029769307,2,1,1,4,1,4,2,0
1529306029769307,0,1,0,-5,-3,3,1,0
1529306029783267,-2,-2,1,6,14,7,-2,0
1529306029783267,-2,-3,-4,-12,-13,-15,-7,-4
1529306029791246,-5,-3,-4,4,0,8,2,-2
1529306029791246,-3,-2,1,11,10,1,-3,-1
1529306029806206,6,3,1,-8,-7,-5,3,4
1529306029806206,-3,-1,-3,2,-2,2,1,-3
1529306029814186,-3,-2,-2,-1,2,-3,-4,-3
1529306029814186,1,-1,0,-3,-1,0,-2,0
1529306029829144,0,2,-1,1,-1,-1,1,0
1529306029829144,-5,-5,-4,3,11,7,2,-4
1529306029844104,5,6,3,0,-6,-6,-3,0
1529306029844104,-5,-11,-2,-3,5,0,-1,-2
1529306029851086,2,2,1,6,6,1,0,-1
1529306029851086,-1,-4,-4,-3,-3,-4,-3,0
1529306029866074,-1,0,2,11,9,4,0,0
1529306029866074,-3,-7,-10,-13,-6,-3,-4,-1
1529306029874025,0,0,5,6,5,-2,-2,0
1529306029874025,1,0,-4,-10,-5,-4,0,-1
1529306029888985,-2,-1,-1,-4,-4,-3,-1,-2
1529306029888985,-15,-3,0,-5,-5,-2,-3,-18
1529306029903944,10,-1,-6,-4,-3,-4,-1,12
1529306029903944,17,3,-8,8,1,-1,2,12
1529306029910926,-7,-11,-9,-18,-5,0,1,-3
1529306029910926,-11,-6,-2,8,3,-1,-5,-9
1529306029925886,-36,-5,-5,-1,-5,-6,-13,-41
1529306029925886,34,9,11,-15,-8,-3,4,31
1529306029933880,3,-20,-34,-12,-2,1,5,17
1529306029933880,6,32,59,29,6,0,4,7
1529306029948825,-13,-8,0,1,0,0,-4,-13
1529306029948825,2,-17,-51,-24,-7,-2,-3,-4
1529306029963784,14,5,26,10,2,-1,5,10
1529306029963784,20,24,25,4,0,-1,1,22
1529306029971780,-8,-3,-5,-4,-3,-2,-3,-4
1529306029971780,-7,-4,2,0,0,-1,-3,-5
1529306029986723,-5,-7,-26,-13,-9,-8,-5,-8
1529306029986723,-3,0,-6,-3,1,3,4,-4
1529306029993705,9,12,26,8,0,1,0,2
1529306029993705,8,11,17,10,2,3,3,4
1529306030008665,2,10,6,6,1,-1,-2,-4
1529306030008665,-1,-10,-8,-6,1,2,2,0
1529306030023637,6,2,-10,-6,-2,-1,-1,9
1529306030023637,-7,-1,8,5,2,-1,-1,-5
1529306030031604,4,8,9,3,-2,-5,-3,-4
1529306030031604,4,-7,-9,-5,-2,-1,1,9
1529306030046970,-6,-6,-6,-2,2,2,-2,-3
1529306030046970,-6,4,9,3,3,1,-2,-8
1529306030061820,-1,-6,-6,-1,-2,-2,-4,0
1529306030061820,7,4,-3,-7,-5,-2,2,7
1529306030076930,3,2,0,1,7,3,2,1
1529306030076930,-3,0,-10,-2,-3,1,0,-2
1529306030090993,0,-1,7,0,1,-6,-5,1
1529306030090993,3,2,2,16,21,17,7,1
1529306030099236,-2,-4,-5,-6,10,-3,-6,-5
1529306030099236,-2,-3,-5,-4,-35,-17,-3,-1
1529306030114517,0,5,5,18,13,1,1,0
1529306030114517,-2,-9,-11,-22,-4,-3,-4,-3
1529306030129161,-4,-15,-34,-59,-31,1,6,1
1529306030129161,0,-2,-1,1,-3,-8,-5,0
1529306030144080,1,3,1,8,4,5,2,1
1529306030144080,7,12,16,17,15,6,6,4
1529306030151718,0,0,7,15,6,1,-1,-1
1529306030151718,1,0,0,-1,16,5,0,0
1529306030166901,2,3,-1,3,6,4,5,1
1529306030166901,-7,-10,-4,3,3,5,-3,-6
1529306030173952,-3,-2,0,-4,-14,-12,-7,-5
1529306030173952,1,0,-11,-13,5,7,4,3
1529306030189134,-1,-2,-1,4,8,2,-1,0
1529306030189134,-2,2,16,22,-2,-7,-7,-5
1529306030204078,1,-4,-6,-17,-14,-3,1,1
1529306030204078,-2,-1,0,4,17,8,1,-2
1529306030211966,0,-5,-10,-25,-29,-13,-5,0
1529306030211966,4,9,16,36,17,7,5,3
1529306030227036,-2,-1,-9,-8,7,8,3,2
1529306030227036,-4,-10,-15,-47,-36,-16,-8,-7
1529306030234030,1,6,12,24,16,2,1,0
1529306030234030,-4,-7,-11,-7,9,9,2,0
1529306030249323,-2,0,7,12,3,-1,-1,-1
1529306030249323,1,2,-1,-7,-8,-4,-2,0
1529306030264552,-1,-3,-1,3,8,3,1,0
1529306030264552,-5,-5,-2,2,-8,-9,-8,-7
1529306030271237,2,1,-6,0,-2,4,5,4
1529306030271237,-1,-5,-1,-3,8,7,1,-1
1529306030286696,-1,-3,-3,3,1,-4,-5,-1
1529306030286696,2,4,2,-3,-8,-1,2,4
1529306030294535,-1,-1,2,-7,-11,-7,-7,-4
1529306030294535,1,4,1,8,23,16,7,4
1529306030308501,-4,-7,-4,0,0,0,-2,-5
1529306030308501,0,-5,-4,-4,-11,-6,-4,-3
1529306030316478,2,-1,-1,-2,0,-2,-2,-4
1529306030316478,-3,-4,-3,-7,-11,-9,-4,-1
1529306030331799,-3,1,-2,-1,0,3,0,0
1529306030331799,-1,-2,-1,3,10,2,1,2
1529306030339705,-2,-2,3,4,-2,2,1,-1
1529306030339705,-5,-6,-7,-5,-4,-2,-3,-3
1529306030354230,0,-4,1,6,8,3,1,1
1529306030354230,5,9,4,8,7,2,1,0
1529306030368987,-4,-4,0,4,12,7,2,0
1529306030368987,-5,-5,-5,1,1,-2,-1,-3
1529306030375933,-2,-1,-4,-6,-6,-3,-2,-1
1529306030375933,0,-4,1,0,-7,-3,-1,0
1529306030399100,0,2,1,2,-3,0,-1,-2
1529306030399100,-7,-5,-12,-15,-10,-7,-4,-9
1529306030405885,16,8,-1,-2,-3,-1,5,27
1529306030405885,-3,-15,-24,-13,-5,-2,-1,-7
1529306030422048,-6,-16,-14,-2,-4,-6,-6,-5
1529306030422048,18,6,6,2,-3,2,9,24
1529306030437060,8,-6,-39,-17,-8,-5,-4,-4
1529306030437060,-2,39,76,17,-3,-6,-3,7
1529306030444309,-1,-36,-39,-12,6,6,0,-11
1529306030444309,-53,20,50,4,-7,-8,-10,-38
1529306030459420,3,12,11,4,2,0,0,-1
1529306030459420,14,-5,-23,0,-4,-5,-4,9
1529306030474609,-9,2,-2,-1,-3,-1,-3,-6
1529306030474609,0,-7,-5,-6,-6,-7,-5,-9
1529306030488887,-12,7,15,-3,-8,-5,-3,-5
1529306030488887,10,-27,-38,-3,-2,-2,-2,10
1529306030496509,-4,13,22,1,-3,-3,-4,-11
1529306030496509,-4,-5,-22,-4,-1,0,-1,-1
1529306030511469,2,12,14,-3,-7,-8,-4,0
1529306030511469,-3,-9,-18,0,1,3,3,-3
1529306030518451,0,-7,-23,-7,-1,1,0,11
1529306030518451,5,8,31,13,1,-1,0,1
1529306030534116,0,-2,-8,-6,-5,-4,-1,0
1529306030534116,0,-5,-6,2,-1,-4,-2,4
1529306030549065,0,4,14,7,3,-2,-2,-3
1529306030549065,-4,-10,-22,-13,0,1,0,-2
1529306030556801,-2,6,12,-1,-2,8,3,1
1529306030556801,0,-3,-11,-2,-3,-7,-5,-3
1529306030571029,3,12,14,-9,-9,-4,-2,0
1529306030571029,4,-6,-3,11,16,5,1,6
1529306030579360,-5,7,10,1,-4,-5,-4,-5
1529306030579360,3,-5,-7,-2,-6,-1,0,-2
1529306030594324,-4,3,3,5,7,4,4,-3
1529306030594324,-4,-5,-12,-13,-9,-11,-9,-3
1529306030608553,-5,-5,-9,1,0,0,-1,-2
1529306030608553,2,-1,-1,-1,-2,-2,0,-1
1529306030616773,-4,-3,4,3,0,-4,-1,-6
1529306030616773,2,-4,-5,-7,-3,3,3,2
1529306030631810,0,8,6,11,12,6,0,0
1529306030631810,0,2,1,-2,-2,1,2,3
1529306030639682,1,4,0,9,12,9,3,-1
1529306030639682,3,1,0,-3,-1,-2,0,2
1529306030654492,2,5,6,-2,-7,-6,-3,-2
1529306030654492,2,1,2,3,9,8,3,3
1529306030668832,-2,-3,0,9,10,-1,-1,-3
1529306030668832,2,-2,0,-3,-8,-1,-1,3
1529306030677128,1,1,0,-1,-3,-6,-2,-2
1529306030677128,-2,-2,0,-5,1,3,0,-1
1529306030691730,-3,-2,-5,-1,-4,0,-1,-1
1529306030691730,2,2,-3,4,10,1,2,2
1529306030698950,-4,-5,0,-5,-3,-2,-1,-2
1529306030698950,0,1,0,-1,-6,-2,0,0
1529306030713910,-1,1,0,3,4,2,1,0
1529306030713910,1,-1,3,-1,7,4,0,-1
1529306030728875,-1,-2,-2,-3,-5,-2,-1,-1
1529306030728875,-1,-1,-1,1,2,1,-2,0
1529306030736849,-1,-2,0,2,0,-3,-4,-2
1529306030736849,0,2,-2,-5,-3,-4,-1,-1
1529306030751582,-1,-4,-3,1,4,-2,-2,-1
1529306030751582,-1,-4,-4,-2,2,0,-2,-2
1529306030759614,-1,-2,-1,-1,-6,-3,-1,-2
1529306030759614,-3,-2,-2,-2,-3,-2,-2,-3
1529306030773834,0,1,0,6,9,4,1,2
1529306030773834,-1,-2,-3,-4,-2,-1,0,1
1529306030789033,-3,-7,-7,-12,-13,-9,-5,-2
1529306030789033,1,3,2,2,-4,4,0,0
1529306030797075,-1,-1,-2,0,2,0,-2,-1
1529306030797075,-1,-3,1,1,-6,-4,-2,-3
1529306030811019,0,2,-2,-1,8,-1,0,1
1529306030811019,-3,-2,-2,-2,-4,-3,-4,-3
1529306030819043,-1,0,3,5,6,6,2,1
1529306030819043,-2,-3,-4,-4,-7,-5,0,-2
1529306030841950,-1,-1,1,-7,-11,-8,-3,-2
1529306030841950,1,3,1,8,12,9,2,2
1529306030855929,-2,-5,-2,-5,-3,-2,-1,-3
1529306030855929,-3,0,1,-1,-5,-4,-3,1
1529306030864132,-1,-1,-5,-5,-6,-1,-3,0
1529306030864132,0,-1,0,1,-2,-3,0,-1
1529306030887008,1,-1,-1,1,-1,-1,1,1
1529306030887008,1,2,0,3,0,2,3,0
1529306030893941,-1,-2,-2,1,4,1,0,0
1529306030893941,-2,-2,0,-7,-8,-7,-5,-3
1529306030900779,-2,-1,1,10,13,4,2,-1
1529306030900779,0,1,-2,-5,-10,-4,1,1
1529306030908812,-1,-2,-1,0,3,-2,-3,0
1529306030908812,2,2,1,1,3,8,3,3
1529306030923978,-1,0,0,0,-1,-2,-2,-2
1529306030923978,-4,-3,-2,-2,-4,-9,-4,-4
1529306030946680,-2,-4,-1,-9,-9,-10,-9,-4
1529306030946680,3,5,1,7,11,15,16,6
1529306030961506,-2,-3,-2,-6,-10,-8,-5,-4
1529306030961506,-2,-4,-2,-2,0,-2,-4,-1
1529306030969587,0,5,2,5,0,0,3,2
1529306030969587,-1,-5,-3,-2,0,-5,-7,-5
1529306030983787,-2,-4,-3,1,2,-2,-4,-1
1529306030983787,-3,0,0,0,-10,-8,-10,-4
1529306030999571,-2,-1,-1,-4,-5,0,2,-1
1529306030999571,-1,-5,-3,2,0,-5,-7,-3
1529306031013785,3,3,1,0,-1,0,6,3
1529306031013785,-5,-3,-2,0,0,-2,-7,-5
1529306031021763,-2,-3,-3,-5,-1,0,0,0
1529306031021763,-4,-2,-4,-10,-9,-8,-8,-7
1529306031036760,0,-1,1,3,7,12,5,-1
1529306031036760,1,1,0,-4,-1,-1,2,2
1529306031051685,-3,-3,0,-1,-5,-9,-8,-4
1529306031051685,0,0,0,0,-3,6,15,2
1529306031058720,-1,7,-2,-6,-11,-8,-9,-2
1529306031058720,-4,-4,3,7,7,1,1,0
1529306031073674,0,-3,-6,-6,-4,0,-2,-3
1529306031073674,0,0,-2,-1,-4,-4,-2,1
1529306031081662,-1,-3,-2,-6,-9,-6,-5,-5
1529306031081662,-1,-2,-1,0,0,-2,-1,0
1529306031096616,-1,-1,1,6,4,1,2,1
1529306031096616,1,3,1,-3,0,4,2,1
1529306031111576,0,1,-1,-4,-1,3,4,1
1529306031111576,-3,-4,-2,-1,-4,-8,-10,-5
1529306031118519,-1,-1,3,10,14,9,5,0
1529306031118519,1,4,-1,-2,-4,2,5,5
1529306031133509,-2,-4,-3,0,0,-2,-4,-3
1529306031133509,0,-1,0,-3,0,3,5,0
1529306031141476,-1,-1,-2,-2,-7,-5,-4,-2
1529306031141476,-4,0,-2,2,-1,-3,-4,-3
1529306031156456,0,1,-3,-1,-2,-1,0,0
1529306031156456,-1,-3,-2,0,-3,0,-2,-1
1529306031171411,-2,-4,-2,0,-9,-9,-6,-1
1529306031171411,1,1,0,-3,2,2,-4,0
1529306031179374,-2,-3,-5,-4,0,-3,-1,-2
1529306031179374,1,0,0,-2,-3,-2,2,0
1529306031193353,0,0,1,3,4,4,2,1
1529306031193353,1,2,1,1,-2,-1,-4,0
1529306031201292,-4,-6,-4,-1,-2,-1,1,-3
1529306031201292,-2,-1,-3,-6,-4,-4,-3,-3
1529306031216289,-1,-2,-4,-2,-7,-3,-4,-1
1529306031216289,-1,-2,-3,0,3,1,0,-1
1529306031231251,-2,-3,-3,-2,-6,-7,-9,-7
1529306031231251,-2,-2,1,0,-1,-5,-1,-2
1529306031239182,2,2,2,1,-3,0,1,0
1529306031239182,1,0,-4,-1,0,1,1,1
1529306031254187,-1,0,0,-3,-3,-1,3,-1
1529306031254187,-2,-5,-3,-1,0,0,-7,-3
1529306031261124,0,0,-1,-4,0,-4,0,0
1529306031261124,-1,-3,3,0,-2,0,-2,-2
1529306031276084,-2,0,2,-1,-3,-4,-4,-2
1529306031276084,-3,-5,-2,-4,-2,-3,-1,-2
1529306031291044,-2,-1,1,-2,-5,-6,-3,-1
1529306031291044,-3,1,-1,-1,0,0,-4,-3
1529306031299023,-2,0,1,-1,-4,-4,0,-2
1529306031299023,-3,-3,-3,5,7,0,-3,-2
1529306031313983,0,1,0,-3,-3,4,7,3
1529306031313983,-3,-6,-4,-3,-3,-6,-3,-3
1529306031320965,3,3,1,-3,3,9,1,3
1529306031320965,2,5,3,-3,-3,-1,1,1
1529306031336107,-2,-2,-2,-1,1,-3,2,0
1529306031336107,0,-1,0,3,4,2,1,-2
1529306031351248,-2,-3,-3,-2,-1,-4,-1,-2
1529306031351248,-2,-2,-1,-2,-3,-2,-1,-1
1529306031359420,-1,0,-1,-2,-1,-2,-2,-1
1529306031359420,-2,-2,-1,-3,-5,-2,-3,-2
1529306031373957,-1,-1,0,-1,-6,-11,-6,-1
1529306031373957,0,5,0,3,10,9,10,3
1529306031382001,0,-3,-2,-1,-2,-3,-2,-2
1529306031382001,-2,-1,-2,-3,0,3,-2,0
1529306031397052,-2,-5,-3,-2,1,-2,-1,-2
1529306031397052,2,0,1,-1,-2,-5,0,-1
1529306031412039,-1,1,-1,0,1,-3,0,0
1529306031412039,0,-1,-3,-2,-3,2,-2,0
1529306031418816,-2,-2,-1,-1,-2,-3,-2,-1
1529306031418816,1,0,-1,-2,-2,-2,-2,-1
1529306031433776,1,0,-1,-1,3,3,1,0
1529306031433776,1,-2,3,0,-2,-1,-3,-1
1529306031441756,1,0,2,1,0,2,1,-1
1529306031441756,0,-1,-3,0,-3,-2,-2,-2
1529306031456768,-2,2,-3,0,-2,-2,-2,0
1529306031456768,-2,-3,0,-2,-1,-2,0,-1
1529306031471997,-1,2,-1,-2,-4,-2,-1,1
1529306031471997,-1,-1,-3,-2,0,-1,-2,0
1529306031478919,-1,-2,-1,-2,0,-1,-3,-3
1529306031478919,0,0,-2,-1,-2,-3,-1,0
1529306031493620,0,-2,-1,-2,-1,0,-1,-1
1529306031493620,2,1,0,0,-1,0,-1,0
1529306031500887,0,-3,0,-1,-2,1,0,0
1529306031500887,-1,-1,1,-2,-1,0,-3,-1
1529306031517085,0,-1,-1,-2,-2,-1,-1,-1
1529306031517085,-1,1,1,-2,-3,-2,0,0
1529306031531353,-2,-6,-3,0,1,-1,0,-3
1529306031531353,0,-2,-1,-2,-1,-2,-2,-1
1529306031539355,-3,-1,-3,0,-1,-3,1,-2
1529306031539355,-2,0,-3,-1,0,0,-1,-3
1529306031554765,0,1,0,1,0,1,0,-2
1529306031554765,-2,-5,-3,-2,-1,-1,0,-3
1529306031576192,-1,2,2,-1,1,1,-2,1
