timestamp,emg1,emg2,emg3,emg4,emg5,emg6,emg7,emg8
1528881004703232,1,0,0,0,0,-1,-1,-1
1528881004703232,0,-2,-2,0,1,-1,0,-2
1528881004710214,0,-2,0,-3,-2,-2,0,0
1528881004710214,0,-1,-1,-1,-2,0,0,0
1528881004718192,-1,0,0,0,0,0,0,0
1528881004718192,-1,-1,-2,0,-3,1,-2,0
1528881004725174,-1,0,0,0,-1,-1,-2,1
1528881004725174,-1,0,0,-1,0,-1,-2,-2
1528881004736145,-1,1,-2,-2,-1,-1,-1,-2
1528881004736145,-1,1,-1,-1,0,-2,0,-2
1528881004748113,1,0,-1,-1,0,1,-2,-2
1528881004748113,-1,-1,-1,1,-2,0,-1,-1
1528881004756091,1,-1,0,-2,-1,1,0,0
1528881004756091,1,0,1,0,-1,-1,0,-1
1528881004778032,0,-1,0,1,0,0,-1,-2
1528881004778032,1,0,-1,-1,-1,-2,1,-1
1528881004788005,-1,1,-1,-2,-1,-3,-1,0
1528881004788005,-1,0,1,-1,-1,-1,0,0
1528881004799973,-1,1,0,-1,0,0,1,-1
1528881004799973,-1,-1,-1,-1,0,0,0,-1
1528881004807952,1,-2,-2,-1,-1,0,-2,0
1528881004807952,-1,0,0,-2,0,-1,-1,0
1528881004822913,0,-2,-1,1,-1,-1,0,-3
1528881004822913,-2,-1,0,-1,0,0,-2,-1
1528881004840864,-1,0,-1,1,0,-1,0,0
1528881004840864,-2,1,-2,0,-2,0,0,0
1528881004845851,1,-1,-1,1,-2,-1,0,0
1528881004845851,-1,0,-2,0,-1,-3,0,-1
1528881004860810,-3,1,-2,-1,-2,-1,0,0
1528881004860810,0,0,-3,-2,0,0,-1,0
1528881004875771,-1,-1,0,1,-1,0,0,0
1528881004875771,0,1,-1,-2,0,-2,-2,1
1528881004882753,-1,-1,2,0,-2,-1,-1,-2
1528881004882753,1,-2,0,-2,-1,1,0,0
1528881004897713,-2,1,-2,-2,0,1,-1,-1
1528881004897713,-1,0,0,1,0,0,-1,-2
1528881004905690,-2,-1,-1,1,1,0,-3,-1
1528881004905690,-1,-1,-1,-1,-1,-2,0,-1
1528881004920650,0,-1,-1,-2,-1,-1,0,0
1528881004920650,-2,-1,0,-1,0,-1,0,1
1528881004935611,0,-1,-1,0,-1,1,-2,-2
1528881004935611,-1,-1,-1,-1,0,-2,0,1
1528881004945584,-1,0,-1,0,0,0,-1,-1
1528881004945584,0,-1,-1,1,0,0,0,0
1528881004957554,-2,0,-1,-1,0,-1,-2,-2
1528881004957554,-2,-1,-1,-1,-1,1,-1,-1
1528881004965531,0,0,-2,-1,0,0,-1,1
1528881004965531,1,-3,1,-1,0,-1,-2,0
1528881004980537,0,-1,0,0,-2,0,0,0
1528881004980537,-2,-1,0,1,0,-1,1,0
1528881005010411,-1,-1,0,-1,-2,1,0,1
1528881005010411,1,0,-2,-1,-1,0,-1,-2
1528881005017393,1,-1,-2,0,0,-1,-2,-1
1528881005017393,-2,0,0,0,1,-1,0,-2
1528881005025371,-1,-1,-1,-2,-2,0,-1,-2
1528881005025371,0,-4,0,-1,-1,0,-1,0
1528881005032353,1,2,0,0,0,-1,0,1
1528881005032353,1,0,1,1,-1,0,0,-1
1528881005040331,0,0,-1,-2,-1,0,-1,0
1528881005040331,0,1,-1,0,-1,-3,0,-1
1528881005055327,0,-1,0,0,-3,-1,-1,-3
1528881005055327,0,0,-1,-1,0,-1,-1,0
1528881005063291,-1,0,0,0,-1,-1,0,-1
1528881005063291,-1,-1,0,-1,0,-1,-3,-1
1528881005078229,-2,-2,0,-2,-1,1,-2,0
1528881005078229,0,0,-2,-1,-1,-1,0,-1
1528881005085210,1,-1,0,-2,0,-2,0,0
1528881005085210,-1,0,-1,0,-1,0,0,0
1528881005100171,0,1,0,2,-1,0,-1,-1
1528881005100171,0,-1,0,0,0,-1,0,1
1528881005115133,-3,-1,0,-1,0,0,1,1
1528881005115133,0,1,-1,1,-2,0,-1,0
1528881005123111,0,-2,-1,-2,0,-1,-1,-1
1528881005123111,1,0,-1,0,0,-1,-2,-1
1528881005138096,-1,-1,-1,0,-2,-2,0,0
1528881005138096,-1,0,-1,-2,-1,1,0,0
1528881005145090,0,-1,-1,0,0,0,-1,-1
1528881005145090,0,-1,0,-1,-2,2,0,-1
1528881005160011,-1,0,0,-1,0,-2,-1,-3
1528881005160011,0,-1,1,1,-1,-1,-1,-1
1528881005175024,0,-1,-1,-1,-1,-3,0,-1
1528881005175024,0,-1,-1,-1,-1,-1,0,-1
1528881005182950,-2,0,0,-2,-1,-1,3,0
1528881005182950,-2,-1,-2,-2,-1,-1,1,-1
1528881005197966,0,-1,-2,-1,0,3,-1,-1
1528881005197966,0,-3,-1,1,-1,0,-1,1
1528881005204943,1,-1,0,0,0,-1,0,0
1528881005204943,-1,1,-1,-2,0,-1,0,-2
1528881005219851,0,-1,-1,0,0,-1,0,1
1528881005219851,-1,-1,0,0,-1,0,-1,0
1528881005235809,1,-2,-1,-1,-1,0,-2,0
1528881005235809,0,0,2,0,1,-1,-2,0
1528881005242790,1,-2,-1,-1,-1,-1,-1,-1
1528881005242790,0,-2,-1,0,0,-1,1,1
1528881005257750,-1,0,1,-1,-2,0,-3,0
1528881005257750,-1,-1,-2,0,-1,-1,-1,0
1528881005265729,-1,0,-1,-1,1,-1,-2,0
1528881005265729,1,0,0,-1,1,0,0,0
1528881005280689,-1,-2,-1,0,-1,0,-2,-3
1528881005280689,0,0,-2,0,-1,-2,-1,-1
1528881005295649,1,0,1,-1,0,-2,-1,-2
1528881005295649,0,0,0,-1,-1,0,0,0
1528881005302630,-2,-2,-2,1,0,0,-1,-1
1528881005302630,0,-1,1,-1,0,-2,-1,-1
1528881005317590,-1,0,-1,-1,-1,0,-2,-1
1528881005317590,0,-2,1,0,-2,-1,-3,0
1528881005325568,-1,0,2,-1,-1,-2,1,1
1528881005325568,-2,-1,0,-1,-1,0,-1,0
1528881005340529,-1,0,-1,-1,-2,-1,-3,0
1528881005340529,-1,-1,-3,0,1,0,0,-1
1528881005355489,-1,-2,-2,-1,0,-1,-1,-1
1528881005355489,-1,-1,-2,-2,-1,-1,0,1
1528881005362477,1,0,0,-1,-1,-2,-1,0
1528881005362477,1,-1,0,0,-2,0,-1,0
1528881005377430,-2,-1,-1,-1,-1,-3,-1,-1
1528881005377430,-1,-1,0,-2,0,-3,-1,-1
1528881005385409,0,-2,-3,-1,0,-1,0,-2
1528881005385409,0,2,1,-2,-1,0,-1,0
1528881005400426,0,0,-2,-1,-1,0,-1,-1
1528881005400426,-1,-2,-3,-1,-1,0,-2,-1
1528881005415329,-1,-2,-1,-1,0,0,1,-1
1528881005415329,1,0,-1,-1,-1,2,-1,-1
1528881005422335,0,-1,0,0,0,1,-1,-1
1528881005422335,-1,0,-1,-1,-2,-2,-2,0
1528881005438274,-1,-1,0,-1,0,0,0,-1
1528881005438274,-2,0,-2,-2,-1,-2,-2,-1
1528881005445249,-1,0,-1,-1,-1,0,0,0
1528881005445249,-1,-1,-2,0,0,1,1,-1
1528881005460243,0,0,-2,1,-1,0,-1,1
1528881005460243,-1,-2,-1,-1,-1,-1,-2,0
1528881005475217,0,0,-4,1,-2,-1,1,-1
1528881005475217,-1,-1,-2,1,-1,0,0,-2
1528881005483149,-1,0,-2,-2,-1,0,0,-1
1528881005483149,0,-1,0,-1,-1,-1,0,-1
1528881005498146,-2,0,0,1,0,0,-1,1
1528881005498146,-3,-2,-1,0,-1,-2,0,0
1528881005505089,-1,0,-1,0,-1,-1,1,-1
1528881005505089,0,0,0,-3,0,-1,-1,0
1528881005520073,-1,0,0,-1,-1,0,0,1
1528881005520073,0,0,0,0,0,-1,-1,0
1528881005535011,1,1,-2,-3,-2,-3,0,1
1528881005535011,0,1,0,0,-2,-2,1,1
1528881005543551,-2,-2,-1,-1,0,-2,0,1
1528881005543551,-1,-1,-1,-2,-1,-1,1,-1
1528881005558534,-1,0,-2,-3,-1,-1,-1,0
1528881005558534,-1,-1,0,-2,0,-1,1,0
1528881005565264,-1,-2,-1,-3,0,2,-2,-2
1528881005565264,-2,0,0,0,-2,0,1,-1
1528881005580696,-2,0,-2,0,0,-2,0,0
1528881005580696,1,0,-1,0,-1,-1,-2,-1
1528881005588431,-1,-2,1,1,0,0,-1,-1
1528881005588431,1,-1,0,0,0,0,-2,0
1528881005595669,1,1,1,0,-1,0,0,1
1528881005595669,-1,-1,0,-1,0,0,-1,-1
1528881005602800,-1,0,0,-2,0,-1,-1,0
1528881005602800,-1,-1,-2,-1,0,0,-1,-1
1528881005618023,-1,-1,-1,0,-2,-1,-2,-1
1528881005618023,1,0,0,-1,-1,1,-1,-1
1528881005626098,0,0,-2,-1,0,0,-2,-2
1528881005626098,-2,-1,1,-1,0,-1,0,-1
1528881005639931,0,-2,1,-1,-1,-1,0,-2
1528881005639931,0,0,-3,-1,-1,1,-1,0
1528881005647928,0,0,0,1,-1,-1,0,-1
1528881005647928,-1,-1,0,-1,-2,-1,-1,-1
1528881005654892,-1,-1,-1,0,0,0,-1,0
1528881005654892,-1,-2,-1,-2,-1,-1,-1,-1
1528881005662925,0,0,0,-1,1,-2,0,-1
1528881005662925,-1,-1,-2,0,-4,-2,-1,0
1528881005678148,0,-3,-1,-2,-1,0,-2,-1
1528881005678148,-1,-2,0,1,0,-2,0,-1
1528881005686177,-1,0,-1,0,-2,-1,-2,1
1528881005686177,-2,-1,-1,-1,0,0,0,-1
1528881005693054,0,0,-1,-1,0,-3,-1,-2
1528881005693054,-1,-2,-1,-2,-1,-1,-2,-1
1528881005700768,3,-1,-1,-1,-1,-3,0,1
1528881005700768,1,-1,-2,1,-1,-2,0,-1
1528881005715318,-1,-1,-3,1,0,0,0,0
1528881005715318,0,-1,-2,-3,0,-1,-1,0
1528881005723278,0,-1,0,-1,-2,0,1,-1
1528881005723278,0,0,-2,0,-1,0,-1,-1
1528881005738319,1,-1,0,0,0,-1,-2,0
1528881005738319,-1,1,-1,0,0,-2,-1,-1
1528881005745325,-2,0,0,0,-2,0,0,-1
1528881005745325,0,0,-1,-2,0,0,-2,-2
1528881005753303,-4,0,0,1,0,-1,0,0
1528881005753303,-2,0,-1,-3,-1,0,0,-1
1528881005760232,0,0,-3,-1,0,-1,-1,1
1528881005760232,1,-1,-1,0,-1,-2,0,-2
1528881005775991,-1,1,1,0,-1,1,-2,0
1528881005775991,-1,0,0,1,0,-1,0,-2
1528881005782658,-1,-1,0,-2,0,-1,0,-1
1528881005782658,-1,-1,-1,0,0,0,1,0
1528881005797945,0,-1,0,1,-1,0,2,-1
1528881005797945,0,-1,0,-1,0,0,-2,-1
1528881005805908,0,0,0,0,0,0,-2,1
1528881005805908,-2,0,-1,1,-1,-1,-1,0
1528881005813585,0,-1,0,-1,-2,-1,0,0
1528881005813585,-2,0,-1,1,0,0,-1,-1
1528881005820810,-1,0,0,-1,-1,-1,0,-1
1528881005820810,-1,-1,-1,-1,1,-1,0,-1
1528881005835526,-1,-1,-1,-3,1,0,0,0
1528881005835526,-1,-1,-2,-1,0,-1,1,1
1528881005843699,0,0,-2,0,-1,-1,-2,-1
1528881005843699,-1,-2,0,-2,-1,1,0,-1
1528881005857461,-2,0,1,-1,-2,-3,0,-3
1528881005857461,1,-1,-1,0,-1,-2,-1,-1
1528881005865714,-1,0,1,-2,-1,-1,-1,-1
1528881005865714,0,1,0,-1,-1,-1,-1,1
1528881005872940,-1,0,-1,0,-1,-3,-1,1
1528881005872940,0,-1,0,0,0,-1,-2,0
1528881005880919,-2,1,-2,-1,-1,1,-1,-2
1528881005880919,-2,1,0,-2,0,1,-1,-1
1528881005896080,0,0,-1,-1,-1,-1,-1,-1
1528881005896080,0,0,0,1,-3,-1,0,1
1528881005903133,0,0,-1,-3,1,0,0,-1
1528881005903133,-1,0,-1,0,1,-2,-1,-1
1528881005918137,1,-2,-2,0,0,1,1,0
1528881005918137,-2,0,-1,-1,0,-1,1,0
1528881005925376,0,-3,0,0,0,-2,0,1
1528881005925376,0,-2,0,-1,-1,-3,-1,0
1528881005933121,0,-2,-1,0,0,-2,0,-1
1528881005933121,0,0,1,0,0,-1,-2,0
1528881005940081,0,-1,0,1,0,0,-2,0
1528881005940081,0,2,0,0,-1,0,0,0
1528881005955038,0,2,-1,-1,1,-1,-2,-1
1528881005955038,0,-1,-1,-2,-1,0,1,0
1528881005963020,0,-2,-1,-3,1,0,0,0
1528881005963020,0,-1,-1,-2,0,-1,-1,1
1528881005978195,0,0,0,0,-1,0,0,0
1528881005978195,-1,0,0,-1,0,-2,-1,1
1528881005986008,0,0,-1,-1,-1,-1,-1,-2
1528881005986008,1,0,0,0,0,-2,-2,-1
1528881005992963,-1,-1,0,0,1,0,-1,-1
1528881005992963,-2,0,-1,-1,1,1,0,-1
1528881005999917,-1,-1,-1,-1,-2,-2,-1,-1
1528881005999917,-1,0,0,-1,-2,1,1,0
1528881006014879,-1,-1,1,-1,-2,0,-1,0
1528881006014879,-1,0,-1,0,-2,0,-1,-2
1528881006022894,-1,-2,-1,2,-1,0,-1,0
1528881006022894,-1,0,0,-1,-1,0,-1,0
1528881006037816,-1,0,0,-1,-1,-1,1,-2
1528881006037816,-2,0,-2,-1,-1,-2,-1,0
1528881006045795,1,-1,0,0,-1,-2,-1,-1
1528881006045795,0,-1,-4,0,-1,-2,0,0
1528881006052776,0,-1,-2,0,-1,0,0,1
1528881006052776,-1,-1,-1,-2,-1,1,-1,-1
1528881006060771,-2,-3,-1,-2,-1,0,1,-1
1528881006060771,1,1,-1,-1,1,-1,-2,0
1528881006075715,0,-1,0,-1,-1,0,-2,0
1528881006075715,2,0,-1,-1,-1,0,1,0
1528881006082697,-1,0,-1,-1,-1,-1,0,-1
1528881006082697,0,-1,0,0,0,0,1,-1
1528881006097657,-2,0,0,0,0,0,0,-1
1528881006097657,0,-1,-1,-1,0,-1,-1,-1
1528881006105654,-1,-1,0,-1,0,-1,-1,0
1528881006105654,-2,1,0,-1,0,-2,-1,-1
1528881006112627,-1,0,-1,0,-2,0,-1,1
1528881006112627,-2,0,-1,-1,1,0,0,-2
1528881006120630,0,1,-1,-1,-1,-2,-1,-1
1528881006120630,0,-2,0,0,0,0,1,0
1528881006135614,-1,-1,-1,0,0,-1,0,1
1528881006135614,-1,-2,0,0,-1,-2,-1,-1
1528881006142591,-1,-1,-2,0,0,0,0,-2
1528881006142591,0,-1,-1,0,0,0,-1,1
1528881006157549,0,-1,0,-1,-1,-2,0,1
1528881006157549,0,-1,1,-2,1,0,-1,0
1528881006165481,-1,0,1,-1,0,0,0,-1
1528881006165481,-1,0,-1,-1,-2,-1,0,-1
1528881006172512,0,-2,-1,-1,0,-1,0,-1
1528881006172512,-1,-1,-1,1,-2,-1,-1,0
1528881006180488,0,-1,-1,-1,-2,-1,0,-1
1528881006180488,-2,1,-1,-1,-2,0,-2,-2
1528881006195450,-1,1,-2,0,0,-1,-1,-2
1528881006195450,0,-1,-1,0,-1,0,-1,-1
1528881006202382,0,0,-1,0,0,2,-2,0
1528881006202382,0,-1,-1,0,-1,-2,1,0
1528881006218378,0,0,0,0,0,-1,0,0
1528881006218378,0,1,-1,-1,0,0,-1,1
1528881006225375,0,1,0,-2,-1,-1,-2,0
1528881006225375,0,-2,-2,0,1,0,-2,-1
1528881006233347,0,1,-1,-1,0,-1,-1,-1
1528881006233347,-1,-1,-1,0,0,1,2,1
1528881006240328,0,0,-1,1,0,-1,-1,0
1528881006240328,0,-2,0,-1,-2,0,-2,-2
1528881006255289,0,-1,-2,-1,-3,-1,-1,-2
1528881006255289,0,0,-1,0,-1,-2,0,-1
1528881006263214,-1,-1,-1,0,-2,-1,1,0
1528881006263214,-1,0,-2,-1,0,-1,1,-2
1528881006278174,-2,0,-1,-1,-1,-1,0,0
1528881006278174,1,-1,1,-2,0,-1,0,-1
1528881006293134,-1,-1,0,0,-1,-2,-2,-2
1528881006293134,0,-1,-1,1,-3,0,-1,-1
1528881006300115,-1,-1,0,-2,0,0,-1,0
1528881006300115,1,-1,-1,-3,0,0,-2,0
1528881006315075,-1,-1,-1,1,2,0,-1,-2
1528881006315075,-1,-1,-2,1,-1,-2,-2,-1
1528881006330900,0,-1,-2,1,-2,0,-1,0
1528881006330900,-2,0,-1,-1,0,0,1,0
1528881006337633,0,-1,-1,-2,-2,-1,1,1
1528881006337633,-3,1,-1,0,-1,0,-2,0
1528881006352592,1,-4,-2,-1,0,1,0,0
1528881006352592,-1,0,0,-1,-2,-1,0,0
1528881006360806,-1,0,-2,-1,-1,-3,2,0
1528881006360806,-1,0,-2,0,-1,-1,0,0
1528881006375790,-1,-1,0,-1,-1,0,0,-1
1528881006375790,0,1,1,1,0,-3,-1,0
1528881006390492,0,0,1,-2,-1,-2,0,0
1528881006390492,-1,-2,-2,-2,-1,-1,0,0
1528881006398727,-1,-1,-2,0,-1,2,-1,-2
1528881006398727,0,-1,0,-2,-1,1,-2,0
1528881006413600,-1,-1,-2,0,0,0,0,-1
1528881006413600,0,0,0,0,0,-2,-2,0
1528881006420655,1,0,1,0,0,1,-2,0
1528881006420655,0,-1,-1,-2,-1,0,0,-2
1528881006435606,0,-1,0,0,-1,-1,-1,-1
1528881006435606,-2,-1,-1,0,-1,-2,-1,-2
1528881006450604,-1,-1,-1,-2,-1,1,-1,-1
1528881006450604,0,0,0,-1,-2,-1,-2,-1
1528881006458130,0,1,-2,0,0,-2,0,0
1528881006458130,1,-2,-2,-1,-3,-1,-2,0
1528881006473574,-1,1,0,-1,-1,-2,0,0
1528881006473574,-2,-1,0,0,0,0,-1,-1
1528881006480578,2,-2,-1,-2,0,1,-2,0
1528881006480578,0,-2,0,-1,-1,0,-1,1
1528881006495658,-1,-3,-1,-1,-1,0,0,0
1528881006495658,-1,0,0,-1,-1,-1,0,0
1528881006510251,0,-2,-2,0,0,-1,1,1
1528881006510251,1,-2,-1,0,-1,0,0,-1
1528881006518481,-2,-2,0,-1,-2,-1,-2,-2
1528881006518481,-1,-1,0,0,1,-1,-1,-1
1528881006533189,-2,-2,0,-1,1,1,-1,0
1528881006533189,0,-1,-2,-1,-2,-1,-2,0
1528881006541244,0,2,0,0,1,-2,0,0
1528881006541244,-1,-2,-2,0,0,-1,0,-1
1528881006555170,-1,-1,-1,0,-1,-1,-1,-1
1528881006555170,-1,0,-1,-1,1,1,1,1
1528881006570131,-1,-1,0,1,-1,-1,1,0
1528881006570131,1,1,0,-2,-2,-2,0,0
1528881006578337,0,0,0,0,-1,0,0,-1
1528881006578337,-1,-2,0,0,-1,0,-1,0
1528881006593360,-3,1,-1,-1,-1,-2,-1,0
1528881006593360,1,-1,0,-2,-1,0,1,-1
1528881006600387,0,-1,0,-1,-1,-2,-2,-1
1528881006600387,0,-1,0,-1,0,0,1,-2
1528881006615354,-2,1,-1,0,-1,-1,0,-1
1528881006615354,0,1,-1,-2,0,-3,-3,-2
1528881006630908,0,-2,-1,-3,-2,-1,-1,-1
1528881006630908,0,-1,0,0,0,-1,0,-1
1528881006638581,-1,-1,-3,-1,-2,-1,2,0
1528881006638581,-1,-1,0,0,-1,-1,-1,-2
1528881006652883,-1,0,-1,-1,-1,-3,-1,0
1528881006652883,-1,-1,0,1,-1,0,-1,-1
1528881006661051,1,0,-1,-1,1,0,-1,-1
1528881006661051,0,-1,-1,0,-1,1,0,0
1528881006675813,-1,-1,-1,-1,-1,2,0,0
1528881006675813,-1,-1,-2,-1,-1,-1,-1,-1
1528881006691013,-1,1,-1,-1,0,0,1,0
1528881006691013,1,0,-1,0,-1,-1,-1,0
1528881006697986,0,-1,-1,0,-2,-2,-1,-1
1528881006697986,-1,1,-1,-2,-2,0,0,-1
1528881006712948,0,0,-1,0,-1,-1,0,-2
1528881006712948,-2,-1,-1,0,-1,0,0,-2
1528881006720825,-1,-1,0,0,-1,-1,0,0
1528881006720825,-1,-1,-2,0,0,-2,-1,-1
1528881006735883,0,-2,-2,0,-1,-2,0,0
1528881006735883,-1,-1,0,0,-1,-1,-1,-1
1528881006758208,-1,-2,0,-1,1,0,-2,1
1528881006758208,-2,0,-1,2,-1,-2,-2,-1
1528881006765365,-1,-1,-2,0,0,0,-1,-2
1528881006765365,-1,-1,0,-2,-1,-2,1,-2
1528881006780512,2,-3,-1,-1,0,-1,-1,-1
1528881006780512,0,0,1,-1,-1,-1,-1,0
1528881006788229,-2,-1,0,0,0,-2,0,0
1528881006788229,0,-1,0,-1,-1,1,2,0
1528881006795471,0,0,0,-1,-1,-2,1,0
1528881006795471,-1,-2,-1,-2,-1,0,-3,1
1528881006810736,-1,0,-1,-1,0,1,-2,1
1528881006810736,-2,1,-1,-1,0,0,1,0
1528881006818576,0,-1,-1,-2,0,1,0,-1
1528881006818576,1,-1,-2,1,-2,-1,-1,0
1528881006833602,-1,-1,1,1,-1,-1,-2,0
1528881006833602,-2,-1,-1,-2,1,0,0,0
1528881006840657,1,-1,-1,0,-1,0,-1,-1
1528881006840657,-1,0,-1,-2,-1,-1,0,-1
1528881006854924,-1,0,1,-2,2,-1,1,0
1528881006854924,-1,1,-2,0,-1,0,-1,0
1528881006869906,-2,-1,-2,0,-1,-1,-1,-1
1528881006869906,-1,-1,-3,-2,-1,-2,1,0
1528881006878115,0,0,-2,0,-1,1,-1,-2
1528881006878115,-1,-1,-1,1,1,-1,-1,-2
1528881006893073,2,-2,0,-1,0,-1,-2,-1
1528881006893073,1,-1,0,0,0,-1,2,0
1528881006900800,-1,0,0,0,-1,-1,-2,-1
1528881006900800,-1,0,-1,-1,-2,1,0,-1
1528881006915253,0,0,-2,-1,0,-2,0,-1
1528881006915253,-1,0,1,0,-1,-1,-1,0
1528881006931201,1,0,0,-1,-1,0,2,-1
1528881006931201,0,0,-2,-1,1,-1,-1,-1
1528881006946050,0,-2,-1,-2,-2,-1,1,1
1528881006946050,-1,0,0,-1,0,0,-1,0
1528881006961017,0,0,-1,0,-2,-1,-3,-2
1528881006961017,-1,-1,1,0,0,1,-1,-1
1528881006968165,-1,0,0,1,-2,-1,-1,1
1528881006968165,1,-2,-1,-2,1,-1,0,-2
1528881006982893,0,0,0,-1,-2,-1,-2,-1
1528881006982893,-2,0,0,0,-1,-1,0,0
1528881006998093,-1,-1,0,-2,0,-1,0,-2
1528881006998093,1,-1,-1,1,-1,-1,0,0
1528881007013051,1,-2,-2,-1,-1,0,1,1
1528881007013051,0,-1,-1,-1,-2,-1,-1,-1
1528881007021065,0,1,-2,1,0,1,-2,0
1528881007021065,-1,1,-1,0,0,0,-1,-1
1528881007035376,-2,0,0,0,-2,-1,-2,0
1528881007035376,0,-2,0,1,0,0,-2,1
1528881007050541,-2,1,-1,1,-1,1,-1,-1
1528881007050541,0,-1,0,0,-2,0,1,-2
1528881007058260,-1,-1,0,-1,0,-1,-2,-1
1528881007058260,-1,-1,-1,-2,-1,-1,0,0
1528881007073251,0,-1,-1,0,0,-1,-1,0
1528881007073251,-1,1,-2,0,1,-2,0,0
1528881007080249,-2,-2,0,-1,-2,-1,1,-1
1528881007080249,1,-2,0,0,-1,-1,-1,-2
1528881007095214,0,0,-1,0,0,-2,-2,-2
1528881007095214,0,-1,-3,-2,-3,0,-1,0
1528881007110154,-1,0,-3,1,0,0,0,0
1528881007110154,0,-1,0,0,0,0,-1,-1
1528881007118100,1,-1,-1,-2,0,0,0,-2
1528881007118100,-1,0,0,-1,-1,0,0,0
1528881007133398,0,-1,-1,-2,0,-1,-2,0
1528881007133398,-2,1,0,1,-2,-2,0,-1
1528881007140375,0,-1,-1,-1,-1,0,0,1
1528881007140375,0,-1,0,-1,1,-1,-1,-1
1528881007155609,0,-2,-1,-1,0,0,-1,-2
1528881007155609,-1,-1,-1,0,0,-2,-1,-2
1528881007170832,-1,-4,-1,-1,0,-1,0,0
1528881007170832,1,-1,-1,-2,-1,1,-2,0
1528881007178122,0,1,-1,0,-1,-2,0,-1
1528881007178122,-1,-2,0,-1,0,0,0,-2
1528881007192813,-2,-1,0,-3,-3,-1,-1,-1
1528881007192813,-1,0,0,1,-1,-1,-1,0
1528881007199795,-1,0,-2,0,0,-1,-2,0
1528881007199795,0,-1,0,-1,-1,-1,1,0
1528881007215776,-1,1,-2,0,-10,-2,-2,-1
1528881007215776,-1,0,0,1,12,1,0,0
1528881007230972,-1,-2,-3,-5,-11,-3,-1,-2
1528881007230972,1,-1,1,-1,-3,-1,-3,0
1528881007237954,-1,0,-1,-1,1,0,-2,-1
1528881007237954,0,1,-1,-1,-2,-1,-1,1
1528881007252941,-1,1,-1,-1,2,-1,0,0
1528881007252941,-2,-1,-1,-1,-1,-1,-1,-1
1528881007260661,-1,-1,-1,-2,1,0,0,-2
1528881007260661,0,-3,-1,-1,-4,-1,-2,0
1528881007275620,-2,-2,0,1,3,1,0,1
1528881007275620,0,-1,-3,-1,-3,-1,-2,0
1528881007290872,0,0,1,2,0,0,-3,0
1528881007290872,-1,0,-2,-1,0,0,0,-1
1528881007297821,-1,-1,0,0,-1,-1,0,0
1528881007297821,-1,-1,-1,-2,-3,1,0,0
1528881007312568,-1,-2,0,1,0,-1,-1,0
1528881007312568,-2,-1,-1,1,-1,-1,-1,-1
1528881007320549,1,0,0,0,1,0,-1,0
1528881007320549,-1,0,-2,-2,-2,-2,-1,0
1528881007335516,0,0,0,1,0,0,1,-1
1528881007335516,0,0,-1,0,0,-1,0,0
1528881007350692,0,-2,1,0,1,0,0,0
1528881007350692,0,0,-1,-1,-3,-1,-1,-1
1528881007358478,0,0,2,0,3,-1,-2,0
1528881007358478,-1,0,0,-1,2,-1,0,-1
1528881007373407,-1,0,-2,0,-12,0,0,1
1528881007373407,-2,-1,0,-1,-6,-3,-2,-2
1528881007380701,-1,-1,-1,-3,32,3,0,-2
1528881007380701,0,-1,1,3,-5,1,0,0
1528881007395662,-2,0,0,-2,-15,-8,-2,-1
1528881007395662,-1,0,0,-2,4,-1,1,-1
1528881007411184,-1,0,1,2,0,-1,1,0
1528881007411184,-1,-2,-6,-13,0,-2,1,0
1528881007418157,1,-1,-1,-1,-2,0,-1,0
1528881007418157,0,-1,-2,-3,1,1,-1,-2
1528881007433238,-2,-1,1,9,-7,0,0,-2
1528881007433238,-1,1,-3,-13,-12,-4,0,-1
1528881007440360,2,1,-1,-2,27,-3,-1,-1
1528881007440360,-2,-2,-2,3,-17,-9,-4,-3
1528881007456193,-2,-1,0,-1,-7,2,2,-1
1528881007456193,4,5,2,-6,8,5,1,1
1528881007470866,2,4,16,15,-8,5,0,3
1528881007470866,0,-1,-1,-3,12,-5,0,1
1528881007478129,-4,-6,-8,-11,-14,0,-1,-3
1528881007478129,-1,-3,-6,-2,3,3,-2,-3
1528881007493197,0,0,-3,5,-2,-1,-2,-1
1528881007493197,-1,0,0,-5,4,6,-1,-1
1528881007500423,1,-1,-1,2,-3,0,-3,1
1528881007500423,6,-3,-4,-2,-2,-1,0,1
1528881007515382,-1,3,5,3,52,1,14,6
1528881007515382,0,0,-1,-5,-47,-7,-13,-9
1528881007530599,-1,-7,-9,0,4,-8,-6,-3
1528881007530599,-3,-1,-1,5,15,1,2,-1
1528881007537587,1,9,2,3,-20,-5,-5,-2
1528881007537587,-1,-2,2,-6,4,-9,2,1
1528881007552883,5,1,-2,-5,-1,3,4,0
1528881007552883,0,-4,-2,2,-2,3,0,0
1528881007560849,1,-2,2,5,-8,4,1,1
1528881007560849,-2,1,1,1,12,7,1,1
1528881007575800,-2,-2,1,-2,4,5,-6,-10
1528881007575800,-1,-2,-3,-3,-9,-4,-1,2
1528881007590766,1,-2,0,1,1,7,-3,-5
1528881007590766,8,3,3,3,4,2,4,2
1528881007598563,-5,-3,-1,0,11,-7,-1,3
1528881007598563,-6,-2,0,4,3,3,-1,4
1528881007613467,7,6,1,-4,-13,3,3,-1
1528881007613467,-1,-3,-4,-7,-2,-10,-4,-5
1528881007620336,2,2,-2,0,-14,12,-1,-2
1528881007620336,-1,-5,-1,0,18,0,1,1
1528881007636102,2,1,2,3,-14,7,4,5
1528881007636102,-3,-1,-4,-3,17,-3,0,-2
1528881007650548,-1,3,-1,-4,-26,-8,-3,-1
1528881007650548,0,0,0,3,16,11,-2,-4
1528881007658617,0,0,1,-3,-20,-6,-1,2
1528881007658617,-3,-2,-2,3,9,-8,-2,-3
1528881007673602,-1,0,-2,5,12,0,-2,-4
1528881007673602,0,-1,1,0,27,-3,-2,-4
1528881007681073,-1,-4,-4,-8,-29,-16,-5,-1
1528881007681073,1,2,4,0,-10,5,2,-2
1528881007696029,-1,-2,0,4,26,4,0,0
1528881007696029,-2,0,-1,-7,-38,-18,-6,-4
1528881007711066,-3,-4,-2,0,4,-5,-2,-4
1528881007711066,6,5,1,-2,-13,-2,-3,-3
1528881007718658,1,-3,1,2,-5,9,3,2
1528881007718658,0,4,5,4,23,7,6,4
1528881007740647,-6,-4,-4,-4,-28,-4,-2,0
1528881007740647,3,-5,-4,-4,-6,-12,-5,-3
1528881007748477,-4,9,-5,-6,-10,-12,-7,-6
1528881007748477,1,-1,3,4,0,12,4,0
1528881007763215,0,-4,-3,-3,-18,-6,-2,-2
1528881007763215,0,-2,-3,-1,1,-1,0,1
1528881007778457,1,0,4,15,14,8,2,1
1528881007778457,-1,-3,-1,-6,-9,-2,0,1
1528881007785543,-1,-2,4,8,19,7,1,1
1528881007785543,-5,0,-1,-4,-21,-3,-2,0
1528881007793420,1,-2,-1,-6,25,5,2,0
1528881007793420,1,4,-5,-2,-24,-8,-2,-1
1528881007800445,-2,0,2,4,19,13,5,2
1528881007800445,-2,-3,3,7,-1,5,1,-1
1528881007815896,-10,-11,-7,-10,-24,-21,-5,-3
1528881007815896,-9,-13,-1,-2,3,0,-1,-1
1528881007823140,19,31,-2,0,-6,-4,-1,-1
1528881007823140,7,-4,1,-2,13,7,-2,0
1528881007838101,-9,-19,-8,1,-15,-6,-1,-4
1528881007838101,-1,4,-7,2,-18,-14,-2,-3
1528881007853059,1,5,-1,1,18,8,2,-1
1528881007853059,-2,0,10,-7,-41,2,1,-1
1528881007861120,-2,-3,4,12,18,8,3,1
1528881007861120,-1,-4,-7,-13,-14,-18,-4,-3
1528881007876071,1,0,-4,-4,-15,-15,-6,-4
1528881007876071,5,7,-4,-6,-13,4,4,1
1528881007883061,-1,-1,5,2,46,7,2,2
1528881007883061,-5,-3,-3,-8,-70,-21,-9,-5
1528881007906101,-1,-4,-1,-13,-6,3,1,2
1528881007906101,-2,0,1,9,20,-4,0,-1
1528881007921077,4,6,7,10,14,25,8,3
1528881007921077,1,3,6,20,44,25,6,4
1528881007928170,-11,-12,-16,-26,-96,-50,-17,-10
1528881007928170,3,5,0,-10,24,17,4,2
1528881007943137,2,0,1,0,-8,1,2,2
1528881007943137,0,2,-3,-7,-3,-3,0,-1
1528881007950424,0,-2,9,6,6,30,10,4
1528881007950424,1,0,-4,9,86,-9,-1,0
1528881007958388,1,-3,-2,-26,-27,-15,-4,-3
1528881007958388,0,2,4,-27,-18,15,8,4
1528881007973585,3,1,14,66,63,16,4,2
1528881007973585,-2,-2,-7,-7,-34,-12,-6,-3
1528881007981085,-5,0,-1,3,-5,3,0,-1
1528881007981085,1,-3,-1,0,-4,2,-3,0
1528881007995983,-1,-3,-7,-35,1,3,0,-2
1528881007995983,-4,-7,-7,-4,-15,-19,-6,-5
1528881008002972,-2,-1,15,31,30,17,7,6
1528881008002972,-5,-11,-9,-17,-19,-9,-5,-3
1528881008018097,0,1,-5,6,-25,-18,-4,-2
1528881008018097,-12,-29,8,25,40,22,1,2
1528881008032632,-5,19,-4,-14,-45,-6,0,-5
1528881008032632,13,-4,-5,-5,19,2,0,-1
1528881008041058,1,-6,-5,-16,-12,5,0,0
1528881008041058,-4,0,0,14,-14,-5,0,-1
1528881008055286,-13,-22,-4,-6,-28,-21,-8,-5
1528881008055286,-1,6,0,-3,25,12,3,2
1528881008063592,-5,-4,-6,-19,-7,-11,-4,-5
1528881008063592,-3,2,-6,10,2,-7,-3,-4
1528881008078548,2,-2,5,40,16,12,2,2
1528881008078548,9,16,5,-11,20,35,11,6
1528881008093296,-8,-15,-9,-14,-6,-51,-15,-5
1528881008093296,-5,0,-3,-1,-12,-6,-2,0
1528881008100236,5,3,-4,-16,14,-2,-1,-2
1528881008100236,6,9,19,25,4,6,4,2
1528881008115205,0,-13,1,-4,16,14,4,3
1528881008115205,-22,-5,-9,15,-18,-10,-2,-5
1528881008123435,7,8,-20,-22,-2,-30,-2,-6
1528881008123435,11,3,11,10,-12,-4,2,1
1528881008138134,-3,-5,-8,8,9,4,6,2
1528881008138134,5,6,1,0,8,19,71,18
1528881008153541,-2,-1,-2,-34,-4,-3,-77,0
1528881008153541,-7,-2,8,32,-23,-17,-39,-17
1528881008160686,-16,-11,-15,-14,8,-21,-16,-23
1528881008160686,-2,-3,-8,-4,0,-4,1,-5
1528881008183575,0,-4,-13,-35,-21,-22,45,2
1528881008183575,13,13,14,35,25,25,14,22
1528881008190567,16,13,21,9,-23,6,3,17
1528881008190567,-13,-3,0,2,-3,-6,-24,-17
1528881008205527,14,2,-2,-5,-11,-2,-51,1
1528881008205527,8,3,-8,-45,-31,-32,-29,6
1528881008221101,32,54,8,15,74,27,51,9
1528881008221101,25,-17,-14,-32,16,44,84,27
1528881008235676,11,15,52,85,12,-3,-75,12
1528881008235676,-25,-28,-11,-9,2,13,-44,-23
1528881008243397,-63,-44,-1,5,22,3,2,-21
1528881008243397,26,39,-11,-24,-28,-27,-16,-5
1528881008258748,-49,-20,-17,-62,-69,-16,-26,-26
1528881008258748,-36,-10,16,84,31,29,-36,-23
1528881008273333,68,43,-5,-29,2,7,46,2
1528881008273333,-9,-18,-18,-93,14,30,28,37
1528881008280555,14,-2,29,101,4,21,-91,-2
1528881008280555,-26,-2,-12,-20,37,-71,17,-60
1528881008295255,-19,-32,-1,-3,58,16,-24,-37
1528881008295255,33,61,-3,-33,-104,-55,35,4
1528881008303634,44,-23,-4,-29,-8,37,66,44
1528881008303634,-13,-23,3,36,-4,6,-50,19
1528881008318453,-55,7,0,15,74,-9,4,-16
1528881008318453,45,59,-6,-47,-22,6,2,0
1528881008333449,5,-18,6,24,14,8,11,5
1528881008333449,-1,-15,9,63,-61,-47,-13,0
1528881008340447,-1,1,-8,-16,-4,20,9,7
1528881008340447,0,11,10,-8,8,-39,-9,-1
1528881008356784,-3,0,-22,-76,-66,-29,-12,2
1528881008356784,4,6,9,41,61,43,8,-4
1528881008363104,6,3,16,44,14,-10,7,-4
1528881008363104,-5,-23,-5,-7,-15,2,-13,5
1528881008377731,21,-31,-11,-19,32,23,20,8
1528881008377731,11,16,2,-5,23,4,-29,-3
1528881008392914,-31,-30,-5,-4,3,-20,11,-2
1528881008392914,0,-21,6,44,32,-4,-34,2
1528881008400983,6,20,1,-18,-17,1,11,4
1528881008400983,-11,-15,-11,4,29,3,-18,-6
1528881008415044,-26,0,4,-18,13,-6,7,-3
1528881008415044,13,-7,-3,23,15,6,31,2
1528881008423124,15,19,-1,-1,-47,-22,-15,0
1528881008423124,-11,-10,7,27,-29,-12,36,10
1528881008438082,14,13,-5,-26,-10,-4,3,-5
1528881008438082,-3,-16,-9,-20,-26,-3,-13,-3
1528881008453063,2,17,-4,-3,-11,25,4,10
1528881008453063,11,-26,5,8,85,39,4,3
1528881008460596,-13,5,-14,-25,-24,-25,51,1
1528881008460596,-1,-10,7,0,-17,5,-46,3
1528881008475554,5,-1,3,36,-23,-9,-12,-10
1528881008475554,8,15,-5,-6,-11,16,16,-2
1528881008483537,-12,-11,3,3,65,-3,-7,-3
1528881008483537,5,1,-7,40,-20,19,34,8
1528881008498233,14,8,-5,18,-32,-36,-18,-9
1528881008498233,4,16,4,-17,-26,14,49,7
1528881008513246,22,4,3,32,63,7,-37,-3
1528881008513246,-19,7,-9,-19,-70,-27,6,0
1528881008520206,10,-21,-9,-37,-18,15,17,1
1528881008520206,-22,-6,7,45,12,-30,-16,2
1528881008535408,-8,-5,-16,-27,-2,6,16,-8
1528881008535408,20,5,-1,1,-28,-20,11,-3
1528881008543459,-12,-26,5,4,7,4,-23,5
1528881008543459,13,7,-7,-19,0,6,-7,-5
1528881008558333,53,43,15,23,12,-8,7,4
1528881008558333,-30,-22,-1,-14,3,41,5,4
1528881008573517,17,3,-20,-21,-12,-18,-5,-3
1528881008573517,-15,-22,10,17,8,-6,0,-1
1528881008580818,-19,-7,4,10,-42,-18,-14,0
1528881008580818,14,-2,2,-20,-12,3,-11,-5
1528881008596049,-7,21,2,0,-34,-23,1,-2
1528881008596049,-12,-5,-33,-49,69,5,5,-3
1528881008602919,-14,-8,9,17,-9,21,2,3
1528881008602919,16,11,3,34,5,-12,-12,-2
1528881008617983,18,14,-8,-27,-4,2,-15,-2
1528881008617983,-27,-28,-7,-11,-12,-21,7,-1
1528881008633026,0,-5,-1,11,1,23,2,2
1528881008633026,-20,-16,-11,-2,1,-4,5,-3
1528881008640525,1,16,2,-3,-11,-1,2,1
1528881008640525,36,24,4,-13,10,-4,1,5
1528881008655497,-30,-11,3,-4,-9,-4,-9,-4
1528881008655497,-8,-13,-9,5,23,-21,-13,-7
1528881008663451,-16,-5,-9,-19,-31,-14,7,-7
1528881008663451,12,1,3,36,30,29,10,8
1528881008678413,-15,-7,-4,2,44,-9,-2,-1
1528881008678413,-21,-11,-14,-15,-20,-7,-32,-8
1528881008692507,-6,6,1,-20,-14,24,31,9
1528881008692507,14,9,2,28,7,13,-5,1
1528881008700486,-51,-25,-4,3,14,-14,3,-2
1528881008700486,28,27,-9,-13,-3,-14,3,-4
1528881008715446,5,-12,7,5,-21,-24,-4,-2
1528881008715446,-1,6,-8,-52,1,4,0,7
1528881008724788,-14,-7,7,2,-50,-15,-5,1
1528881008724788,-4,-12,-12,-5,82,0,2,-1
1528881008738387,1,-6,-19,-41,-26,-8,-8,-1
1528881008738387,-10,2,15,56,-25,14,11,0
1528881008745759,31,13,9,2,3,3,-16,-4
1528881008745759,-8,-19,5,15,1,3,-1,1
1528881008760703,15,3,-10,10,23,16,-6,0
1528881008760703,-3,-5,4,-21,-17,24,13,1
1528881008776183,22,5,5,2,14,-16,6,-2
1528881008776183,-19,-12,-1,8,-5,8,12,2
1528881008782770,-4,5,1,3,19,-18,-11,-4
1528881008782770,-7,21,-8,-36,-48,-10,-3,-1
1528881008798342,-21,-16,2,31,-13,-4,-8,-1
1528881008798342,10,5,-1,-38,8,-2,3,-1
1528881008805834,5,12,16,57,-2,34,15,3
1528881008805834,-10,-22,-3,-1,21,-10,-1,0
1528881008820792,5,-11,-1,17,53,8,3,3
1528881008820792,-25,-2,-13,-27,-67,-43,-8,-8
1528881008835750,20,-3,3,0,25,22,-2,2
1528881008835750,24,21,0,-7,13,-17,7,-7
1528881008843046,-21,-27,-18,-39,-43,4,4,0
1528881008843046,17,29,24,44,9,30,-4,9
1528881008858098,-11,5,-11,-23,9,-22,-7,-7
1528881008858098,-1,-11,-5,3,-17,-1,10,-6
1528881008865757,-24,-7,-14,-10,16,-1,-5,-1
1528881008865757,-1,1,28,-5,11,3,3,-4
1528881008880708,2,10,-5,23,-42,-13,6,1
1528881008880708,-23,-42,-23,-28,30,-7,-11,-7
1528881008895636,5,15,11,27,0,23,-2,-1
1528881008895636,30,19,5,-1,25,10,7,3
1528881008902617,15,-13,-3,-40,-17,-29,-13,-6
1528881008902617,6,0,-8,-15,-24,9,6,2
1528881008917591,2,8,11,23,6,2,0,0
1528881008917591,-31,-19,13,35,29,4,5,4
1528881008925928,-8,5,5,20,28,3,0,0
1528881008925928,9,-4,-13,-24,-25,-25,5,-5
1528881008941183,6,-2,-2,-12,-31,13,7,-2
1528881008941183,-4,-1,13,63,35,2,15,1
1528881008955982,2,-7,6,0,10,-8,-14,-1
1528881008955982,-6,-6,-18,-16,-17,-18,-9,-2
1528881008970832,10,4,-10,-42,-5,8,5,1
1528881008970832,-26,-19,-18,-46,-24,8,-1,0
1528881008985824,27,26,52,84,15,4,2,0
1528881008985824,-13,-12,-13,0,21,-3,-13,-4
1528881008992521,-5,-10,-10,-5,-13,-33,-5,-1
1528881008992521,1,7,-7,-9,-46,-26,-15,0
1528881009008041,15,3,29,39,-39,15,-11,3
1528881009008041,1,-1,-5,27,71,15,-2,0
1528881009023069,15,24,-15,-23,-12,-1,-4,-2
1528881009023069,-9,27,9,-23,-11,-2,4,-2
1528881009045933,13,-15,17,53,3,13,2,8
1528881009045933,-20,29,-4,-23,1,6,-4,-3
1528881009053675,-3,-14,0,-44,-19,0,3,-1
1528881009053675,11,3,13,34,-8,-11,6,-1
1528881009068650,-2,2,1,32,16,14,5,4
1528881009068650,2,4,-21,-59,34,-47,-14,-7
1528881009083587,-19,-15,2,-14,-60,3,-5,1
1528881009083587,12,0,0,-2,17,4,7,3
1528881009090809,-9,-2,-10,6,17,2,-9,-5
1528881009090809,8,6,2,31,-19,29,13,11
1528881009097541,-11,-27,-15,-31,-6,-10,1,-1
1528881009097541,7,45,3,-6,-30,-19,-4,-3
1528881009105512,3,-25,-10,-68,24,6,18,3
1528881009105512,-10,-10,22,71,-50,13,-10,-3
1528881009120720,-1,10,10,12,-32,-17,-1,-2
1528881009120720,11,5,-25,-19,-35,-14,-11,-4
1528881009135694,-16,8,2,-25,-16,1,6,0
1528881009135694,10,-17,20,55,22,9,5,3
1528881009143579,2,12,-3,11,-18,0,-8,1
1528881009143579,2,-16,7,43,23,4,-5,-3
1528881009158577,9,12,-23,-63,7,2,12,-1
1528881009158577,-10,-22,-5,5,-36,1,5,7
1528881009165352,11,27,18,33,7,10,3,-3
1528881009165352,-5,-17,2,-58,20,22,13,5
1528881009180568,-9,-6,-15,-3,26,14,-12,1
1528881009180568,-2,19,33,47,12,11,12,3
1528881009195272,6,1,1,-27,-33,1,-4,-1
1528881009195272,13,-23,-8,-14,-22,-5,-3,-4
1528881009203523,13,28,-6,-7,53,-5,-8,-6
1528881009203523,11,-8,-18,-29,-4,-1,8,2
1528881009218475,2,-5,-10,-19,-5,-4,1,0
1528881009218475,-1,-5,40,53,3,5,-13,1
1528881009225453,-18,-17,-3,-1,16,-6,7,1
1528881009225453,5,16,0,21,-12,-20,-13,-2
1528881009240456,3,5,42,101,-15,-6,-1,2
1528881009240456,-10,4,-1,12,29,5,-6,-2
1528881009255840,-10,-13,-24,-7,-36,-9,-7,-5
1528881009255840,-1,1,-8,-24,-3,0,-6,-5
1528881009263578,-17,-7,-4,-16,30,15,11,1
1528881009263578,32,12,9,-25,-29,-12,5,1
1528881009277929,-4,4,15,23,2,6,6,0
1528881009277929,-10,-10,-22,-15,-7,8,-14,-1
1528881009285907,9,14,-7,10,43,-29,2,-3
1528881009285907,-12,-30,-20,-59,-36,9,-9,-1
1528881009300619,11,-3,-26,-65,-35,-4,-21,-6
1528881009300619,-7,-2,-2,44,16,5,8,1
1528881009315564,-5,-16,-10,-44,-17,-1,5,6
1528881009315564,40,47,3,-7,-12,-4,0,-8
1528881009323094,-13,-27,4,58,15,9,10,5
1528881009323094,5,10,-1,-37,-24,-5,-7,-1
1528881009337811,-6,-6,-3,-42,-10,-8,-7,-2
1528881009337811,-11,-15,-12,-3,-17,-23,-8,-1
1528881009346052,-9,16,-1,-26,13,4,1,-3
1528881009346052,7,12,26,23,-1,13,5,3
1528881009361013,7,1,-11,-69,-55,-1,7,-4
1528881009361013,-48,-30,9,56,59,0,-18,-2
1528881009375963,37,35,-5,24,-16,3,12,1
1528881009375963,4,-18,-1,-21,-14,-5,-26,-4
1528881009383052,9,15,5,-15,-12,6,2,3
1528881009383052,-2,-1,-1,26,-25,14,4,-1
1528881009398347,12,-1,1,-7,30,17,3,-1
1528881009398347,-33,-16,-5,-6,-12,11,5,0
1528881009406102,28,1,-1,-7,2,0,2,1
1528881009406102,-3,5,-8,-36,19,0,0,-2
1528881009421049,-14,-16,0,-11,62,0,-3,0
1528881009421049,6,8,6,-9,-24,-19,-5,-2
1528881009435481,-20,-8,2,13,20,-8,-10,-2
1528881009435481,1,0,-19,-54,-20,11,7,-2
1528881009443586,3,-2,11,56,2,25,1,1
1528881009443586,-15,0,-6,-15,-12,-5,-7,-3
1528881009458153,-5,9,-1,-22,-8,18,3,-1
1528881009458153,8,12,22,62,8,-26,-2,-2
1528881009473688,-13,-11,-11,-27,-14,-17,-6,-1
1528881009473688,4,-6,-17,11,11,14,12,5
1528881009488718,1,-8,1,6,21,-20,-2,-3
1528881009488718,-6,-10,-3,-8,-9,-24,-8,-3
1528881009496057,-11,-12,-5,15,8,0,11,2
1528881009496057,-6,1,-7,-28,-4,-4,-1,0
1528881009510620,4,3,-4,4,-25,0,-1,0
1528881009510620,15,10,7,7,17,-5,0,1
1528881009517601,-1,-5,6,16,23,11,1,2
1528881009517601,-1,4,-3,-34,-4,-9,-1,-2
1528881009533588,-5,-6,20,82,-6,-19,-7,-2
1528881009533588,-13,-22,-12,-27,-28,-2,0,-2
1528881009548087,-2,5,14,14,-11,16,13,0
1528881009548087,3,-13,-9,-19,7,8,-5,1
1528881009555797,3,-6,0,1,-22,-9,-3,-2
1528881009555797,-10,0,-20,-46,12,19,8,0
1528881009570913,1,-2,11,16,-11,3,-9,-1
1528881009570913,-11,-5,10,56,9,13,6,0
1528881009578475,13,1,4,5,-6,6,9,0
1528881009578475,6,15,-6,-18,9,-2,-13,-2
1528881009593728,3,-11,-14,-57,-41,-16,-4,-4
1528881009593728,4,5,3,26,28,11,-2,4
1528881009608514,5,12,2,-10,-3,3,-4,0
1528881009608514,19,10,3,-12,-12,-3,0,0
1528881009615466,-6,7,-3,-22,-23,10,7,3
1528881009615466,-6,-17,-7,-3,37,-15,-8,-3
1528881009630692,-5,3,-5,4,10,2,-6,-3
1528881009630692,4,10,2,-20,-1,5,9,0
1528881009637409,13,-3,1,-4,-11,2,-3,5
1528881009637409,-7,5,10,10,-23,3,-2,-4
1528881009652934,-18,-18,-17,-37,3,3,4,-1
1528881009652934,13,8,4,22,9,-7,-4,-4
1528881009661124,3,-6,-8,-8,0,-3,1,0
1528881009661124,4,1,6,24,26,3,1,-1
1528881009676117,-8,1,-4,-19,13,2,5,2
1528881009676117,-15,-19,-3,-46,-20,-10,6,-2
1528881009691172,21,-7,-7,-34,-20,3,-3,-1
1528881009691172,6,22,-9,-4,50,-7,0,-3
1528881009698375,11,9,11,-1,8,-5,0,1
1528881009698375,-5,-13,-7,-33,-5,-1,-8,0
1528881009712674,-13,-6,10,76,-9,5,10,1
1528881009712674,-2,3,-4,-25,-26,-4,-5,-2
1528881009720657,7,-8,-2,3,27,0,4,0
1528881009720657,-13,2,5,10,-18,0,-1,0
1528881009735614,-8,-1,-4,-32,0,4,-2,0
1528881009735614,11,0,6,49,14,2,-2,-1
1528881009750313,-1,0,-9,-7,2,-1,-2,0
1528881009750313,-9,-6,0,6,0,10,-2,-1
1528881009758569,4,-3,4,-2,-7,-5,-1,0
1528881009758569,5,-11,-8,-1,2,4,2,-2
1528881009773508,8,24,0,3,-3,-6,-3,-1
1528881009773508,-3,-11,-6,-38,-1,9,0,0
1528881009780491,-1,3,4,23,-2,-13,-2,-1
1528881009780491,2,-6,-8,-5,1,6,2,1
1528881009795767,1,7,6,12,0,-7,-3,-1
1528881009795767,11,10,-2,-23,-13,-5,0,0
1528881009810714,-24,-15,-5,28,-14,-37,-16,-9
1528881009810714,15,20,9,-14,-2,-11,-9,0
1528881009818011,-9,-15,-6,-13,-11,-7,-8,-5
1528881009818011,1,9,5,22,-9,-3,-1,-1
1528881009833370,0,-3,4,8,11,11,8,2
1528881009833370,-12,-12,-11,7,7,8,2,0
1528881009841179,-8,-1,-5,-32,-11,3,0,-3
1528881009841179,14,9,-3,1,-1,7,2,1
1528881009856121,20,-13,1,-6,-12,18,2,2
1528881009856121,-16,13,0,4,24,8,-2,-4
1528881009871046,6,-1,-5,-18,-1,-5,1,2
1528881009871046,-2,-5,11,38,-8,-7,3,0
1528881009878406,1,4,-4,-3,9,0,3,1
1528881009878406,-7,-1,9,32,5,-10,-1,-1
1528881009893227,-3,3,14,15,-1,-7,-4,1
1528881009893227,-2,-3,-6,-21,1,2,1,0
1528881009900249,-1,2,-7,-11,20,-6,-3,-2
1528881009900249,-1,2,9,6,-28,-12,-8,-1
1528881009923190,-1,2,-3,-3,8,7,5,2
1528881009923190,-3,1,4,4,3,4,-2,1
1528881009938150,2,2,-5,-9,-1,-4,1,0
1528881009938150,-11,-5,2,2,-12,-2,3,-2
1528881009945131,6,-1,0,-14,-4,-4,-2,-1
1528881009945131,-2,1,-1,3,3,-11,-10,-2
1528881009961130,18,2,3,9,16,6,6,0
1528881009961130,-5,2,-6,-18,-5,-5,-2,-1
1528881009983267,-7,-27,12,18,-9,-8,-2,0
1528881009983267,5,21,0,23,3,-6,2,-1
1528881009998202,1,6,-12,-28,-4,-18,-1,-3
1528881009998202,-5,-13,1,-5,11,-8,0,0
1528881010006029,-5,5,-2,-2,0,4,-1,-1
1528881010006029,3,7,9,42,12,9,2,-1
1528881010020267,-3,-1,-11,-28,-9,14,4,1
1528881010020267,0,-6,-7,-10,-16,-5,-2,-1
1528881010028239,7,11,13,43,4,-3,-1,-1
1528881010028239,-8,-8,-3,-11,5,-18,1,0
1528881010036018,-2,5,-4,-13,9,3,1,-1
1528881010036018,4,-1,-4,-14,-12,-22,-5,0
1528881010050950,7,18,8,18,13,-5,0,-1
1528881010050950,-1,-8,-3,-6,0,-3,6,3
1528881010057931,-5,-4,7,-2,-10,-4,-12,-6
1528881010057931,-4,-5,-11,7,1,7,-1,0
1528881010073383,7,7,-16,-11,11,-5,-5,-3
1528881010073383,6,6,9,-3,-9,-4,1,2
1528881010080872,-6,-1,7,6,0,-6,4,0
1528881010080872,-3,-2,6,-4,4,-9,2,1
1528881010096119,-4,-7,-10,-23,-1,-16,-2,-2
1528881010096119,-4,-5,1,22,-2,-10,-4,-2
1528881010110795,7,2,-1,0,-5,6,-2,0
1528881010110795,-17,-3,1,-9,4,19,-5,-7
1528881010117775,-3,-2,-15,-6,25,27,2,-3
1528881010117775,1,2,-3,-1,5,10,-1,-1
1528881010132736,2,1,7,2,-37,15,-1,1
1528881010132736,9,4,-4,-20,-3,17,1,0
1528881010140758,7,9,4,0,-5,8,2,2
1528881010140758,-7,-27,-8,23,13,5,-2,-3
1528881010163241,-2,22,-10,6,9,14,0,-2
1528881010163241,-12,-9,18,-4,2,3,-2,1
1528881010178326,-8,-27,5,1,3,7,-5,-5
1528881010178326,9,39,-10,0,-3,12,1,1
1528881010185803,-1,-2,-1,7,4,4,-5,0
1528881010185803,-4,6,18,-1,-8,4,-3,-2
1528881010200806,-4,-9,5,13,10,10,1,1
1528881010200806,-5,-18,-16,-11,13,4,-1,-1
1528881010215696,0,-1,-2,-21,-14,-1,1,0
1528881010215696,1,-7,0,23,5,-5,-3,-3
1528881010230881,-13,14,-13,1,14,-8,-1,-3
1528881010230881,10,10,15,-9,-6,1,3,0
1528881010238172,0,-23,11,11,2,4,1,2
1528881010238172,-1,18,-2,10,3,-1,1,0
1528881010253249,6,4,18,15,26,-1,1,0
1528881010253249,1,-16,-12,-13,-25,-2,-4,-2
1528881010260153,-2,-20,5,-1,27,-6,-3,1
1528881010260153,-1,-10,-11,-8,-23,13,0,-1
1528881010275677,-7,-8,-5,-4,-24,-15,-3,-1
1528881010275677,2,2,-15,-5,3,-5,-2,-1
1528881010290827,4,15,1,9,8,6,0,2
1528881010290827,-4,5,5,4,-5,6,1,1
1528881010298353,1,12,-5,-7,-17,-4,-1,-1
1528881010298353,0,16,0,0,8,1,1,1
1528881010313307,2,2,6,4,9,1,1,-1
1528881010313307,0,-6,-2,-1,-14,-5,1,1
1528881010320289,2,3,-3,-3,4,2,1,-1
1528881010320289,-2,-6,-3,1,18,6,0,0
1528881010336527,1,-12,-2,-4,-24,-9,-5,-3
1528881010336527,1,-11,-2,-4,24,4,2,1
1528881010350752,1,-7,1,3,5,4,2,1
1528881010350752,-1,0,-1,1,6,0,0,-2
1528881010357563,-1,-3,-3,-12,-15,-2,-1,-2
1528881010357563,0,-3,1,-4,3,-2,0,-1
1528881010373563,0,-1,-1,2,-5,2,-1,-1
1528881010373563,-2,-5,-2,-1,13,-3,-2,0
1528881010381180,1,-4,-3,-3,-21,-3,-1,1
1528881010381180,-2,-2,-2,-3,-4,-2,4,-1
1528881010395969,0,-5,-1,-1,-2,-1,-1,-2
1528881010395969,2,-12,3,5,-2,1,10,10
1528881010410926,-17,-5,-1,-4,5,-8,-17,-28
1528881010410926,0,0,0,1,-10,1,2,-5
1528881010417677,3,7,-2,0,-1,-3,-2,6
1528881010417677,-3,5,-3,-6,-10,-4,8,9
1528881010433603,5,6,2,4,22,7,2,-2
1528881010433603,-4,4,-1,1,-2,-3,-1,-5
1528881010440653,0,4,0,-2,2,0,-1,-3
1528881010440653,-2,-1,0,0,-1,2,3,1
1528881010455587,3,0,0,0,-7,2,-2,8
1528881010455587,-3,-1,-2,-3,-15,-5,-32,-41
1528881010470383,0,0,-2,-3,-2,-3,7,14
1528881010470383,1,3,2,1,-1,2,0,-3
1528881010478361,-1,-1,0,0,6,1,-4,-15
1528881010478361,-4,-1,0,-2,-3,-3,-4,-6
1528881010501057,1,0,0,-1,-1,1,1,0
1528881010501057,-3,-2,0,-1,-4,0,2,8
1528881010508284,0,1,-2,1,1,1,-5,-8
1528881010508284,-2,-2,-2,-1,-3,-3,0,0
1528881010523242,4,-1,-1,-1,-1,-1,-2,-4
1528881010523242,0,-3,-1,0,3,-1,4,10
1528881010537981,1,0,0,-2,2,-1,2,2
1528881010537981,0,0,-2,1,1,-2,3,4
1528881010553206,0,-1,-1,0,-1,0,3,2
1528881010553206,1,0,0,0,2,0,3,8
1528881010561229,-2,0,1,-1,0,-1,-2,-9
1528881010561229,0,1,0,-2,0,-3,0,-1
1528881010576184,7,1,-1,-1,1,1,7,9
1528881010576184,-11,0,-1,-1,-3,2,-8,-4
1528881010591159,1,0,0,0,-1,0,1,1
1528881010591159,2,0,1,-2,0,0,4,3
1528881010598179,-1,0,1,-3,0,1,-1,-5
1528881010598179,0,-2,0,1,0,-2,1,2
1528881010613399,-2,0,-2,-1,0,0,-2,-1
1528881010613399,2,0,-1,1,-1,-2,-2,1
1528881010621080,-1,0,0,1,-2,-1,-2,0
1528881010621080,1,0,0,-1,-2,0,-1,-2
1528881010635653,-2,-2,-1,0,-1,1,-2,-1
1528881010635653,1,-1,0,-1,2,-1,1,2
1528881010643680,-1,0,-1,1,1,0,0,-1
1528881010643680,0,-1,-1,-1,-2,-2,-1,-1
1528881010658603,-1,1,0,-1,0,-2,-2,-2
1528881010658603,-2,-1,0,0,1,0,-2,-2
1528881010672923,-2,0,1,-2,0,-1,0,0
1528881010672923,0,0,-3,1,1,-1,1,0
1528881010681052,-1,-1,-1,0,1,-1,-1,-3
1528881010681052,-1,-2,-1,-1,1,0,-2,-1
1528881010696117,1,2,-2,0,0,-1,0,0
1528881010696117,-1,-2,0,-1,-1,-2,-2,1
1528881010703109,-2,-1,-2,-1,-1,0,-1,0
1528881010703109,-1,-1,1,-2,0,-3,0,1
1528881010718530,-1,0,-1,-1,-2,0,-1,0
1528881010718530,-2,-1,0,-1,-1,0,0,-1
1528881010733151,-2,0,-2,-2,-3,-1,-1,0
1528881010733151,-2,0,0,0,0,-1,2,0
1528881010740132,0,-1,1,0,0,-1,-2,-2
1528881010740132,-1,0,-3,0,-2,0,-1,1
1528881010756191,-1,-2,-1,0,1,0,0,-1
1528881010756191,1,-2,0,0,-1,-1,0,0
1528881010763364,0,0,-2,1,0,-1,-1,0
1528881010763364,1,-1,1,-1,-1,1,0,-2
1528881010778382,-1,0,-2,-2,-2,-1,0,1
1528881010778382,1,0,-1,-1,-1,-2,0,-1
1528881010793237,0,-1,0,0,0,-2,-2,2
1528881010793237,-3,0,-1,1,0,-1,1,-1
1528881010801048,-2,0,-1,-1,0,-2,0,-1
1528881010801048,0,-1,-1,-2,0,-1,1,-1
1528881010814932,-1,0,-2,1,-1,0,-1,-2
1528881010814932,0,-1,0,-2,1,-1,-2,-1
1528881010823173,0,-3,-2,0,0,-1,0,-1
1528881010823173,-1,0,1,-2,0,-1,-2,-2
1528881010837873,-1,-1,0,-1,0,-1,0,-1
1528881010837873,-1,-1,0,0,0,-2,-1,0
1528881010853094,0,1,0,-1,-2,-1,1,-1
1528881010853094,-2,-2,-2,-1,-1,0,0,0
1528881010861115,0,-1,-1,-3,-3,-2,0,0
1528881010861115,0,0,1,-1,0,-1,-3,-1
1528881010876026,-2,0,-1,-1,0,-2,1,-2
1528881010876026,0,-1,0,-1,-1,0,0,1
1528881010883313,0,-2,-1,1,1,0,1,-1
1528881010883313,-1,-1,-2,-1,-2,0,-1,0
1528881010898068,-2,0,-1,-1,1,-2,0,-1
1528881010898068,-1,1,0,0,-1,-2,-1,-1
1528881010913234,0,-1,1,0,-2,1,-2,-1
1528881010913234,0,-1,-3,-2,-1,-1,0,-2
1528881010920565,0,-2,0,-2,-1,-2,-1,-2
1528881010920565,-2,-1,1,1,0,-1,-1,-2
1528881010935184,-1,-1,-2,0,1,-1,0,-1
1528881010935184,-1,-1,-1,1,-2,-1,-1,-1
1528881010943415,0,-1,-1,-2,0,-1,-1,0
1528881010943415,-1,-1,-2,2,-2,0,0,0
1528881010958406,-1,0,-1,0,-1,-1,1,0
1528881010958406,0,0,0,-1,-1,-1,0,0
1528881010973400,0,-1,0,-1,-2,-2,-1,-1
1528881010973400,-1,-1,-1,0,-2,-1,-1,-1
1528881010981214,-1,0,0,-1,-1,0,-1,-1
1528881010981214,0,-1,-3,1,1,-1,-3,-1
1528881010995893,-1,1,-1,0,-1,0,0,0
1528881010995893,-1,0,0,-2,-2,1,-2,-2
1528881011003661,0,1,0,-1,0,0,-1,0
1528881011003661,-1,-1,-1,0,0,0,0,-1
1528881011018673,-1,-2,0,0,0,0,0,1
1528881011018673,-3,-1,-3,-1,0,-2,1,0
1528881011033143,0,-1,0,-1,-2,-2,1,-1
1528881011033143,-1,-1,-1,0,0,0,0,1
1528881011040742,-3,-1,1,1,-2,-1,0,-1
1528881011040742,0,-1,0,0,-1,-2,0,0
