timestamp,emg1,emg2,emg3,emg4,emg5,emg6,emg7,emg8
1528440886904979,-4,-2,-3,-4,-4,-4,-5,-5
1528440886904979,-2,-2,-2,-4,-9,-16,-7,-2
1528440886910962,1,-1,0,-1,-1,-3,-2,1
1528440886910962,2,1,-1,0,0,7,4,3
1528440886917944,0,1,3,1,5,5,3,1
1528440886917944,-4,-4,-3,-1,2,6,1,-1
1528440886925922,-1,-2,-3,-5,-6,-5,-5,-4
1528440886925922,-5,-4,-3,-4,-7,-14,-7,-3
1528440886936891,-1,-1,-1,-2,-2,-2,-3,-2
1528440886936891,2,2,3,3,0,1,1,2
1528440886955839,0,2,1,2,5,4,4,3
1528440886955839,1,-1,-1,2,6,9,2,0
1528440886962821,-3,-4,-3,-3,-1,0,-2,-3
1528440886962821,-4,-5,-2,-5,-10,-8,-7,-4
1528440886978778,-4,-1,-1,-4,-11,-22,-8,-5
1528440886978778,1,-1,3,0,3,4,0,-2
1528440886988753,4,2,0,6,6,9,7,5
1528440886988753,2,-2,-1,3,7,10,4,1
1528440887000724,-4,-2,-1,-2,-1,3,-2,-2
1528440887000724,-4,-1,-1,-3,-5,-8,-4,-7
1528440887008701,1,1,-2,-5,-6,-7,-4,0
1528440887008701,-2,-3,-3,-3,-3,-1,0,0
1528440887015682,-1,-2,-1,-1,-1,-1,0,-1
1528440887015682,-1,-2,0,-1,-1,-1,-2,-2
1528440887024658,-3,-2,0,-1,-1,0,-1,-2
1528440887024658,2,2,0,-2,1,0,0,2
1528440887039616,-3,-2,-3,-1,1,0,-2,-3
1528440887039616,-1,-1,0,-1,-1,-1,0,2
1528440887045602,-1,-2,-2,1,-4,-5,-5,-5
1528440887045602,-1,0,-3,-2,0,-2,-1,-4
1528440887053581,-1,-2,3,2,2,3,1,2
1528440887053581,-4,-1,-2,-4,-2,-4,-5,-13
1528440887060561,2,1,-1,-2,-1,-2,3,5
1528440887060561,-2,-5,0,0,2,-2,-1,1
1528440887075522,0,0,-1,0,-1,2,0,-1
1528440887075522,0,0,-3,1,-3,-2,1,4
1528440887090482,-3,-1,3,0,-1,-4,-3,-4
1528440887090482,-2,1,-6,-1,-1,1,0,-1
1528440887105442,-2,-3,-4,-1,-1,2,1,-5
1528440887105442,-4,0,-1,-1,-2,-3,-3,-3
1528440887120401,-5,0,1,0,2,2,-1,0
1528440887120401,-1,-2,-4,-5,-7,-5,1,2
1528440887135362,-3,0,-6,-1,0,-4,-3,-4
1528440887135362,2,3,7,3,4,7,3,5
1528440887143340,3,-4,1,2,1,1,-3,-4
1528440887143340,-2,-2,0,0,4,4,-1,0
1528440887158301,1,2,-2,-1,0,-2,0,2
1528440887158301,-1,-2,0,2,-1,-3,-1,2
1528440887173261,-1,1,-7,-7,-10,-6,-2,-3
1528440887173261,-4,-8,-5,-4,4,-6,-5,-5
1528440887188220,-1,-6,-7,1,-1,-7,1,2
1528440887188220,0,12,17,8,14,19,4,0
1528440887197196,0,-2,1,-3,-4,1,-1,1
1528440887197196,-2,-4,-11,-3,-10,-19,-5,-1
1528440887218140,7,2,4,16,5,2,5,4
1528440887218140,2,0,1,4,4,0,2,6
1528440887226119,3,-5,-9,-1,19,29,14,6
1528440887226119,-2,0,-1,-4,-4,6,1,-3
1528440887233099,-1,0,-4,-1,2,-15,-9,-11
1528440887233099,-8,-8,-4,-16,-20,-7,-1,1
1528440887241078,5,1,1,0,-2,-11,-7,-2
1528440887241078,-2,4,9,11,-4,5,8,4
1528440887256040,5,7,11,20,26,17,6,8
1528440887256040,-2,-2,-6,2,3,10,-1,-5
1528440887263021,-9,-8,-11,-12,-17,-19,-14,-11
1528440887263021,4,-1,-3,-16,-28,-33,-16,-3
1528440887271000,-6,-5,-4,-9,-5,4,-7,-5
1528440887271000,3,0,-7,-4,8,-4,3,-3
1528440887277981,-2,2,5,0,-11,-10,-1,-2
1528440887277981,-1,1,-3,7,19,24,1,-4
1528440887292941,-1,-5,-7,-7,-27,-23,-6,-3
1528440887292941,-7,-5,-1,-5,14,8,-19,-11
1528440887300919,16,15,6,8,22,38,28,14
1528440887300919,-7,-15,-1,11,-16,-45,-10,2
1528440887315900,-1,-2,-1,3,24,61,24,2
1528440887315900,-4,-7,-3,1,-21,-23,-7,-4
1528440887322861,-14,-8,2,2,0,-3,-5,-4
1528440887322861,10,-4,-15,-21,5,13,15,11
1528440887337820,1,9,2,-24,-33,-27,-13,-4
1528440887337820,-9,-5,7,25,15,1,-6,-13
1528440887345799,1,-1,-9,-22,-18,-23,-14,-2
1528440887345799,-1,2,11,46,29,3,0,0
1528440887368738,-12,-16,-1,-4,-15,-15,-12,-4
1528440887368738,-14,-8,-14,-34,-50,-58,-43,-38
1528440887383699,10,11,3,12,26,28,49,30
1528440887383699,7,6,8,17,39,64,28,8
1528440887390680,-12,-13,-9,-1,3,7,-5,-6
1528440887390680,9,13,8,-6,-4,14,3,9
1528440887405640,-9,-9,-10,-9,-30,-47,-31,-26
1528440887405640,1,-6,0,-16,-27,-44,-15,0
1528440887413618,4,7,-19,-3,3,11,8,6
1528440887413618,-4,6,14,-3,-3,4,7,5
1528440887420600,27,37,41,18,9,0,9,42
1528440887420600,-3,-7,-7,-2,4,0,1,-1
1528440887435559,0,-23,-18,-1,5,4,0,15
1528440887435559,-22,-22,-26,-16,-15,-9,-11,-37
1528440887443537,-3,14,29,9,-7,-17,-11,-2
1528440887443537,4,-17,-10,-8,5,16,13,21
1528440887458501,14,31,21,6,5,14,11,11
1528440887458501,-4,4,-3,3,-14,-20,-5,-11
1528440887465480,-2,-8,-10,-1,0,0,3,-4
1528440887465480,-4,-5,0,3,14,18,5,-10
1528440887488417,10,1,5,44,41,18,12,-2
1528440887488417,6,3,1,4,1,11,3,2
1528440887496399,-16,-13,10,-4,-4,-3,-7,-7
1528440887496399,14,23,4,-14,-19,-8,6,13
1528440887510397,-16,-6,26,75,59,20,5,-11
1528440887510397,-5,-7,-22,-22,-16,-10,-4,-3
1528440887518338,0,-4,1,-7,-12,-10,-2,5
1528440887518338,4,0,4,8,8,4,8,13
1528440887533299,-9,-36,-32,-48,-30,-12,-12,-18
1528440887533299,11,30,19,36,36,19,15,8
1528440887548259,18,3,-24,-49,-39,-16,-7,-2
1528440887548259,0,9,24,87,71,28,9,8
1528440887556281,0,3,-5,-28,-15,-3,-2,-6
1528440887556281,-4,-16,-12,39,21,3,-2,-5
1528440887571195,-3,13,-5,-54,-38,-9,-2,-3
1528440887571195,-7,-17,-6,-30,-22,-20,-12,-12
1528440887578186,-2,-8,4,24,25,11,3,-1
1528440887578186,-2,-17,-15,2,-7,-6,-6,-6
1528440887593137,-6,3,2,2,-2,4,0,0
1528440887593137,8,21,-8,-5,-16,1,-1,0
1528440887610131,-1,0,-9,-34,-22,0,0,-1
1528440887610131,-10,-8,-1,16,9,-4,-3,-4
1528440887616076,9,16,0,-8,11,19,10,3
1528440887616076,0,2,-12,-45,-35,-16,-11,-9
1528440887638017,-1,5,7,22,7,-5,-2,-3
1528440887638017,-4,-9,-1,-6,12,19,8,1
1528440887645998,-3,-5,-5,3,-7,-6,1,1
1528440887645998,1,-6,-10,-35,-13,-10,-6,-3
1528440887660957,-7,-11,-1,20,8,-6,-7,-6
1528440887660957,-5,4,-1,-33,-24,-10,-4,-7
1528440887675917,3,4,0,1,-1,-2,4,-1
1528440887675917,-17,-10,-5,-18,-21,-18,-8,-12
1528440887682899,-5,-2,4,23,30,33,4,-1
1528440887682899,6,-4,3,1,4,-1,22,27
1528440887690877,11,9,0,-2,9,10,-2,-37
1528440887690877,21,1,-8,-20,-19,-14,-6,13
1528440887697858,-29,-8,-7,17,-1,-20,-11,-22
1528440887697858,-12,13,2,-10,1,4,-12,-13
1528440887712818,-7,-23,-15,-4,-1,3,-4,8
1528440887712818,3,-6,0,-2,-4,-5,8,6
1528440887728799,13,9,3,1,-6,-14,-11,13
1528440887728799,3,5,2,8,7,-1,-12,-12
1528440887735758,8,-11,-11,4,3,7,11,27
1528440887735758,-6,-2,-1,-7,-2,4,1,-14
1528440887750717,0,4,8,2,-4,-6,-4,-3
1528440887750717,-9,-2,1,-9,-5,-1,-2,1
1528440887758695,5,11,1,1,0,-1,-8,-9
1528440887758695,7,-4,3,-3,-2,-6,2,4
1528440887773655,-26,-30,-14,0,6,4,3,-3
1528440887773655,11,32,9,2,3,8,2,-6
1528440887788615,-4,-23,-5,0,10,4,8,12
1528440887788615,-1,2,-5,27,10,1,-3,-5
1528440887796594,-11,-25,-7,32,20,13,7,0
1528440887796594,24,32,38,63,53,23,12,12
1528440887810557,-6,-8,-10,-39,-28,-12,-4,-3
1528440887810557,-7,-19,-36,-94,-58,-20,-8,0
1528440887818535,20,44,36,76,47,12,6,8
1528440887818535,-24,-37,-3,-2,1,1,0,-5
1528440887833495,1,21,-17,-46,-43,-21,-14,-4
1528440887833495,2,0,7,10,18,2,3,5
1528440887848455,5,-6,17,97,111,41,20,13
1528440887848455,-5,6,13,44,-1,8,0,-3
1528440887855436,8,-1,22,44,52,23,10,4
1528440887855436,8,29,3,-38,-21,-8,-6,-1
1528440887870397,-4,-6,-16,-64,-43,-10,-4,-4
1528440887870397,-8,-17,-24,-38,-22,-6,-4,-2
1528440887878375,-10,-20,-5,-4,-6,-11,-6,-6
1528440887878375,2,-1,-9,-2,5,-3,0,0
1528440887893335,-6,-6,-6,-12,-21,-15,-8,-6
1528440887893335,-4,2,13,20,27,9,6,1
1528440887908561,-1,8,7,14,10,21,7,2
1528440887908561,5,2,10,3,2,-5,-5,-2
1528440887915596,-9,-14,-9,-6,-4,-3,0,-3
1528440887915596,0,-5,-12,-17,-23,-21,-14,2
1528440887930908,4,9,12,24,20,16,14,4
1528440887930908,-5,-2,-4,-4,-3,1,-1,-4
1528440887938875,-7,-8,-8,-15,-17,-23,-6,-8
1528440887938875,0,0,-1,10,23,22,5,-1
1528440887953844,2,7,4,1,-6,-11,-7,2
1528440887953844,-1,-8,-5,-8,1,4,1,3
1528440887968808,4,3,6,4,2,7,4,3
1528440887968808,-2,-4,-1,0,5,9,3,1
1528440887983766,1,1,4,3,0,-2,-6,-2
1528440887983766,-4,-3,-7,-8,-9,-12,-5,-4
1528440887998575,-4,-1,0,-2,-6,-4,-2,-4
1528440887998575,-1,-2,1,-2,1,-1,-3,-1
1528440888005708,1,1,-4,-21,-11,1,-1,-1
1528440888005708,2,-1,8,37,19,-7,-3,4
1528440888020878,-3,1,-3,-6,-1,7,1,-3
1528440888020878,-2,-3,-4,-15,-11,-3,0,-2
1528440888035842,-2,-5,-3,-1,-15,-13,-7,-3
1528440888035842,2,1,3,4,14,6,3,4
1528440888050782,8,7,-1,3,1,-7,-2,4
1528440888050782,-12,-19,-8,-21,-29,-20,-13,-11
1528440888058623,4,-20,20,24,12,6,8,1
1528440888058623,2,-9,-4,-4,19,35,15,6
1528440888073057,-4,-9,0,-13,-21,-16,-6,0
1528440888073057,7,0,26,31,14,1,-1,-1
1528440888087871,0,5,10,6,-9,2,1,1
1528440888087871,-4,-3,-7,15,25,7,0,0
1528440888095850,2,5,27,86,76,34,14,5
1528440888095850,0,2,-31,-56,-33,-17,-11,-4
1528440888110950,-6,-16,-22,-15,-32,-13,-3,-4
1528440888110950,6,14,-3,-7,13,7,3,2
1528440888118902,0,5,20,-37,-37,-12,-7,-2
1528440888118902,5,-5,13,76,57,24,12,7
1528440888132970,0,17,16,3,10,-1,-1,-3
1528440888132970,-15,-34,-45,-21,-25,-9,-3,-3
1528440888147930,-9,-12,-7,-17,-16,-16,-9,-7
1528440888147930,5,7,-5,1,3,4,3,3
1528440888156065,-5,-11,-24,-41,-21,-9,-2,-1
1528440888156065,-10,-15,-8,-28,-39,-27,-14,-10
1528440888171228,18,11,7,37,43,22,12,11
1528440888171228,-10,0,9,3,-8,2,4,0
1528440888178405,-3,-9,-5,7,-19,-2,-4,-7
1528440888178405,9,13,11,15,15,7,3,4
1528440888201378,-18,-17,-22,-32,-30,-23,-17,-13
1528440888201378,1,3,13,-6,-5,-5,-6,-2
1528440888215310,12,19,27,11,-7,-10,-6,-2
1528440888215310,-1,-1,2,5,11,4,5,2
1528440888231267,2,-6,-6,1,4,0,0,0
1528440888231267,-5,-2,-4,-25,-31,-10,-2,-3
1528440888246402,-1,-2,-4,22,37,20,8,1
1528440888246402,5,14,19,0,-5,-7,-4,1
1528440888268507,-7,-6,-10,-9,11,3,2,1
1528440888268507,1,-8,8,30,14,10,4,-1
1528440888276400,4,9,-8,-11,-4,-4,-3,2
1528440888276400,-10,-10,-15,-29,-33,-21,-12,-7
1528440888283658,-10,-7,7,4,-7,-5,-10,-10
1528440888283658,-3,0,-3,-9,-6,-6,-4,-5
1528440888290803,2,3,-10,-14,-15,-5,4,2
1528440888290803,-3,-5,10,20,0,7,1,-2
1528440888298783,-13,-15,-17,-23,-33,-18,-8,-4
1528440888298783,1,-4,10,33,41,28,13,4
1528440888313857,0,1,-3,-10,-19,-10,-7,-6
1528440888313857,5,5,1,-5,3,-1,-3,1
1528440888320880,-21,-22,-1,5,12,1,-5,-11
1528440888320880,11,3,0,5,19,11,5,6
1528440888336044,12,14,3,-4,9,1,3,7
1528440888336044,5,0,-11,-3,-39,-22,-9,-4
1528440888343901,-6,-2,3,2,9,6,3,-1
1528440888343901,-1,2,3,-2,-6,-7,-1,-2
1528440888350998,1,2,9,7,6,4,2,-2
1528440888350998,-1,0,-14,-20,-11,-13,-12,-4
1528440888358870,-2,-19,-10,2,9,11,4,1
1528440888358870,-9,-3,-10,-20,-14,-15,-12,-10
1528440888373875,0,10,8,3,6,2,-1,0
1528440888373875,-5,-8,-4,17,11,7,2,-3
1528440888380948,4,3,-9,4,4,4,0,-1
1528440888380948,8,-1,19,10,7,3,7,7
1528440888396100,-5,-2,-14,-13,-6,-5,-6,-6
1528440888396100,-10,-14,-15,-32,-25,-20,-7,-7
1528440888403291,5,43,39,29,24,16,1,-8
1528440888403291,2,-9,9,4,-17,-14,3,7
1528440888411270,0,-2,8,6,12,13,8,3
1528440888411270,-8,-11,-14,-8,4,6,5,-11
1528440888418456,8,-2,-25,-20,-14,-24,-10,10
1528440888418456,-18,-3,8,-1,4,4,-7,-11
1528440888433452,8,6,-17,-9,-14,-8,0,8
1528440888433452,8,8,24,5,17,19,7,2
1528440888440595,-12,-15,10,11,-14,-6,-6,-9
1528440888440595,11,10,14,28,49,31,12,8
1528440888456427,2,0,-22,-34,-20,-12,-5,0
1528440888456427,-7,-1,33,41,21,12,1,-2
1528440888463374,-5,-7,-8,-10,-33,-17,-5,-2
1528440888463374,0,16,0,-5,-2,8,3,-3
1528440888471351,-16,-48,-18,-2,8,8,-2,-10
1528440888471351,8,28,-2,-42,-53,-46,-21,-7
1528440888478346,-2,-7,-9,-19,-1,1,0,0
1528440888478346,-7,3,4,16,-13,-17,-9,-10
1528440888493436,3,7,-5,12,18,16,8,3
1528440888493436,-3,-7,-13,-25,-15,-9,-7,-1
1528440888501376,2,-1,17,24,16,7,2,5
1528440888501376,-13,-24,-41,-37,-9,-13,-10,-8
1528440888516395,-5,2,27,22,-14,-12,-5,-6
1528440888516395,13,8,3,33,27,20,14,17
1528440888523368,6,4,-2,-9,10,17,12,1
1528440888523368,-6,-2,-15,-34,-28,-16,-18,-7
1528440888531191,-1,3,3,32,35,14,7,2
1528440888531191,-7,-9,-27,-12,0,2,3,2
1528440888538583,-4,-12,3,2,1,-8,-10,-4
1528440888538583,-2,-2,-18,-16,-9,-6,-3,-8
1528440888553540,5,8,8,-2,-8,-4,0,4
1528440888553540,-3,-12,-19,1,5,6,0,-2
1528440888561399,-1,6,13,-1,2,-2,3,-1
1528440888561399,1,7,14,10,5,7,4,10
1528440888576377,2,-4,-8,-9,-3,0,-1,5
1528440888576377,-2,-1,3,1,4,1,0,-1
1528440888583457,0,-5,-9,2,9,10,6,2
1528440888583457,-6,-13,-13,-8,-8,-10,-6,-6
1528440888591400,-1,4,11,15,4,8,4,2
1528440888591400,4,18,15,10,13,9,7,5
1528440888598258,-2,-14,-20,-9,-4,-7,-6,-4
1528440888598258,3,2,14,16,4,5,6,4
1528440888613376,2,4,10,-15,-14,-15,-10,-4
1528440888613376,2,4,-14,-18,-12,-6,-4,-1
1528440888621355,-8,-9,-4,-16,-15,-14,-8,-7
1528440888621355,4,-9,-5,27,30,16,8,6
1528440888636313,0,5,20,9,-4,-3,0,3
1528440888636313,7,6,-5,-1,6,4,-3,-1
1528440888643294,4,2,4,-1,-4,-4,0,0
1528440888643294,-3,-2,-8,-8,-13,-6,-2,-4
1528440888651273,-3,-5,-1,-3,5,5,2,-3
1528440888651273,-6,2,8,-3,-7,-9,-4,-1
1528440888658101,3,6,-9,0,-5,-4,0,1
1528440888658101,-8,-5,2,-10,-12,-13,-14,-11
1528440888673258,-7,-21,-24,-13,-7,-4,-6,-5
1528440888673258,-6,-1,7,-2,-19,-20,-12,-7
1528440888681236,3,-5,-8,5,26,15,6,3
1528440888681236,-5,-6,29,22,14,16,10,6
1528440888695991,10,19,-9,18,24,17,9,7
1528440888695991,-9,-22,-22,-25,-22,-14,-9,-3
1528440888703843,2,6,19,3,-9,-6,-2,-2
1528440888703843,3,5,-12,-7,-2,-8,-8,-4
1528440888711282,-1,-4,-6,-10,-9,-8,-3,-2
1528440888711282,-10,-16,1,6,7,4,2,-3
1528440888718261,-1,2,0,2,-2,-1,1,2
1528440888718261,6,5,-4,-12,-2,-1,1,2
1528440888733068,-1,1,6,9,0,-3,-1,-1
1528440888733068,2,0,-5,-4,-5,-2,-1,0
1528440888741246,0,-3,0,6,3,2,0,0
1528440888741246,4,13,4,6,9,5,0,2
1528440888756183,-11,-13,-10,-9,-6,-3,-1,-3
1528440888756183,-1,-1,11,5,0,0,1,0
1528440888763383,0,0,-1,-5,-2,1,-2,1
1528440888763383,1,3,-6,-12,-11,-6,-2,1
1528440888771366,2,7,3,15,14,4,0,1
1528440888771366,-3,-3,1,3,0,3,2,-1
1528440888778310,-3,-2,-4,-2,0,3,1,0
1528440888778310,1,2,5,3,2,1,1,-1
1528440888793377,-4,-6,-8,-12,-8,-7,-3,-5
1528440888793377,0,8,12,3,3,1,1,0
1528440888801376,3,5,0,1,0,1,1,2
1528440888801376,-1,-3,2,5,1,1,1,1
1528440888823179,-2,-2,0,-5,-3,-1,-1,-1
1528440888823179,-1,-4,-4,-1,-4,-2,-1,-1
1528440888831155,1,0,-1,2,7,1,2,2
1528440888831155,-1,-4,-11,-14,-10,-8,-4,-2
1528440888838272,-5,-3,4,-5,-15,-14,-7,-7
1528440888838272,0,3,5,13,20,13,5,1
1528440888846421,-1,-2,-10,-17,-11,-3,-1,-2
1528440888846421,-3,-3,2,3,3,-1,-3,-2
1528440888861427,2,3,-3,-2,1,4,1,3
1528440888861427,-1,-3,-5,5,3,0,-3,-2
1528440888876323,1,4,13,5,8,5,3,0
1528440888876323,3,7,-7,-13,-9,-7,-5,-2
1528440888883302,2,1,0,-4,-3,0,0,2
1528440888883302,1,6,8,10,19,12,3,0
1528440888891282,-1,2,5,3,-3,-5,-3,-2
1528440888891282,-8,-15,-20,-15,-10,-9,-4,-4
1528440888898276,-1,-3,-5,-2,-3,-5,-4,-3
1528440888898276,-1,2,3,3,0,-1,1,1
1528440888913238,-4,-4,0,-5,-5,-8,-7,-6
1528440888913238,-1,1,-1,0,1,4,3,-1
1528440888921213,-1,-8,-16,-6,-4,-7,-4,-2
1528440888921213,-2,-3,1,5,-8,-4,-2,0
1528440888936160,-1,1,-1,-10,-4,1,-1,1
1528440888936160,-3,-6,-1,-7,-14,-12,-4,-2
1528440888943176,-2,0,3,5,10,9,4,1
1528440888943176,-1,0,0,3,8,7,3,0
1528440888951172,1,0,3,7,-1,-1,0,-1
1528440888951172,1,0,1,2,-3,-2,-1,2
1528440888958154,0,4,-2,1,0,0,-2,-1
1528440888958154,1,6,8,6,9,3,2,2
1528440888973093,-2,-2,-4,6,-3,-5,-4,-1
1528440888973093,0,-2,-1,-2,1,-1,-2,0
1528440888981042,-1,-1,-1,-5,-5,-4,-1,1
1528440888981042,2,1,0,-3,-4,0,1,1
1528440888996041,-2,-2,-6,-4,2,1,1,-2
1528440888996041,1,4,4,3,5,3,2,2
1528440889002982,-1,-2,-1,0,-1,-4,-2,-2
1528440889002982,-3,-2,0,-4,-7,-4,-2,-3
1528440889010961,-1,-3,-7,-7,-3,-5,-3,-1
1528440889010961,1,1,9,10,4,0,1,0
1528440889017943,-3,-4,-6,1,7,14,5,2
1528440889017943,-3,-5,-2,-1,-4,-3,-5,-3
1528440889040936,-2,-6,-18,-15,-6,0,-2,-2
1528440889040936,1,0,16,8,0,-5,-2,-2
1528440889047889,-3,-1,4,8,6,-1,-2,-2
1528440889047889,1,3,0,4,2,-1,0,1
1528440889062874,-1,-2,1,-1,0,-1,1,1
1528440889062874,0,2,-4,-9,-10,-4,-4,0
1528440889079828,-3,-1,0,1,-2,-5,-5,-5
1528440889079828,-1,0,-6,-3,2,6,4,0
1528440889096733,-1,-1,1,0,1,2,-1,0
1528440889096733,-3,-2,-6,-2,0,1,-2,-3
1528440889108752,-1,-1,-2,-3,-4,-3,-3,-2
1528440889108752,0,-2,1,1,-2,1,1,-1
1528440889123659,-2,-2,3,3,5,3,2,-1
1528440889123659,-1,-1,-5,-4,-2,1,-1,0
1528440889130681,-2,-1,-3,-2,-3,-1,-1,-1
1528440889130681,-3,-2,0,3,0,0,0,-2
1528440889145601,0,0,1,-2,-4,-3,-1,-2
1528440889145601,0,-3,-2,0,1,-1,0,-1
1528440889162607,-2,1,1,-2,1,2,2,0
1528440889162607,1,2,2,-3,-4,-5,-2,0
1528440889169550,0,1,-4,-4,-4,-2,-1,-1
1528440889169550,-3,-6,-9,-2,-1,0,0,-1
1528440889175573,0,6,8,3,3,1,1,0
1528440889175573,-2,-1,-1,-3,-2,-1,-1,0
1528440889190533,2,1,-1,-3,-3,-2,-1,0
1528440889190533,-1,2,2,-5,-4,-3,-1,0
1528440889198473,-3,6,4,0,-1,-1,-3,-2
1528440889198473,-5,-8,-6,0,-3,-1,-1,-1
1528440889214417,-2,-3,-2,0,-3,-2,0,-2
1528440889214417,-1,-5,-5,2,0,1,-2,-1
1528440889220402,3,-1,-7,-8,-6,-3,-3,-2
1528440889220402,-3,4,13,6,3,0,-2,-3
1528440889228529,4,4,0,-3,-4,-3,-2,3
1528440889228529,-7,-10,-9,-1,1,1,-1,-4
1528440889235391,1,0,-4,-5,-3,-3,-3,-3
1528440889235391,-2,-3,2,0,0,0,1,0
1528440889250495,-2,-6,-10,-3,0,0,-1,0
1528440889250495,-4,-8,-8,-1,0,-1,2,1
1528440889258594,-6,-5,-1,-4,0,0,-1,0
1528440889258594,0,-1,-4,-3,1,1,3,1
1528440889273425,1,3,2,-2,-1,0,0,-2
1528440889273425,1,2,3,-2,-2,-1,0,-2
1528440889280730,-3,-2,4,7,5,4,3,-1
1528440889280730,0,1,0,-1,0,-1,1,0
1528440889288553,-1,2,1,-2,-1,-1,-1,0
1528440889288553,-4,-7,-7,6,8,5,2,1
1528440889295533,3,8,5,1,-2,-2,0,1
1528440889295533,1,5,6,-5,-5,-3,-2,-1
1528440889310920,-1,-9,-7,0,4,2,0,-1
1528440889310920,3,7,6,-1,-2,-2,-1,-1
1528440889318916,-2,-4,1,0,0,0,1,1
1528440889318916,1,-2,-2,0,0,-1,-2,-1
1528440889333138,-4,-2,-3,-2,-2,0,-1,-2
1528440889333138,0,2,1,-1,-2,-2,-2,-1
1528440889347962,-1,-3,-2,0,0,-1,-2,0
1528440889347962,0,-3,-6,-3,-4,-3,-1,-1
1528440889356139,-2,-1,0,0,-1,-1,-1,0
1528440889356139,-1,3,1,0,0,-2,0,-1
1528440889363032,-1,-2,-3,1,-1,-1,1,-1
1528440889363032,-3,-3,-2,-2,-1,-1,-2,-2
1528440889377842,0,1,2,-1,-1,-1,-1,-1
1528440889377842,0,0,-1,0,0,-3,-1,-1
1528440889385822,1,-2,-2,-2,-3,-3,0,-1
1528440889385822,-3,-4,-2,0,0,-1,1,0
1528440889392860,0,-2,-1,-1,-1,-1,-1,0
1528440889392860,0,3,-2,-3,-3,-1,-2,0
1528440889401031,0,-2,-2,-2,-3,-1,0,0
1528440889401031,-2,-2,-2,-1,0,-2,0,-1
1528440889416133,-1,1,-5,-3,-2,-2,-1,-1
1528440889416133,-2,-3,0,0,1,1,0,-3
1528440889422974,-2,0,-3,0,0,-3,-2,-1
1528440889422974,1,3,-1,-3,-2,-1,-1,0
1528440889437935,-2,-2,-2,-1,-1,0,1,-1
1528440889437935,2,0,-2,-3,-1,-2,-1,0
1528440889445913,-3,-3,0,1,-2,1,0,-1
1528440889445913,0,-1,-4,-1,-2,-1,-2,-1
1528440889461225,-1,-2,2,0,-1,-2,-1,1
1528440889461225,-3,-5,0,0,0,-1,-1,-1
1528440889468875,-1,-1,2,1,-2,-1,-1,-1
1528440889468875,0,1,1,-2,-3,-3,-1,-2
1528440889475862,-3,-4,1,-1,1,1,-2,-2
1528440889475862,-1,-3,2,2,-2,-1,-2,-4
1528440889491876,-1,-2,-2,-4,-3,-2,-1,-4
1528440889491876,-1,0,-3,-4,-5,-3,-3,0
1528440889498856,4,3,-10,-6,-6,-4,-4,-2
1528440889498856,3,4,2,-2,-4,-1,-1,-1
1528440889513154,-1,-5,-5,-1,0,-2,-1,-2
1528440889513154,-3,-4,5,-2,1,0,-1,-3
1528440889521127,-12,-15,-2,6,5,4,1,-5
1528440889521127,0,0,-1,0,-1,-2,-3,-1
1528440889528128,-1,0,-2,-2,-2,-1,-1,-1
1528440889528128,-3,-1,-3,-2,-1,-3,-2,-1
1528440889536310,0,0,3,-1,-2,-2,0,-1
1528440889536310,-2,-4,-1,-2,-3,-1,-1,-2
1528440889551272,-5,-4,1,2,-1,-1,0,-2
1528440889551272,0,2,-1,0,0,-1,-1,-1
1528440889558245,-1,1,1,-1,-1,-2,-2,1
1528440889558245,-2,-4,-3,0,0,0,-1,-1
1528440889573188,2,1,-4,-2,-2,-2,-2,-1
1528440889573188,-2,-1,-4,-1,-2,-1,-3,-2
1528440889581262,-1,-1,1,-1,-2,-1,-1,-1
1528440889581262,0,-1,-2,-1,-1,-1,0,0
1528440889588376,-2,-3,-2,1,1,0,1,0
1528440889588376,0,0,-4,-2,-2,-1,-1,0
1528440889596201,2,1,-2,-3,-1,-2,-1,-2
1528440889596201,-3,-5,-8,-2,-2,-3,-3,0
1528440889611299,-2,0,8,2,0,1,-1,-2
1528440889611299,2,3,-2,0,0,-3,-2,-2
1528440889618302,1,1,-1,-3,-2,-2,-1,0
1528440889618302,-3,-2,-3,-1,-1,1,0,-1
1528440889633237,1,1,0,-3,-3,-2,-2,-1
1528440889633237,1,0,-7,-3,-2,-2,-1,-1
1528440889641240,1,4,2,-4,-4,-3,-3,-2
1528440889641240,-2,-2,-1,-2,-1,-1,-1,-2
1528440889648061,-2,0,-2,-2,-1,-1,-2,0
1528440889648061,1,0,-3,-2,-2,-3,-2,-2
1528440889656253,1,4,2,-2,-2,-2,0,0
1528440889656253,0,0,-1,-1,-2,-1,0,-3
1528440889671213,-4,1,-2,-1,0,-1,-1,-2
1528440889671213,-4,-3,2,-1,-2,0,-2,-1
1528440889678195,-3,-6,-5,0,-1,0,-1,-1
1528440889678195,-2,1,0,0,0,-1,-1,1
1528440889693189,0,-6,-8,-1,-3,-1,-2,-1
1528440889693189,0,6,10,2,-2,-1,1,0
1528440889701169,-2,-2,-3,-2,-3,-3,-1,0
1528440889701169,-3,2,0,-3,0,-1,-2,-2
1528440889708289,-2,-2,-5,-2,0,-2,1,-1
1528440889708289,-2,-5,-1,0,0,-1,-1,-2
1528440889716129,-2,-3,-3,1,-1,-1,1,-3
1528440889716129,-4,-3,-5,1,0,0,-2,-1
1528440889731095,0,-1,-2,-2,-2,0,0,-1
1528440889731095,-1,-1,3,-2,-1,0,1,0
1528440889738226,-4,-3,2,0,0,1,0,-1
1528440889738226,-1,-5,0,0,0,-1,-1,0
1528440889753400,-3,-1,1,0,-1,0,0,0
1528440889753400,-3,-2,-3,0,0,0,-2,-1
1528440889761378,1,-4,-1,-1,-2,0,-2,-2
1528440889761378,-1,-1,-5,-3,-2,0,-1,-2
1528440889768355,2,4,11,1,0,0,-2,0
1528440889768355,-1,-3,-5,-1,0,-1,0,-3
1528440889776334,0,0,0,0,0,-1,-2,0
1528440889776334,-3,-5,1,0,2,0,1,0
1528440889791292,1,-1,-2,-2,-2,-1,1,1
1528440889791292,0,0,-5,-2,3,2,0,1
1528440889798376,-3,-2,0,-1,2,0,0,0
1528440889798376,2,3,1,-3,-1,-1,-1,-1
1528440889813445,-3,-3,-3,-1,-1,0,-2,-2
1528440889813445,-2,-4,1,-2,-1,-2,-1,0
1528440889821373,-1,0,-3,-1,0,-3,0,-1
1528440889821373,2,2,1,-1,-2,-1,-1,0
1528440889828422,0,1,-1,-1,-2,-1,0,-1
1528440889828422,0,-1,-3,1,-1,-2,-1,1
1528440889836373,0,-1,-1,-2,0,-1,-1,0
1528440889836373,-2,-2,-2,-2,-3,-3,-2,-1
1528440889851361,1,-1,0,-1,0,-1,-2,-1
1528440889851361,-2,-3,-2,0,-2,-2,0,-2
1528440889858198,0,0,0,0,-2,0,-1,-1
