timestamp,emg1,emg2,emg3,emg4,emg5,emg6,emg7,emg8
1528440891876661,0,0,0,0,-1,-1,0,0
1528440891876661,-1,-2,-1,-1,1,0,-1,-1
1528440891878656,0,-1,0,-1,-1,0,-1,-1
1528440891878656,-2,1,-2,-1,-1,0,0,-1
1528440891879654,-1,1,-1,-2,-1,0,-1,1
1528440891879654,0,-2,-1,-1,-2,0,-2,1
1528440891880651,-1,-2,0,-2,-1,-2,0,1
1528440891880651,-2,-3,1,-1,-1,0,-2,0
1528440891887684,-2,0,0,-2,-1,0,-1,-1
1528440891887684,0,-1,-2,-2,0,-2,-1,0
1528440891894649,0,-1,-1,0,1,-1,0,-1
1528440891894649,0,-1,-1,-1,0,-1,1,1
1528440891908577,0,0,-3,-2,-2,0,-1,0
1528440891908577,1,-1,-1,-1,-1,1,0,0
1528440891920572,0,-1,-1,0,-1,0,0,-1
1528440891920572,1,-2,0,1,-2,0,0,-1
1528440891924561,0,0,-1,0,1,-1,-1,-1
1528440891924561,-2,0,1,-2,0,-1,0,0
1528440891938497,-1,1,-1,0,0,0,-1,-1
1528440891938497,-1,-1,0,-1,-1,-2,0,0
1528440891948471,0,0,0,0,-1,-1,-1,0
1528440891948471,-1,0,-1,-2,-2,-1,-2,-1
1528440891962432,0,1,-1,-1,1,0,0,1
1528440891962432,-1,0,-1,0,0,0,-1,-2
1528440892001328,0,-2,0,1,0,-1,-2,-1
1528440892001328,-1,0,-1,0,-1,-1,-2,0
1528440892003324,0,-3,0,-1,-1,-1,-1,0
1528440892003324,-2,-2,-2,-1,-1,-1,0,0
1528440892003324,0,-1,-2,-1,-1,1,0,0
1528440892003324,0,-2,-2,-2,0,-1,-2,-1
1528440892006315,-2,-1,0,0,-1,1,-1,-1
1528440892006315,0,0,0,-1,0,-2,-3,0
1528440892015296,0,-1,0,0,0,-3,-1,-2
1528440892015296,-1,-1,-1,0,-1,-2,0,-1
1528440892021275,-1,-1,-2,0,0,-2,-3,0
1528440892021275,0,-1,-2,-1,0,0,-1,-2
1528440892028257,0,1,-1,-2,-1,0,-1,0
1528440892028257,0,1,-1,-1,-1,-1,-2,0
1528440892043217,0,0,-2,-3,-1,-1,0,-1
1528440892043217,-1,0,1,0,0,1,-1,-1
1528440892051197,-2,0,0,-1,-1,1,1,1
1528440892051197,-2,-1,1,-2,0,0,1,0
1528440892060173,-1,0,0,0,-1,-1,0,0
1528440892060173,-1,0,-1,0,-1,-2,-1,1
1528440892074133,1,-1,1,1,-1,-1,-1,0
1528440892074133,-1,-1,1,0,0,1,-2,-1
1528440892081115,-1,-1,-3,-1,1,-1,0,-1
1528440892081115,-2,-2,-1,-1,-2,-2,0,0
1528440892088144,-2,1,-1,-1,-1,-3,-2,0
1528440892088144,-1,1,0,-1,0,-3,1,-1
1528440892112032,0,0,1,1,-2,-1,-2,0
1528440892112032,-2,0,-1,-1,-1,-1,-2,-2
1528440892113030,0,-3,-1,-3,0,1,-2,0
1528440892113030,-1,-1,0,-1,0,-1,-1,0
1528440892118044,1,0,-1,-1,0,1,-1,-1
1528440892118044,1,-1,-1,-1,1,0,0,-1
1528440892134013,-1,-2,-1,0,0,0,0,0
1528440892134013,0,-1,-1,0,-1,0,0,0
1528440892140994,-1,-1,0,1,-1,-2,1,2
1528440892140994,0,-1,-2,0,0,-2,0,0
1528440892147937,-1,0,-2,-1,-1,-1,0,0
1528440892147937,1,-2,-1,-2,0,-1,-1,-1
1528440892162897,0,0,-2,0,1,1,-2,0
1528440892162897,-1,0,-1,-1,-1,0,1,0
1528440892171872,-1,0,-1,-1,-1,-2,-2,0
1528440892171872,-1,-1,-1,1,-2,-2,0,0
1528440892177857,0,-2,-2,-2,-1,-1,0,-2
1528440892177857,-1,-1,0,0,0,0,-1,0
1528440892193814,-2,-1,1,0,-2,0,-3,0
1528440892193814,-1,0,1,-1,-1,1,-1,-1
1528440892200835,-1,-1,0,0,0,0,0,0
1528440892200835,1,0,-3,0,-2,1,0,1
1528440892207776,1,0,0,0,0,0,0,-1
1528440892207776,-1,-1,-1,0,0,-1,1,-2
1528440892222779,-1,0,-1,-1,-1,-1,0,-2
1528440892222779,0,1,1,-1,1,0,-1,-2
1528440892231713,-1,0,-2,-1,1,0,1,0
1528440892231713,-1,-1,-2,0,1,1,-2,0
1528440892238694,-2,0,-1,-2,0,-2,-1,-1
1528440892238694,-1,-2,1,0,-1,-1,-2,-2
1528440892253654,-1,0,-1,-1,-2,0,-1,-2
1528440892253654,0,1,1,-1,-2,-1,0,1
1528440892260635,0,0,-1,0,0,0,0,0
1528440892260635,0,-2,0,0,-1,0,-1,1
1528440892268614,0,-1,-1,1,0,-1,0,-1
1528440892268614,-1,-1,-2,0,-1,0,-1,0
1528440892283574,0,-1,-2,-3,0,-1,-1,0
1528440892283574,-2,-1,0,-1,-1,-2,-1,-2
1528440892291553,-1,-2,-2,0,-1,-2,1,0
1528440892291553,-2,0,0,-1,0,0,-1,-2
1528440892298534,-1,0,1,-1,0,0,-1,-3
1528440892298534,1,-2,-2,0,2,0,-1,-1
1528440892314493,0,-1,0,-1,-1,1,-2,-1
1528440892314493,-1,0,-2,-2,-2,-1,-2,-1
1528440892320477,-1,-1,1,0,-1,0,0,1
1528440892320477,1,-1,0,-1,-1,-1,0,-1
1528440892337431,0,-2,0,0,1,0,-1,-1
1528440892337431,-1,-1,-2,0,-3,0,-1,-2
1528440892343414,0,0,-2,0,0,-3,-1,-1
1528440892343414,-1,0,-3,-2,-2,-1,-1,1
1528440892352390,0,0,-1,0,-1,-2,0,-1
1528440892352390,-1,0,-1,0,0,0,0,-2
1528440892365396,0,0,-1,0,-1,-1,0,-3
1528440892365396,0,-1,0,-1,-1,-1,-1,-1
1528440892375358,-1,1,1,-3,-1,-1,0,-1
1528440892375358,1,-1,-1,0,0,0,-2,1
1528440892381313,-3,0,0,0,1,0,1,0
1528440892381313,-1,0,-2,-2,0,-2,-2,-1
1528440892397271,1,-2,-2,0,-1,0,0,-1
1528440892397271,0,-1,0,-2,-1,0,0,1
1528440892403254,-1,-3,0,-1,-3,0,1,0
1528440892403254,0,0,-1,1,-1,0,-2,-1
1528440892412230,-1,-2,1,0,-1,0,-1,0
1528440892412230,1,-2,1,-1,0,-2,-2,-1
1528440892426193,0,-1,-1,-1,0,-1,-3,-1
1528440892426193,-3,-2,-1,-3,-1,1,0,-1
1528440892435169,0,0,0,-1,0,-2,0,-1
1528440892435169,0,1,-1,0,-1,-3,0,0
1528440892441153,0,0,-3,0,-2,-1,1,1
1528440892441153,-1,1,0,-1,0,-1,0,0
1528440892457110,-1,-1,-1,-2,-2,0,-2,1
1528440892457110,-2,-1,1,0,-1,0,-1,0
1528440892463094,1,-1,-1,-2,-1,-1,-1,0
1528440892463094,1,-3,-1,0,-1,-2,0,-1
1528440892472072,0,0,-2,0,-1,-2,0,-1
1528440892472072,-3,-3,-3,-1,0,0,1,-2
1528440892486035,-1,0,0,-1,0,1,0,-1
1528440892486035,-1,0,0,-2,0,-2,1,0
1528440892495011,-4,-2,0,-1,1,-1,-1,-2
1528440892495011,-1,0,-1,0,-1,-3,0,-1
1528440892507976,-2,-1,0,0,-1,-2,0,0
1528440892507976,-1,1,1,0,0,-1,-1,-1
1528440892516952,0,-1,-2,1,-1,1,0,0
1528440892516952,2,-2,1,0,1,0,-1,-2
1528440892522936,-2,-2,-1,0,-3,-1,0,-2
1528440892522936,0,0,-1,-2,-2,0,-1,0
1528440892531929,0,0,0,-2,0,-2,0,1
1528440892531929,0,-1,-1,-1,-2,0,-1,0
1528440892554939,0,1,0,-3,0,0,-2,-1
1528440892554939,-1,-1,-1,0,-2,-1,0,-2
1528440892555889,-2,1,-2,0,0,-1,0,0
1528440892555889,0,-1,0,-2,-1,0,-1,-1
1528440892560852,-1,0,-1,-2,1,-2,-1,0
1528440892560852,-1,-1,-2,1,0,1,1,-2
1528440892577795,0,-1,1,-3,-1,-1,0,-1
1528440892577795,2,1,0,-1,0,-1,0,0
1528440892583795,-1,-1,-1,-2,-1,-1,-2,-1
1528440892583795,-1,-3,0,0,0,-1,-1,-1
1528440892592794,0,-1,-2,2,-2,0,-1,-1
1528440892592794,-3,0,2,-1,-2,1,0,0
1528440892605713,1,0,0,0,-2,-1,1,-1
1528440892605713,-1,0,-2,0,-2,0,0,0
1528440892614694,-2,1,0,0,0,0,-1,0
1528440892614694,0,1,-1,-1,0,-3,-1,-1
1528440892620674,-1,-1,-1,2,0,0,-1,-1
1528440892620674,-1,-2,-2,-2,-1,0,1,-1
1528440892637667,1,-1,-1,0,0,0,0,1
1528440892637667,0,-1,-2,0,0,1,0,-1
1528440892643648,1,-1,-1,-1,-1,0,-2,1
1528440892643648,-1,0,-1,-1,-1,-2,-1,0
1528440892652588,-1,-1,0,0,0,0,-1,-1
1528440892652588,-2,1,-2,0,0,-2,-1,-1
1528440892665554,1,-1,1,-1,0,0,0,-1
1528440892665554,1,0,-1,-1,-1,-1,0,-2
1528440892674536,0,0,-3,-1,1,-1,0,-2
1528440892674536,0,-1,-1,-1,0,0,-1,0
1528440892680514,-2,0,-2,0,-1,-1,0,0
1528440892680514,-1,0,1,1,-1,0,1,1
1528440892697469,0,-1,0,-2,0,-1,0,0
1528440892697469,-2,0,-3,-2,-1,1,-1,1
1528440892703453,-2,0,-2,0,-3,0,-2,-1
1528440892703453,0,-1,0,-1,-1,0,-2,-1
1528440892712465,1,2,0,0,-1,-2,-3,2
1528440892712465,-1,-1,1,0,-1,-1,-1,-1
1528440892725536,-1,0,0,0,1,-1,0,0
1528440892725536,0,0,-1,-1,1,-2,-1,-1
1528440892734509,0,-1,-1,0,1,-2,-1,-2
1528440892734509,0,0,0,-1,-1,-2,-1,-1
1528440892740519,1,-1,-1,0,-1,0,0,-1
1528440892740519,-4,-1,-1,0,0,0,0,1
1528440892757308,1,-2,0,0,0,0,3,-1
1528440892757308,-1,0,-1,-1,0,1,1,1
1528440892763450,-1,0,-2,0,0,0,0,0
1528440892763450,2,0,1,-1,-1,0,-1,0
1528440892772274,-2,-3,-1,-3,-3,0,0,0
1528440892772274,1,-1,0,0,0,-1,-1,0
1528440892786231,-2,-1,2,-1,-1,0,0,-2
1528440892786231,0,0,-2,0,-1,-1,-1,0
1528440892795208,-1,0,-1,0,-1,-1,-2,0
1528440892795208,1,-1,-1,-2,1,-1,-1,-1
1528440892801246,0,-2,-2,-1,0,-1,0,-1
1528440892801246,0,1,0,0,-3,-1,0,0
1528440892817149,-1,-2,0,-1,-2,0,-2,1
1528440892817149,0,0,1,0,-1,-2,-1,-1
1528440892823134,0,-1,-1,-1,0,0,-1,1
1528440892823134,0,-1,-1,-1,0,-1,1,-2
1528440892832108,-1,-2,-1,-2,1,-2,2,-1
1528440892832108,-2,-1,0,-2,1,0,0,0
1528440892846102,0,-2,-2,-2,0,1,0,0
1528440892846102,1,0,0,-1,-1,1,0,0
1528440892855079,0,-3,-1,1,0,1,-2,0
1528440892855079,-1,-2,-1,0,0,-1,-1,-1
1528440892861357,1,0,0,0,0,-1,-1,1
1528440892861357,-3,-1,0,-1,1,1,-2,0
1528440892876356,-1,0,-1,-1,0,-2,-2,-2
1528440892876356,0,-2,-1,0,-1,-1,-1,-1
1528440892883417,0,0,0,-1,-2,-1,-1,0
1528440892883417,0,-1,-2,0,1,0,-1,-1
1528440892892351,-2,0,0,-1,-1,-1,1,-2
1528440892892351,1,0,0,0,-1,-1,-1,0
1528440892905693,1,-2,0,0,-1,-3,-1,-2
1528440892905693,-1,-3,-2,-1,0,-1,0,0
1528440892914499,-1,-2,0,-2,0,1,0,-1
1528440892914499,-1,0,0,0,0,2,-1,0
1528440892920511,-1,1,0,0,0,-1,0,1
1528440892920511,-1,0,0,0,1,-1,-1,-1
1528440892935445,0,1,0,-1,-2,0,-1,0
1528440892935445,1,-2,-3,-2,0,-1,0,0
1528440892943457,-1,-1,-2,-1,0,1,-2,-1
1528440892943457,2,-3,0,0,0,-2,-1,0
1528440892952398,0,-1,-1,0,-1,1,-1,-1
1528440892952398,0,2,-1,-1,-2,-2,0,-1
1528440892965416,-1,-1,-1,-1,-1,-1,-1,-1
1528440892965416,-1,0,-1,-1,-1,1,-1,-1
1528440892974397,-1,-1,-1,0,-1,0,-1,-1
1528440892974397,-1,-2,-2,0,-3,-1,-1,-1
1528440892989357,0,-1,-1,1,-1,-2,-1,-2
1528440892989357,-1,-2,1,-1,0,0,-1,0
1528440892996293,0,-1,-2,0,0,-1,1,-1
1528440892996293,-1,-1,-1,0,-1,-2,-1,-1
1528440893012294,-1,-1,0,-1,-2,0,-1,-1
1528440893012294,0,-1,0,-1,-3,-1,-1,0
1528440893014242,0,-1,-1,1,-1,1,0,-2
1528440893014242,-3,-2,-2,0,-1,-1,-1,-1
1528440893026258,-1,-1,0,-1,1,0,-1,-3
1528440893026258,-3,-1,0,0,-1,-1,-1,-1
1528440893036174,0,-1,0,0,0,-1,-2,0
1528440893036174,-1,0,-2,1,-1,-1,-1,1
1528440893049141,-1,0,-2,0,0,0,-1,0
1528440893049141,0,-1,-1,-1,-2,1,0,0
1528440893063155,-2,-1,-3,-2,-3,-1,0,-1
1528440893063155,-1,0,0,0,0,0,-2,0
1528440893072133,-2,0,0,-1,-2,-1,-1,0
1528440893072133,2,-1,-1,-1,-2,-2,0,-1
1528440893074073,-1,1,0,0,-2,-2,0,0
1528440893074073,-1,1,1,-1,0,-1,-1,0
1528440893086096,0,0,-1,-1,0,-1,-1,-1
1528440893086096,-1,0,0,-1,0,1,-1,1
1528440893095067,1,0,1,-1,0,0,-2,-2
1528440893095067,0,-1,0,-1,-1,0,1,0
1528440893108981,0,-1,1,0,-1,0,2,-2
1528440893108981,-1,-1,-2,0,0,-2,0,0
1528440893116014,0,0,0,-1,-2,-3,-1,0
1528440893116014,0,-2,-1,-1,-2,-1,0,-2
1528440893131972,0,-2,-2,0,-2,0,0,-1
1528440893131972,1,0,-2,-1,-1,0,0,0
1528440893133913,-1,-1,-2,1,-1,1,2,-1
1528440893133913,1,1,1,2,0,0,-1,-1
1528440893145935,-1,1,-3,-1,-1,-3,0,-1
1528440893145935,-1,0,-1,0,0,-2,-2,-2
1528440893154860,0,-1,-1,0,0,-2,-1,-2
1528440893154860,-2,-3,-2,-1,0,1,0,-1
1528440893168820,-1,-2,-3,-1,0,1,-2,0
1528440893168820,-2,0,0,0,2,-1,0,1
1528440893175840,-2,-1,1,-2,-1,0,0,0
1528440893175840,-2,-1,0,-1,0,-3,0,0
1528440893191758,1,-2,0,0,-1,-1,-2,-1
1528440893191758,0,-1,-2,-1,0,1,-1,-1
1528440893193754,0,-3,-2,0,0,1,-1,0
1528440893193754,1,-1,0,0,-1,0,0,-1
1528440893205727,-1,-1,0,0,0,-3,0,0
1528440893205727,1,0,0,0,-2,-3,-1,-2
1528440893214717,0,1,0,-1,-1,0,1,0
1528440893214717,2,1,0,-3,-1,-3,0,-1
1528440893228717,0,-1,0,-1,1,0,1,0
1528440893228717,-1,-2,-1,0,-1,0,0,0
1528440893235697,0,1,1,0,-1,-1,-2,0
1528440893235697,-1,-1,-2,-3,-1,2,1,-1
1528440893252696,0,-2,1,-1,-1,-2,-1,-1
1528440893252696,-1,-1,-1,-1,-2,-1,-2,-1
1528440893253594,-2,-2,-1,-1,0,0,-1,0
1528440893253594,-2,0,-2,-2,0,-1,0,-1
1528440893265564,-2,0,-1,-1,-1,-1,0,-2
1528440893265564,0,-1,-1,-1,-2,0,0,0
1528440893274547,-1,-1,-1,-1,0,-2,-2,-2
1528440893274547,0,1,-1,0,-1,-1,0,-2
1528440893288835,-1,0,-1,0,-1,0,0,0
1528440893288835,0,-2,-1,-1,0,-2,-2,1
1528440893295806,-1,-1,1,-1,-2,0,-1,0
1528440893295806,0,-1,-1,0,-1,-1,-2,1
1528440893312640,-1,1,-2,-3,-1,-1,-2,-1
1528440893312640,-1,-1,-1,0,-2,-2,-2,-3
1528440893313617,0,-1,-1,0,0,-2,0,-1
1528440893313617,-1,-1,1,-1,0,0,-2,0
1528440893325920,0,1,0,1,0,1,-1,1
1528440893325920,-1,-1,0,-1,-1,1,0,1
1528440893342914,0,0,-1,0,-1,0,-1,0
1528440893342914,-1,-2,0,-1,-1,0,-2,0
1528440893348754,0,-3,-1,1,-1,-1,-1,0
1528440893348754,-2,1,-1,-1,0,0,0,-1
1528440893355834,0,-1,-1,-2,0,-1,0,0
1528440893355834,1,-1,-1,-1,-1,-2,-2,-1
1528440893372731,-1,0,0,0,-2,1,0,-2
1528440893372731,-2,0,0,-2,-1,-1,0,0
1528440893373648,0,-1,-1,1,0,0,-1,-1
1528440893373648,0,0,1,1,0,0,-1,-1
1528440893385617,-2,-2,-1,-1,1,1,-2,0
1528440893385617,0,1,0,0,-2,-1,-1,0
1528440893394620,-2,-1,-1,0,0,-1,0,0
1528440893394620,-2,1,-1,0,-1,0,-1,-1
1528440893409608,-1,-2,0,-2,-2,-1,1,0
1528440893409608,-1,-2,-1,-2,-2,0,2,0
1528440893415537,1,1,0,-1,-2,-1,0,-1
1528440893415537,1,-1,-1,1,1,1,-1,-2
1528440893432498,0,-1,0,0,0,-1,-1,-2
1528440893432498,1,-1,-2,-1,0,-1,-2,-2
1528440893433489,1,-1,-1,-1,-1,0,0,-1
1528440893433489,-3,1,-2,-1,-1,-2,0,1
1528440893445598,0,1,0,-1,0,-1,0,-2
1528440893445598,0,-1,1,0,1,0,-1,1
1528440893455434,-2,-2,-1,1,-1,-2,-2,-2
1528440893455434,0,-1,0,-1,1,1,0,0
1528440893477413,-2,-1,0,0,-1,0,1,-2
1528440893477413,-2,0,-2,-1,-1,-1,0,0
1528440893479408,-1,-1,0,0,-1,1,-1,-1
1528440893479408,-1,-1,-1,-1,-1,1,-2,-2
1528440893492533,-1,-1,-2,1,-1,-1,1,1
1528440893492533,-1,1,1,-1,0,1,-1,-3
1528440893494368,-2,-2,-1,-1,0,0,0,-2
1528440893494368,1,-1,-2,-3,-2,-1,1,-1
1528440893506424,-1,-1,0,-1,0,0,0,0
1528440893506424,0,0,0,-1,1,-1,-2,0
1528440893514312,-1,2,-1,-1,1,1,-2,0
1528440893514312,-1,-2,0,0,0,0,-1,0
1528440893529394,0,-1,-2,-2,-1,-1,-1,1
1528440893529394,-1,-2,0,1,-1,1,0,-1
1528440893536361,-1,0,-2,-1,0,0,-1,-2
1528440893536361,0,-1,1,0,-1,-1,0,-1
1528440893552415,0,-2,-1,-2,0,-2,-1,0
1528440893552415,-2,-2,-1,-1,1,-2,-1,-3
1528440893554250,1,0,-2,-1,-1,0,-1,-1
1528440893554250,-3,-1,-1,-2,0,1,1,1
1528440893566545,-1,1,0,-1,-1,-2,-1,0
1528440893566545,-1,-2,-2,-1,-3,0,0,0
1528440893575402,1,-2,0,-1,0,-1,-2,-1
1528440893575402,-2,0,0,0,0,-1,-2,1
1528440893589364,0,-1,0,1,-1,1,-1,-1
1528440893589364,-2,0,0,0,0,0,-1,-1
1528440893595871,-2,0,-1,0,-1,1,-1,1
1528440893595871,1,-1,0,0,0,-1,0,-2
1528440893611945,-2,-1,-1,0,0,2,0,-2
1528440893611945,2,-1,-1,-1,-2,-1,0,-2
1528440893617765,0,0,-2,0,-1,-3,0,0
1528440893617765,-2,0,0,0,-1,-1,0,-1
1528440893625757,-1,-2,0,0,0,-1,1,-1
1528440893625757,-1,-1,-1,0,-1,-1,-2,-1
1528440893634719,-1,-2,-1,-1,-2,0,0,0
1528440893634719,0,-1,-2,0,-1,-1,-1,-1
1528440893648738,-1,-1,1,0,1,0,-2,-1
1528440893648738,0,1,-1,-1,1,0,1,-1
1528440893655666,-1,0,0,-1,-1,0,-1,0
1528440893655666,-3,-2,0,0,0,-1,-1,0
1528440893671621,1,0,-3,-1,-1,-1,0,-1
1528440893671621,-2,0,-1,1,1,0,0,1
1528440893678784,-2,-1,0,0,0,-1,0,-1
1528440893678784,1,0,0,0,-1,-1,0,-1
1528440893685805,0,-1,-1,-2,-2,-1,-1,0
1528440893685805,-1,-1,0,-1,-2,0,-1,1
1528440893702723,-1,0,-2,0,0,-1,-1,-2
1528440893702723,-1,-1,-1,-2,-1,-1,0,-1
1528440893708835,0,-1,-1,1,-1,0,-1,-2
1528440893708835,0,-1,-1,0,-1,-1,-1,-1
1528440893715868,-1,-1,0,-1,1,-1,-1,-1
1528440893715868,-1,-1,0,-1,-1,-1,-3,0
1528440893731826,0,0,-1,-2,0,0,0,0
1528440893731826,-3,0,0,-1,-1,0,-1,-1
1528440893737809,1,0,0,-1,0,0,-1,0
1528440893737809,-1,0,0,0,0,-2,1,-1
1528440893745788,0,-1,0,-1,-1,0,-2,-1
1528440893745788,1,-1,-2,-1,-2,1,0,0
1528440893754764,-2,-2,0,0,0,0,-1,-1
1528440893754764,0,0,-1,0,-1,0,-1,0
1528440893769091,-1,-1,0,0,-2,-2,-3,-2
1528440893769091,-2,-1,-1,0,0,-1,-1,-1
1528440893776245,-1,0,1,-1,-1,-1,0,-1
1528440893776245,0,-3,0,-1,-2,1,0,-1
1528440893792081,-1,-1,-2,-1,-1,0,1,1
1528440893792081,0,0,-1,-2,-1,-1,-2,1
1528440893798153,0,-1,-1,-1,-2,1,1,0
1528440893798153,0,-2,-1,0,-1,-1,0,-2
1528440893815097,0,1,0,0,0,-1,-1,0
1528440893815097,-2,-1,0,0,-1,-1,0,-2
1528440893816083,-1,-1,-1,0,-1,-1,-1,1
1528440893816083,1,0,-1,-1,-2,1,-1,-2
1528440893829242,-1,-2,0,-2,0,0,1,-1
1528440893829242,-1,0,-1,-1,1,-1,0,-1
1528440893836341,-1,-1,0,-1,-2,0,0,-1
1528440893836341,-2,-1,-1,-1,-1,0,-2,0
1528440893851155,0,-2,0,-1,-1,0,0,0
1528440893851155,1,-1,-1,-1,2,-1,0,0
1528440893858134,1,-1,0,-2,0,0,0,-1
1528440893858134,0,0,0,0,0,-1,0,-1
1528440893875110,-1,1,2,0,-1,-1,-1,-1
1528440893875110,-1,0,-1,-1,-1,0,-1,0
1528440893876080,-1,-2,-2,-1,1,0,-1,-1
1528440893876080,-1,0,-2,-1,1,-1,-1,-1
1528440893897968,0,-1,0,-1,-1,0,0,-1
1528440893897968,-1,-1,-2,0,-1,-2,-1,-1
1528440893900931,0,-2,-1,-1,-3,-1,-1,-3
1528440893900931,1,-1,0,-2,-1,-1,-2,-1
1528440893911199,-2,-1,-2,1,-1,0,0,0
1528440893911199,0,0,-1,0,-1,0,-1,-1
1528440893918185,0,0,-1,-2,-1,0,-1,0
1528440893918185,-2,-1,-3,0,0,-1,0,-1
1528440893935235,0,-1,-2,0,-2,-1,0,0
1528440893935235,-1,-1,1,-1,-2,-2,-3,0
1528440893936135,-1,-2,0,0,0,-1,-1,0
1528440893936135,0,-1,1,-2,-1,-1,0,0
1528440893949235,1,-2,-1,-2,0,-2,-2,-2
1528440893949235,0,0,0,-1,0,0,-1,1
1528440893956217,0,0,-2,0,0,-1,-2,1
1528440893956217,0,-1,1,-1,1,-2,-2,0
1528440893971333,0,2,0,-1,0,0,0,0
1528440893971333,-1,-2,-1,0,0,0,0,-1
1528440893978342,0,-2,0,0,0,-1,-2,-1
1528440893978342,1,-1,-1,1,-1,-1,-1,0
1528440893994533,-1,-1,-1,-1,0,-1,1,0
1528440893994533,0,-1,-1,0,0,0,1,-1
1528440893996383,-1,0,1,-1,-1,-2,1,0
1528440893996383,-1,-1,1,-1,-2,-1,0,-1
1528440894009395,-2,0,0,-1,0,-1,-3,-1
1528440894009395,1,-1,-2,0,-1,0,-1,-1
1528440894016383,-1,0,-2,0,-1,-1,1,2
1528440894016383,0,-1,0,0,-1,0,0,1
1528440894031290,1,-1,0,-1,0,1,-1,0
1528440894031290,-2,-1,-3,0,-2,-1,1,-1
1528440894038270,1,-1,-1,0,0,0,1,-1
1528440894038270,-2,-2,-1,-1,0,1,0,-3
1528440894055257,-1,0,0,-1,-1,0,-2,0
1528440894055257,0,-1,1,0,-2,-2,-2,0
1528440894056223,-1,0,1,1,0,0,-1,-2
1528440894056223,0,-2,-3,-1,0,0,-1,0
1528440894069350,-1,-1,-2,-2,-2,0,1,-1
1528440894069350,-1,-2,0,-2,0,0,-1,-1
1528440894076170,-2,-1,-1,-1,-1,0,0,0
1528440894076170,-1,0,-2,-1,-1,1,-2,0
1528440894091464,1,-2,-1,-2,1,-2,-1,-1
1528440894091464,0,-1,-2,-1,0,-1,1,-2
1528440894098446,1,0,-2,-3,0,0,0,0
1528440894098446,-1,0,0,0,-1,-1,0,-1
1528440894122394,-1,1,-1,1,-1,-2,0,0
1528440894122394,-2,1,-1,0,1,-1,-2,-1
1528440894123381,2,-1,0,-1,0,-2,-2,-1
1528440894123381,-1,0,-1,-1,-2,0,0,-1
1528440894128736,-2,-1,-1,2,-1,-1,-2,0
1528440894128736,-2,-1,0,-1,0,1,-1,0
1528440894135708,-1,-1,-1,0,-1,-2,-1,0
1528440894135708,-1,-2,0,-1,0,0,-1,-1
1528440894151651,0,0,0,-1,-1,-1,-2,-1
1528440894151651,0,0,0,0,-1,-1,0,-1
1528440894158764,-1,0,2,-1,-3,-1,0,-2
1528440894158764,0,-1,-1,-1,-1,-2,-1,-1
1528440894174737,0,-1,-2,0,-1,-1,0,-1
1528440894174737,-1,0,-1,0,-1,-1,-1,-1
1528440894176840,0,-1,-1,-1,0,-1,-1,-1
1528440894176840,0,0,-1,-1,0,0,0,-1
1528440894188690,-2,0,-2,-2,-1,-1,-1,-2
1528440894188690,1,1,1,-2,0,-1,0,0
1528440894195671,0,1,-1,-1,0,0,1,0
1528440894195671,-1,-2,-1,-2,0,-2,0,-1
1528440894211766,1,-1,-1,1,1,-1,-1,-1
1528440894211766,-1,-1,1,-2,-2,0,0,1
1528440894218616,-1,-2,-2,1,-1,-1,-1,-1
1528440894218616,0,-1,-1,0,-1,-1,0,1
1528440894234700,0,-2,-1,-1,-1,0,-1,-1
1528440894234700,1,-2,-1,-1,-1,0,-1,0
1528440894236558,-1,-2,0,0,0,0,-2,-2
1528440894236558,-1,-1,-1,0,-1,-1,0,-1
1528440894249555,0,0,-1,-1,0,1,0,1
1528440894249555,0,-1,-1,0,0,-1,-1,-2
1528440894255866,0,-2,0,-2,-1,1,0,1
1528440894255866,1,-1,0,1,0,0,-1,-2
1528440894271936,0,1,1,-2,0,-1,0,-2
1528440894271936,0,-1,0,-1,-1,-1,0,-1
1528440894277921,-1,-1,-1,0,-1,-2,-1,-1
1528440894277921,-2,1,-2,0,-2,0,0,-1
1528440894294875,-1,-1,-1,-1,-1,0,0,-1
1528440894294875,-1,0,-1,0,-1,-2,0,0
1528440894295902,-2,0,-1,0,-3,-1,-1,-1
1528440894295902,-1,0,0,-2,-1,-1,-1,-1
1528440894308891,1,-1,1,-1,-1,-1,0,-1
1528440894308891,1,-3,-1,0,0,-1,0,0
1528440894317814,0,0,0,-1,-1,-1,0,0
1528440894317814,0,-1,-1,-1,-1,-1,-1,-1
1528440894331985,-2,-2,-1,0,-1,-1,0,-1
1528440894331985,-1,-2,-2,-1,1,1,-1,0
1528440894338134,-1,0,-1,-2,1,0,-1,2
1528440894338134,-1,1,-1,-1,1,0,-1,1
1528440894354347,0,1,-1,-1,-1,-2,0,-2
1528440894354347,-2,0,-1,-1,-1,-1,-1,-1
1528440894356345,0,-1,-3,-2,1,-1,-1,-2
1528440894356345,0,0,-2,-1,0,-1,-1,-2
1528440894368448,0,0,0,-2,0,0,-2,1
1528440894368448,-1,1,0,-1,-1,0,-1,-1
1528440894385280,-1,-1,-1,-1,0,-3,-2,-2
1528440894385280,0,-1,0,1,-2,0,-1,0
1528440894391387,-1,-2,-1,1,-1,-1,-1,1
1528440894391387,-1,0,-1,-1,-1,-1,0,0
1528440894398232,0,-1,0,1,-2,0,1,-1
1528440894398232,1,0,0,-1,0,-2,0,-3
1528440894422330,-2,1,-2,0,-1,1,-2,0
1528440894422330,-1,1,-1,0,-1,-1,0,-1
1528440894424163,0,-1,-1,-1,-1,-1,0,-1
1528440894424163,-1,0,-1,-2,-1,-2,1,0
1528440894428309,0,-2,-1,-2,-2,-2,1,-2
1528440894428309,0,0,0,-1,0,-2,0,1
1528440894437140,-1,0,0,1,-1,-1,-1,1
1528440894437140,-3,-2,-1,0,-2,0,0,0
1528440894451466,0,0,-1,-1,0,0,-1,-1
1528440894451466,0,-1,0,0,0,-2,-2,-2
1528440894458440,-2,0,-1,-2,0,-1,-1,-2
1528440894458440,-1,-2,-1,-2,-1,-1,-1,0
1528440894475280,-1,0,-2,-1,-1,-2,0,0
1528440894475280,-1,0,-2,0,0,0,1,-1
1528440894476249,0,0,-1,0,-2,0,0,1
1528440894476249,-1,0,-1,1,0,0,0,-2
1528440894488343,-1,1,1,-1,0,1,1,-1
1528440894488343,0,-1,0,0,-2,0,0,0
1528440894497180,-1,0,-1,-2,1,0,0,-1
1528440894497180,1,-1,-1,0,0,-1,0,0
1528440894511522,0,0,0,2,-1,-2,-1,0
1528440894511522,0,-2,1,-1,-3,0,-1,1
1528440894518500,-1,0,-3,-1,0,0,0,-2
1528440894518500,-1,0,1,0,0,-1,0,-1
1528440894534476,-2,-1,0,-1,-1,-2,-1,-2
1528440894534476,-2,0,-2,0,-2,-1,-1,0
1528440894536315,0,-1,0,0,-2,-1,0,0
1528440894536315,0,-1,-3,-2,-1,1,-2,0
1528440894548847,0,-2,0,0,-1,-1,-1,1
1528440894548847,-2,-1,-1,-1,0,1,-1,0
1528440894557909,0,0,0,-2,-1,0,-1,-1
1528440894557909,1,1,-1,0,-3,-1,1,-1
1528440894571969,-2,-1,-1,-1,0,1,-1,0
1528440894571969,-1,-2,1,-2,1,-1,0,-2
1528440894578111,-1,-2,-1,1,1,-2,-2,-1
1528440894578111,-2,-1,1,-1,-1,-1,-1,-1
1528440894594013,-1,-1,0,-1,0,-1,0,-2
1528440894594013,0,0,-1,0,-1,-1,-2,-1
1528440894601153,-2,-1,0,-1,-1,-1,0,0
1528440894601153,0,0,-1,0,-2,0,-1,-1
1528440894607981,0,0,1,0,-1,-2,1,0
1528440894607981,-1,-2,-2,0,0,1,1,-1
1528440894617101,1,0,0,-2,-2,-2,0,0
1528440894617101,0,-3,1,-1,0,-1,-2,-1
1528440894631914,0,-1,-1,0,-2,0,-2,0
1528440894631914,0,-1,-2,0,0,-1,0,1
1528440894638897,-2,0,-2,0,0,-1,0,-1
1528440894638897,1,1,-2,-1,1,0,1,-1
1528440894653957,-1,0,-1,-1,-2,-2,-2,-1
1528440894653957,0,0,-1,0,-2,-2,-2,0
1528440894662182,0,-2,-1,-1,-2,-1,0,0
1528440894662182,-1,-2,0,0,0,-2,0,0
1528440894668113,0,0,-1,-1,0,-1,0,-1
1528440894668113,0,0,-1,0,0,-1,0,0
1528440894677104,-1,-1,-2,-1,1,-1,-1,-1
1528440894677104,-1,0,-1,1,0,-1,0,1
1528440894700062,0,0,-2,-1,0,-1,-1,-1
1528440894700062,0,-1,-2,-1,-1,0,0,-1
1528440894701034,0,0,0,-1,-1,-1,-1,0
1528440894701034,1,-2,1,-1,-1,-1,0,1
1528440894713990,-1,0,-1,0,0,1,-1,0
1528440894713990,0,0,0,-1,0,-1,-1,-1
1528440894721114,-1,-1,-2,-1,-2,-1,-1,-1
1528440894721114,0,-1,-2,0,0,-1,0,-3
1528440894728086,0,-1,-1,0,-1,-1,0,-2
1528440894728086,1,0,0,-1,0,1,-1,-1
1528440894737070,-2,-1,-1,0,0,-1,-2,-1
1528440894737070,-2,-2,-1,0,-2,-1,-1,0
