timestamp,emg1,emg2,emg3,emg4,emg5,emg6,emg7,emg8
1528276699252769,-2,-1,-1,-1,0,-1,-1,-1
1528276699252769,-1,-2,0,-1,0,-2,-2,-1
1528276699253765,-1,0,0,-1,-2,-1,0,0
1528276699253765,-1,0,-1,0,-3,-1,-2,0
1528276699265734,-1,-2,-1,0,-1,-1,-1,0
1528276699265734,0,-2,-3,-1,-1,-1,-2,-2
1528276699266731,-1,-1,-1,-1,-3,-2,-1,0
1528276699266731,-2,-1,-1,-1,-1,0,-1,-2
1528276699267750,-1,0,0,0,-2,-2,-1,-2
1528276699267750,-1,1,-1,1,-1,-1,-2,-2
1528276699271717,-1,-1,-3,-5,-1,0,-2,-3
1528276699271717,0,-1,-1,0,-2,0,0,-1
1528276699280714,0,1,1,2,0,-1,-2,-1
1528276699280714,0,-1,-2,-2,-2,0,0,0
1528276699293661,0,1,-2,-4,-1,-1,-2,-1
1528276699293661,-2,-2,-1,-2,-1,-2,-2,-2
1528276699302645,-1,-2,-2,0,0,-2,-1,2
1528276699302645,-1,-1,-1,0,-1,-1,-3,-5
1528276699325592,-1,-1,0,0,2,-1,0,1
1528276699325592,-1,-2,-1,0,-1,-2,-1,-1
1528276699326570,-1,-2,-2,-4,-2,0,0,-2
1528276699326570,-1,-3,-1,2,-1,-1,0,0
1528276699338583,-2,-2,-2,0,-2,0,0,-2
1528276699338583,1,-1,1,-1,0,-1,-2,-1
1528276699347515,-2,-1,-1,-1,-1,-2,-1,-2
1528276699347515,-1,-2,-1,-3,-1,-2,-1,1
1528276699362512,-2,-3,-1,1,-2,-1,-2,-1
1528276699362512,-1,-1,-1,-1,0,1,0,0
1528276699364469,1,-1,0,-2,-1,0,-1,-1
1528276699364469,-1,-1,0,-1,-1,0,-1,-2
1528276699385458,0,-1,0,1,1,-1,-1,0
1528276699385458,0,-1,-2,-1,0,-1,0,-1
1528276699386411,-1,-4,0,-3,-1,-2,0,-2
1528276699386411,-2,-1,-2,-2,0,0,0,0
1528276699399378,0,-2,-2,0,-2,-3,-1,0
1528276699399378,-2,-1,-2,-2,0,-1,1,-1
1528276699407354,0,-1,-1,0,1,-1,0,0
1528276699407354,-1,0,-2,-1,-1,0,-1,-2
1528276699430313,-1,-3,-1,1,-1,-2,-2,-2
1528276699430313,-2,-1,-1,0,-1,-2,-2,-2
1528276699431292,-1,-1,0,-1,-1,-2,1,-1
1528276699431292,-2,-1,0,-4,-1,1,0,0
1528276699445253,0,-1,-1,1,0,0,0,0
1528276699445253,0,-1,0,1,-1,-1,0,0
1528276699446252,-1,-1,-1,-1,-1,0,-2,-3
1528276699446252,0,-3,-1,0,-2,-2,-2,-1
1528276699459259,1,-2,-2,-1,-1,-1,-1,-2
1528276699459259,-1,-2,0,-1,1,-2,-1,-1
1528276699468245,0,-1,-2,0,-1,-1,-2,0
1528276699468245,-1,-1,-1,-2,-1,-1,0,0
1528276699482182,-2,-3,1,-2,-1,0,-2,-1
1528276699482182,-2,0,-1,-2,-2,-1,-1,0
1528276699484150,0,-2,-1,1,-1,-1,0,-2
1528276699484150,-2,-1,-1,-1,-1,-1,-2,-1
1528276699513072,0,1,0,0,0,-2,-1,-1
1528276699513072,1,-1,-1,0,-2,0,-1,2
1528276699514069,-1,0,-1,0,0,0,-2,-6
1528276699514069,0,-2,-2,2,-1,0,1,-2
1528276699519056,-2,-1,-1,-2,-1,0,0,-3
1528276699519056,0,0,0,-3,-2,-2,0,-1
1528276699528035,-1,-1,-1,-2,-1,-1,0,0
1528276699528035,0,0,-1,-1,0,-2,-1,-1
1528276699543020,0,-1,-1,-2,-2,1,-2,-2
1528276699543020,0,0,-3,-1,0,-2,0,-2
1528276699543990,-1,-2,-2,-1,-1,-1,0,-1
1528276699543990,-3,-2,-2,-1,-2,-2,-2,-1
1528276699564933,-1,-2,-1,0,-3,-1,0,1
1528276699564933,0,-2,-1,0,-1,-2,-1,-2
1528276699566928,0,-1,-2,0,0,1,-1,1
1528276699566928,-1,0,0,-1,-2,-1,0,-1
1528276699578923,-1,-1,1,1,-2,1,-1,-2
1528276699578923,-2,0,-1,0,-1,-1,-1,0
1528276699587873,-2,-1,-1,-2,-2,-1,-1,0
1528276699587873,-1,0,-2,-1,-1,-2,-1,-1
1528276699602833,-1,0,-1,-2,0,-1,0,0
1528276699602833,1,-2,0,0,0,-1,-1,-2
1528276699603830,0,-1,-1,-1,-2,0,-2,1
1528276699603830,-2,-1,-1,-2,0,0,0,-2
1528276699624788,0,-1,-2,1,-1,-1,-1,-1
1528276699624788,-1,-2,-3,-1,-1,0,-1,-1
1528276699626769,-1,-1,-1,-1,-1,-2,-1,-1
1528276699626769,0,-1,-2,-1,-1,-1,0,-1
1528276699638765,-1,-1,0,-2,-1,0,-2,-1
1528276699638765,-1,-1,0,0,-2,-1,-1,0
1528276699647714,-1,-1,-1,-1,-1,-1,-2,-1
1528276699647714,-2,-1,0,-1,-1,-1,0,-2
1528276699662674,-2,0,-1,-1,-2,-1,-1,0
1528276699662674,-1,1,-1,-2,-3,0,-1,-2
1528276699664669,-2,-1,0,-1,-1,-1,0,-3
1528276699664669,-1,-1,-1,-1,-2,-1,-1,-2
1528276699685611,-1,0,-1,-2,-2,-3,-1,0
1528276699685611,1,-2,0,0,-1,0,1,-1
1528276699686609,-2,-1,-1,0,-1,0,-3,-3
1528276699686609,-1,0,-1,-2,-2,-2,-1,-1
1528276699698605,-3,-3,-1,0,0,-1,1,-2
1528276699698605,-2,-1,-2,-1,0,-1,-2,-2
1528276699707552,0,-2,-1,-3,0,-2,-2,2
1528276699707552,-1,-2,0,0,-2,-2,1,4
1528276699722513,1,0,0,-1,0,-2,-1,-4
1528276699722513,-1,0,-1,-1,0,-2,-2,-2
1528276699724508,0,0,1,-1,-1,-1,-1,-1
1528276699724508,0,-2,-3,-1,-2,-1,-1,-2
1528276699745461,-1,-1,-3,-1,-2,-1,-1,-1
1528276699745461,1,-2,-2,-2,-2,-1,-1,1
1528276699746450,1,0,-1,-1,1,-1,0,0
1528276699746450,0,-1,0,0,-1,-1,-1,-3
1528276699758434,0,-1,-2,-2,-3,1,0,-1
1528276699758434,-2,-1,1,0,-1,-1,-1,-2
1528276699767445,-2,-1,-1,-1,-1,-1,-1,-1
1528276699767445,0,-2,-1,-1,-2,1,-1,0
1528276699782396,1,-4,0,-2,-2,0,-2,0
1528276699782396,-1,-1,-2,1,-1,-1,-1,-1
1528276699788336,0,-2,-3,-3,-2,-1,0,0
1528276699788336,-2,0,0,-1,0,-1,-1,0
1528276699805328,0,1,-1,-1,-1,-2,-1,0
1528276699805328,-1,0,0,-2,-1,-2,0,-2
1528276699807464,-1,-1,0,-1,-2,0,-1,-1
1528276699807464,-3,0,0,0,0,-1,-2,1
1528276699819442,-3,-1,-3,-2,-2,-1,-3,-4
1528276699819442,0,-2,-2,-1,-1,-2,-2,-1
1528276699828231,0,-2,-1,0,-2,0,-1,-2
1528276699828231,-1,0,-2,-1,-2,-1,-1,-2
1528276699842243,-1,-1,0,1,0,-1,0,0
1528276699842243,0,-1,-3,-3,-2,-1,-2,-1
1528276699849211,0,-2,-2,-3,-3,0,1,0
1528276699849211,0,-2,-2,0,1,0,-4,-5
1528276699866179,0,0,-1,0,1,-1,-1,-2
1528276699866179,-2,-1,-2,-2,-1,0,-2,-1
1528276699867177,0,-2,-1,-2,-1,-2,-1,1
1528276699867177,0,0,-1,0,0,-1,0,1
1528276699879114,0,-1,0,-1,-2,-1,0,-2
1528276699879114,-2,0,-1,-3,-1,-2,-1,-1
1528276699888100,0,-1,0,-1,-2,-2,-2,0
1528276699888100,0,-1,0,1,0,-2,-1,-1
1528276699902059,-2,-2,1,-1,-2,-1,-2,-1
1528276699902059,0,-2,-1,0,-4,0,1,-1
1528276699909024,-2,0,-2,-2,0,0,-2,-2
1528276699909024,-3,-2,-1,-4,-3,-1,-1,-1
1528276699924971,-2,0,-1,-1,-1,-2,-3,-5
1528276699924971,-2,-1,-1,1,0,0,-2,-2
1528276699926965,-1,0,-1,-1,0,-1,0,-1
1528276699926965,0,-1,-2,0,0,-1,-1,-2
1528276699938934,-2,-2,-1,-1,0,-1,0,2
1528276699938934,1,0,-1,-3,-3,-1,-3,-2
1528276699947924,-1,-1,-1,-1,-2,-1,-1,-2
1528276699947924,1,0,2,0,-3,-2,-1,1
1528276699961874,0,-1,0,-1,-1,-2,0,1
1528276699961874,-1,-1,-1,-1,0,-1,-1,-2
1528276699968854,-1,-1,0,-1,0,-3,-1,-1
1528276699968854,-2,-1,-3,-4,-3,-1,0,-1
1528276699984848,-1,-1,-1,0,-1,0,-5,-4
1528276699984848,-1,-1,-1,-2,-1,-1,0,-1
1528276699986807,-1,-1,0,-1,-1,-1,-1,-1
1528276699986807,0,0,0,0,-1,2,-1,-1
1528276699998774,-1,0,0,0,0,-2,-1,0
1528276699998774,-3,-3,-2,-1,-2,-2,-1,-1
1528276700007762,0,-2,-1,-1,0,0,-1,0
1528276700007762,-1,-2,-1,-1,0,0,-2,-1
1528276700021726,-1,0,-1,-4,-1,0,1,0
1528276700021726,1,1,0,-1,0,-1,-1,-1
1528276700030689,-1,-1,-1,0,-3,-2,-2,-2
1528276700030689,-2,0,-2,-1,-1,-1,-1,-3
1528276700044670,-2,-2,-1,1,-1,0,0,0
1528276700044670,-2,-1,0,1,0,-1,-1,-2
1528276700046670,-2,0,-2,-1,-2,0,0,-1
1528276700046670,0,-1,0,-1,-2,-1,-2,-1
1528276700067715,1,-3,0,-1,-1,-2,0,0
1528276700067715,-1,0,-1,-2,-1,0,0,-1
1528276700069585,0,0,0,-1,0,0,-2,-2
1528276700069585,-2,-1,-1,-2,-1,-1,0,-1
1528276700082803,0,-1,0,1,0,-1,-1,-2
1528276700082803,-2,-2,0,-1,-2,-2,-2,-1
1528276700088535,0,-2,-2,-1,1,-2,-2,0
1528276700088535,-1,-2,-1,-1,-2,-1,1,-1
1528276700105491,0,-1,-1,-3,-1,-2,-1,0
1528276700105491,0,-2,-2,-2,0,0,-1,0
1528276700106501,-2,-1,-1,-2,0,0,-2,-1
1528276700106501,-1,-2,0,0,-2,0,1,1
1528276700127453,-2,-1,-2,0,-3,-1,-1,0
1528276700127453,-1,-2,-1,0,-1,-1,-2,-1
1528276700129426,0,0,-2,-1,-2,-2,1,0
1528276700129426,-1,-2,-1,-3,0,-1,-3,-2
1528276700142024,-1,-1,0,-1,0,1,0,0
1528276700142024,-3,-1,-1,-1,-1,-2,-2,-3
1528276700150727,-2,-1,-1,0,-2,-1,0,-3
1528276700150727,-1,-1,-1,2,0,-2,-1,-2
1528276700165638,-2,-1,-2,1,-2,-2,-3,-2
1528276700165638,-1,0,-2,-1,0,-1,0,-1
1528276700166639,-1,-1,-1,-1,0,-1,-2,-1
1528276700166639,1,-1,-3,-1,-1,-2,-1,-1
1528276700187807,-1,-1,-1,-1,-2,0,-1,0
1528276700187807,0,-1,-1,-2,-1,-1,1,-1
1528276700189575,0,-1,-1,-1,-2,-3,0,-1
1528276700189575,-2,-2,-2,-1,-2,0,-2,-1
1528276700201781,-2,-2,-2,0,0,-1,-3,-2
1528276700201781,-1,-1,-1,-3,-2,-2,-1,0
1528276700210518,-2,-2,-1,-2,-2,-1,-3,-2
1528276700210518,-2,-2,0,-1,-1,0,-2,-1
1528276700223524,-1,-2,-2,-1,0,-1,-1,-2
1528276700223524,-1,0,0,-1,-1,0,-1,0
1528276700232459,0,-3,-1,1,1,-1,-1,0
1528276700232459,0,-3,-1,-2,0,-2,-1,-1
1528276700247451,-1,0,0,-2,0,0,0,-2
1528276700247451,0,0,0,0,0,-1,-2,-2
1528276700249415,-1,-1,0,-3,-2,-2,1,-1
1528276700249415,-1,-1,-1,-1,1,-1,-1,-1
1528276700270405,0,-1,-1,-2,-2,-2,0,-3
1528276700270405,-1,-2,-1,-1,-3,0,-2,1
1528276700271394,-2,0,-2,-1,-1,1,0,-2
1528276700271394,-2,1,0,-2,-1,0,0,0
1528276700283377,-1,0,-1,-2,0,-2,0,1
1528276700283377,-1,-2,-2,0,-2,-1,-3,-3
1528276700293296,0,-2,-1,-1,-2,-1,-3,-3
1528276700293296,-1,1,0,1,0,-3,2,3
1528276700306261,0,-2,-1,0,-1,1,0,-2
1528276700306261,-1,-1,-2,0,0,0,-1,0
1528276700321278,-1,-1,0,-2,-2,0,-2,0
1528276700321278,1,0,-1,-3,0,0,-1,-1
1528276700330212,0,0,0,-2,-1,-2,-1,0
1528276700330212,-1,-1,-1,-1,0,-1,-1,1
1528276700332193,-1,0,-2,-1,0,0,-1,0
1528276700332193,-1,0,-1,-2,0,-1,0,-2
1528276700344160,-1,-1,-2,-2,-3,-2,-1,-1
1528276700344160,1,-1,-2,-3,-1,-1,0,-3
1528276700353195,-1,-1,-2,0,0,-1,0,-1
1528276700353195,-1,-2,0,1,0,-1,-2,-1
1528276700368116,-3,-1,-1,0,-2,-1,-2,-1
1528276700368116,-1,-1,-1,-1,-1,0,1,1
1528276700369104,-1,-2,-1,-2,-3,-2,0,1
1528276700369104,-1,-2,-2,-1,0,-2,-1,-2
1528276700398071,0,-2,-2,-1,-2,-1,-1,-2
1528276700398071,-1,-3,-2,-1,-2,-1,-2,0
1528276700399032,1,0,-1,-2,0,0,-1,0
1528276700399032,0,0,0,-2,-2,0,0,-1
1528276700404055,-1,-1,-2,-2,0,0,-2,0
1528276700404055,-1,0,0,-1,-1,-1,-2,-1
1528276700412978,0,-1,0,0,1,-1,-2,-4
1528276700412978,-2,0,-1,-2,-1,-1,0,0
1528276700426958,0,-1,0,0,-1,1,-3,0
1528276700426958,0,0,0,-1,-2,0,0,-2
1528276700433957,-1,1,-1,1,-1,0,2,2
1528276700433957,0,-1,-1,0,-1,-1,-2,-2
1528276700449915,-2,-1,0,-3,0,-3,0,-3
1528276700449915,-1,0,0,2,0,-2,-1,0
1528276700451872,-1,-1,-2,-1,-2,-1,0,-2
1528276700451872,-2,0,-2,-1,-1,-1,-2,-1
1528276700463875,-1,-1,-2,-2,-1,-2,-3,0
1528276700463875,-1,-2,-2,0,0,-2,-1,-1
1528276700472817,0,0,1,-1,-2,1,-2,-2
1528276700472817,0,-1,-1,-1,-1,-1,-1,-2
1528276700486779,1,-2,1,1,-2,0,0,0
1528276700486779,0,-1,1,-1,-3,-2,-3,-2
1528276700493795,-3,-1,-1,-1,0,-3,-2,1
1528276700493795,-1,-3,-3,-2,0,0,-2,-2
1528276700509719,1,-1,-1,0,-3,-1,0,0
1528276700509719,-1,-1,-1,-1,-1,-3,1,1
1528276700511723,0,-2,0,0,-1,-1,-5,-5
1528276700511723,0,-1,-1,1,-2,-2,0,0
1528276700531698,0,0,-1,-5,0,-2,-3,0
1528276700531698,0,-3,-1,0,-2,1,-1,-1
1528276700532665,1,0,-3,-3,-3,-1,-1,-1
1528276700532665,-1,0,0,0,2,0,0,-2
1528276700547004,-2,-2,-1,1,0,1,0,0
1528276700547004,-2,0,-1,0,0,-1,0,2
1528276700555169,-2,-1,-2,-2,-2,-1,-2,-3
1528276700555169,-1,-1,0,-1,-2,1,-1,-1
1528276700570444,0,-1,-3,0,-3,-1,0,0
1528276700570444,-1,-2,-1,-1,0,0,-1,-1
1528276700571427,0,-2,0,1,-1,-3,-1,0
1528276700571427,-1,-2,-1,-1,-1,-1,-1,-1
1528276700592766,-1,-1,-2,-3,-2,-1,-1,0
1528276700592766,-1,-1,-2,-3,0,1,-2,-1
1528276700592766,-1,-1,0,-3,-2,-2,-2,1
1528276700592766,-1,0,1,0,-2,-2,-1,0
1528276700606694,0,-1,-1,-4,-3,-1,-1,-3
1528276700606694,-2,-2,-2,-2,-3,0,-1,0
1528276700622351,-2,-1,-1,-2,1,0,0,0
1528276700622351,-1,-1,-2,0,-2,-3,-2,0
1528276700629943,-2,1,0,7,1,1,-2,-2
1528276700629943,-2,-1,1,1,1,-2,1,-1
1528276700630583,-1,-2,-2,-1,-1,0,1,-1
1528276700630583,-2,-1,-2,-1,-1,-2,-4,-3
1528276700652523,-2,-2,-1,-4,1,-1,-1,-1
1528276700652523,-2,-3,-2,2,-2,-2,-1,-1
1528276700659505,-1,-3,0,-2,-2,-2,0,0
1528276700659505,1,-1,2,-1,-2,0,1,1
1528276700666491,-3,-1,-1,2,0,-2,-4,-5
1528276700666491,-1,-1,-1,-1,1,0,-1,-2
1528276700674747,-2,-1,-3,-5,-3,-1,1,0
1528276700674747,0,-1,-3,-3,-2,-1,0,1
1528276700689646,-1,-3,-2,-3,-2,-1,-2,1
1528276700689646,1,-1,-1,0,-1,0,-3,-4
1528276700690423,-1,-3,-1,1,1,0,-2,0
1528276700690423,-1,-2,1,6,2,0,-1,-2
1528276700712633,-2,-1,-3,-9,-5,-3,-2,0
1528276700712633,0,0,-1,0,-3,-1,2,4
1528276700712633,-1,-2,-2,-1,0,-2,-7,-4
1528276700712633,0,-1,0,-1,-1,-1,-3,-6
1528276700726345,-1,-1,-1,1,0,-1,1,2
1528276700726345,-1,0,-2,-2,-1,-1,-3,-3
1528276700735034,-2,0,-1,-2,-3,-1,2,0
1528276700735034,-2,1,-1,-1,-1,-1,-1,0
1528276700750089,0,1,-2,1,0,-2,1,-1
1528276700750089,1,-2,-2,-5,-2,-4,-2,0
1528276700750089,-1,1,0,-2,0,1,-2,-2
1528276700750089,-1,0,-3,-4,-3,-2,-2,1
1528276700771970,0,-1,-1,7,4,2,1,1
1528276700771970,-3,-3,-4,-5,-5,-2,-3,-1
1528276700772705,-2,-1,1,9,2,-1,-1,-2
1528276700772705,-1,-1,-3,-14,-8,-3,-1,0
1528276700786940,-3,-2,-2,-1,0,-1,-2,1
1528276700786940,-2,-1,0,3,2,1,-1,-2
1528276700794653,0,0,-2,-4,-3,-2,-1,-2
1528276700794653,-1,1,-2,5,3,1,0,1
1528276700809850,0,-1,1,-2,-1,-2,0,-2
1528276700809850,0,-1,-2,-3,-2,-1,-1,0
1528276700810604,0,-1,-1,-2,-3,0,0,1
1528276700810604,-1,-1,-1,2,0,1,-1,-2
1528276700832671,-2,-2,1,-2,-2,0,-2,-1
1528276700832671,-1,-1,3,5,2,2,2,2
1528276700832671,-1,-2,-4,-4,-3,-2,1,-1
1528276700832671,-1,-1,0,-1,1,-1,-2,-2
1528276700847826,-2,-1,-1,-2,0,1,-1,-1
1528276700847826,-3,-1,-2,-8,-5,-2,-2,-8
1528276700847826,1,-1,-2,1,0,-1,0,1
1528276700847826,-2,-3,-2,-5,-2,-2,-1,-1
1528276700869963,0,-1,-1,2,-1,-3,-4,-2
1528276700869963,-1,1,1,12,6,1,-1,3
1528276700870924,-2,0,-4,-21,-8,-2,-1,1
1528276700870924,-3,-2,0,0,-1,-2,-5,-4
1528276700892450,0,-1,-1,-2,-2,-2,-2,-2
1528276700892450,-1,0,-2,-4,-3,-1,-1,-1
1528276700893416,1,0,1,7,1,-1,-1,0
1528276700893416,-1,0,-3,3,-1,0,2,2
1528276700907405,-1,-1,-2,-7,-2,0,-1,-2
1528276700907405,-1,0,-2,3,0,-2,-2,-2
1528276700908413,-2,-1,0,2,2,0,0,0
1528276700908413,1,-1,-3,-5,-3,-3,-5,-3
1528276700929086,-1,0,-2,0,1,-1,0,-1
1528276700929086,-1,-1,-1,-4,0,-1,-2,-1
1528276700930104,0,-1,-1,1,0,-1,-3,-3
1528276700930104,-2,-3,-1,-1,1,-1,2,0
1528276700952267,1,0,-1,1,-2,-1,0,2
1528276700952267,1,-2,-1,-3,0,0,-2,-1
1528276700953026,-1,-1,-2,-1,-2,-3,-5,-3
1528276700953026,0,-2,-2,2,1,-1,-1,1
1528276700966985,-2,-2,-2,-1,-1,-1,-1,-1
1528276700966985,-1,-1,-2,-2,-2,-1,1,2
1528276700967981,0,-1,1,4,0,-1,-2,1
1528276700967981,0,1,0,0,-1,-1,0,0
1528276700990191,0,-2,-1,-3,-2,-2,1,0
1528276700990191,-3,-1,-2,-3,-1,-1,-1,0
1528276700990191,-1,0,2,4,0,0,-1,-2
1528276700990191,-1,-2,-2,-5,-3,-1,0,-1
1528276701011865,-1,-3,-4,-4,-1,1,-2,-1
1528276701011865,-1,-1,-1,-1,-1,-2,-1,-2
1528276701012863,-1,-1,-2,-1,1,-2,1,-3
1528276701012863,1,1,0,6,2,1,3,5
1528276701027413,-2,1,-4,-6,-6,-3,-4,-4
1528276701027413,-4,-2,-2,-3,-2,-2,-6,-10
1528276701028128,-1,-2,-1,-1,-1,-2,0,0
1528276701028128,0,0,-1,1,-1,0,-1,-1
1528276701057269,0,-1,0,-1,-1,-1,0,0
1528276701057269,1,-1,-2,1,-1,-1,1,1
1528276701065160,-3,-2,-1,0,-2,0,-2,-1
1528276701065160,-1,-2,-2,-1,-1,1,-1,-2
1528276701072230,-2,-1,-1,0,-1,-2,-2,0
1528276701072230,1,-1,-3,-3,-1,-1,-1,-1
1528276701073005,-1,-1,-1,2,2,0,-2,-1
1528276701073005,-1,0,-1,-2,-2,-2,-2,0
1528276701086395,-2,-1,1,0,-1,0,0,1
1528276701086395,-2,-3,-1,1,-1,-2,-4,-6
1528276701094229,-1,0,-3,-2,0,-1,-1,-2
1528276701094229,-1,-1,0,-1,-1,1,-2,-1
1528276701110217,-1,0,0,1,0,-1,-1,-2
1528276701110217,-1,-2,-2,-4,-3,-1,0,1
1528276701110217,-1,0,0,-1,0,1,-1,-3
1528276701110217,-1,-2,-3,-4,-2,-2,0,-1
1528276701132127,-2,-2,-2,-1,0,0,-5,-3
1528276701132127,1,-1,2,0,0,0,0,1
1528276701133171,1,-2,-2,-2,-3,-1,0,2
1528276701133171,-1,-1,0,0,-2,-2,-4,-5
1528276701146332,-1,-2,-1,0,-1,1,-2,-2
1528276701146332,-2,0,-2,0,-4,-1,-1,-1
1528276701155200,-2,-1,0,-1,-2,-2,0,0
1528276701155200,-2,-2,-2,-2,-2,-2,-1,0
1528276701170184,0,-1,-1,-2,0,-1,3,2
1528276701170184,-2,1,-2,-1,-1,-2,-2,-1
1528276701170184,-1,-1,-1,0,0,0,0,-1
1528276701170184,0,0,-1,0,-2,-1,1,1
1528276701192593,2,-1,0,0,0,-1,0,1
1528276701192593,0,0,-2,0,-3,0,-1,-3
1528276701192593,-1,-1,0,1,-2,0,-1,-2
1528276701192593,-1,-2,-2,-1,0,-2,-5,-4
1528276701206233,0,1,-1,-1,-3,-1,1,0
1528276701206233,-1,-1,-1,-1,-2,1,-1,1
1528276701215377,0,-1,-2,-1,-2,-1,5,5
1528276701215377,-3,-3,-2,-2,-1,-1,-13,-10
1528276701229657,3,0,1,2,2,4,12,5
1528276701229657,-1,-2,-1,-2,0,-2,-6,-2
1528276701231202,-4,-4,-3,-5,-6,-10,-19,-9
1528276701231202,1,0,-1,0,1,1,10,9
1528276701252777,-3,-4,-3,-4,-2,-4,-9,-9
1528276701252777,0,-2,0,-2,-1,1,3,2
1528276701252777,2,1,0,3,2,1,6,4
1528276701252777,-1,0,4,1,-2,-2,1,-1
1528276701266080,-6,-5,-13,-15,-6,-3,-2,-1
1528276701266080,0,0,1,4,1,-1,3,2
1528276701275111,-3,-1,1,-2,0,-1,-3,-4
1528276701275111,0,0,-2,-1,-2,-1,2,-1
1528276701290082,-2,0,3,4,1,-1,-1,-1
1528276701290082,-3,-2,-7,-6,-3,-3,-3,-1
1528276701290082,1,-2,0,1,0,-1,-1,3
1528276701290082,-2,0,1,1,0,-1,-1,-1
1528276701311985,0,0,2,7,0,-1,-1,-1
1528276701311985,-1,-1,-4,-10,-5,-1,-2,-3
1528276701312709,-2,0,0,2,-1,0,1,0
1528276701312709,-2,-2,-4,-6,-3,-1,0,0
1528276701326784,-1,-1,0,2,0,-3,-4,-4
1528276701326784,-1,0,2,4,0,-1,1,0
1528276701334670,-3,-1,-3,-4,-1,0,0,-3
1528276701334670,0,-3,-1,-2,-1,-1,-2,-2
1528276701349925,-2,1,0,0,0,0,-1,0
1528276701349925,0,-1,-1,-1,1,-1,3,2
1528276701350621,-3,-3,-3,-3,-3,-2,-9,-11
1528276701350621,0,0,-1,2,1,-1,-2,0
1528276701372700,1,0,0,-1,0,-1,0,0
1528276701372700,-2,-3,0,0,0,0,2,3
1528276701372700,0,-2,-2,-1,1,0,0,2
1528276701372700,-2,-1,-1,-2,0,0,-2,-6
1528276701386657,0,-1,-2,-2,-1,-2,0,-1
1528276701386657,0,-1,-1,0,0,0,-2,-3
1528276701394305,0,0,-3,-2,-2,0,1,-1
1528276701394305,0,-3,-3,0,-2,-2,-1,3
1528276701410330,-1,-2,0,-2,-2,-1,0,0
1528276701410330,-1,0,0,3,0,-1,-4,-3
1528276701410330,1,0,0,0,0,2,0,1
1528276701410330,-1,0,-1,-2,-2,-2,0,0
1528276701432859,-1,-2,-2,0,-2,-1,-2,-1
1528276701432859,0,-1,-1,1,-1,0,0,1
1528276701432859,-1,0,-2,-4,-1,-1,1,-1
1528276701432859,-1,-1,-1,1,-1,-1,-1,-1
1528276701446813,-2,-2,-2,-3,0,-2,-6,-6
1528276701446813,-3,-2,-2,-2,-2,-2,-2,-2
1528276701454542,-1,-2,-1,3,0,0,2,0
1528276701454542,-1,-1,0,-1,-1,0,0,2
1528276701469764,-2,-1,-3,-2,-4,0,-2,-1
1528276701469764,-2,-1,-2,0,0,-1,-1,-3
1528276701470511,1,-2,-1,-1,-2,-2,0,7
1528276701470511,-2,-1,-1,-2,-1,-1,0,-2
1528276701492445,-2,-1,0,1,1,1,0,3
1528276701492445,1,1,-2,-2,-3,-2,-1,-3
1528276701492445,-2,0,-1,-1,-1,0,-1,-4
1528276701492445,-2,0,-1,-3,-1,-1,-1,-2
1528276701516001,0,0,0,-1,1,-2,-1,-2
1528276701516001,1,-2,0,1,0,-1,-1,0
1528276701516001,-2,0,2,0,0,-2,-1,-2
1528276701516001,-1,0,-1,-1,-2,0,0,0
1528276701528953,-2,0,3,2,-2,0,0,-1
1528276701528953,-4,-5,-9,-7,-2,-2,1,0
1528276701530993,0,0,-1,3,-1,0,-5,-2
1528276701530993,-3,-3,-4,-7,-2,-1,-2,-3
1528276701551892,0,0,0,0,0,1,-7,-5
1528276701551892,1,2,3,3,2,1,0,0
1528276701552890,-2,-4,-6,-7,-2,-1,0,0
1528276701552890,-1,0,0,0,-1,-1,-1,-1
1528276701574834,0,0,3,4,1,0,1,0
1528276701574834,-1,0,-7,-8,-5,-1,-2,0
1528276701575828,0,-1,0,-1,1,-1,-1,-2
1528276701575828,-1,-1,0,0,-2,-2,-2,0
1528276701590034,-1,-1,-2,-2,-2,-1,1,0
1528276701590034,-1,1,3,5,-1,0,-1,1
1528276701591030,2,-1,0,-2,-1,-1,0,0
1528276701591030,0,0,-4,-2,-1,-2,-1,-1
1528276701611975,0,-1,1,0,-1,-3,-3,-2
1528276701611975,-1,-2,0,0,-1,-2,-1,-1
1528276701612982,-2,0,-1,-3,-2,-1,0,-3
1528276701612982,-1,-2,-1,2,0,0,0,0
1528276701635176,-2,-1,-4,-5,-2,-2,0,-1
1528276701635176,-1,-1,0,-1,-1,0,2,2
1528276701635931,-5,-2,-2,-1,-1,-4,-7,-13
1528276701635931,0,1,-1,2,-1,1,0,2
1528276701649874,-1,-2,-3,0,0,0,-1,0
1528276701649874,-1,-2,-1,-1,-1,1,-1,-2
1528276701649874,-2,-1,-1,-1,-2,-1,0,4
1528276701649874,0,-2,-1,-1,-1,-2,0,-2
1528276701672044,-4,0,-1,-3,-1,-1,-1,-1
1528276701672044,1,-2,1,-1,-1,-1,-1,-2
1528276701672812,0,-1,-1,-2,1,0,1,1
1528276701672812,-1,0,-1,0,-2,-1,-3,-3
1528276701694009,-2,-2,-4,-3,0,-2,-1,1
