timestamp,emg1,emg2,emg3,emg4,emg5,emg6,emg7,emg8
1528440569970832,-1,0,-1,0,-2,-1,0,-1
1528440569970832,-2,0,-1,-1,-1,-1,-1,0
1528440569985791,-1,-1,-1,0,0,0,-1,0
1528440569985791,-1,0,-2,-1,0,-1,-1,-1
1528440569993785,-1,1,-1,-3,1,-1,1,-2
1528440569993785,1,-1,-1,-2,-1,-1,-1,-2
1528440570002789,1,-1,-1,0,0,-2,0,-1
1528440570002789,-1,-2,-1,-3,0,0,2,-1
1528440570016735,0,-1,0,0,0,-1,-2,1
1528440570016735,0,-2,1,0,-1,0,0,-2
1528440570023739,-1,1,-1,0,0,-1,-1,0
1528440570023739,0,-1,-2,-1,-1,0,-1,-1
1528440570030721,-2,-1,-1,-1,0,0,-1,-1
1528440570030721,-1,-2,0,0,0,1,-1,1
1528440570053610,-1,0,-2,-1,0,0,-1,-2
1528440570053610,0,1,-1,0,0,-2,-1,-2
1528440570054608,0,1,-1,-1,-1,-1,-1,-1
1528440570054608,-1,0,0,-1,-2,-3,0,-2
1528440570062588,-1,0,-1,-1,0,-2,0,0
1528440570062588,0,0,0,0,0,0,-2,0
1528440570076587,1,0,-2,0,0,0,-1,-1
1528440570076587,0,1,-1,1,0,-1,-1,0
1528440570083586,1,-2,-1,0,1,1,0,0
1528440570083586,-1,0,0,-1,-1,0,0,0
1528440570090512,0,-1,-1,0,-1,-1,-1,2
1528440570090512,0,-2,-3,-1,0,-1,-1,-1
1528440570105471,-2,0,-1,-2,-1,0,-3,-1
1528440570105471,1,-1,-1,0,1,0,-2,0
1528440570113505,-1,-1,1,0,-2,0,0,-2
1528440570113505,-1,-2,0,-1,-1,-1,0,-1
1528440570122428,-1,-1,1,0,0,0,0,0
1528440570122428,1,-1,-1,-2,-3,1,1,0
1528440570136425,0,0,0,-1,-1,-1,0,-1
1528440570136425,0,-1,-1,-2,-2,1,-1,-1
1528440570143397,-1,-2,-2,0,-1,0,1,-1
1528440570143397,0,-1,0,-1,0,0,-1,0
1528440570151349,0,-2,-1,0,0,-1,0,0
1528440570151349,0,0,-1,-1,0,0,-1,0
1528440570166309,1,-2,0,1,1,-2,-2,-1
1528440570166309,-2,-3,-2,0,0,0,-1,-1
1528440570173292,0,-2,-1,0,-1,1,-1,-1
1528440570173292,-2,0,-1,1,-1,1,1,1
1528440570188250,0,0,-3,-1,-2,-1,0,1
1528440570188250,-2,-1,-1,0,-2,-1,1,0
1528440570196229,0,-1,-1,0,1,-1,-1,-1
1528440570196229,1,-1,-1,-3,-1,-1,0,-1
1528440570203264,-1,2,0,-1,-2,0,0,-1
1528440570203264,-1,-2,-1,0,-1,-1,0,0
1528440570211221,0,3,-1,-1,0,-2,0,0
1528440570211221,-2,-1,-1,0,1,0,-2,-1
1528440570226180,-1,-1,1,-1,0,0,-2,-1
1528440570226180,0,2,0,-1,-1,-1,0,0
1528440570233183,-1,0,-1,0,0,-1,-3,-1
1528440570233183,0,-1,0,-1,-2,0,-1,0
1528440570248144,0,-2,-1,-1,0,0,-1,0
1528440570248144,0,-1,1,0,-1,-1,0,0
1528440570256122,-1,-2,0,-1,0,0,1,1
1528440570256122,-1,0,-1,-2,0,-2,-2,-1
1528440570263103,-1,-1,-1,0,-1,0,0,0
1528440570263103,-1,1,-1,0,1,0,-2,-1
1528440570271082,0,-1,1,-1,0,0,1,0
1528440570271082,-1,0,-1,-1,0,0,-1,-1
1528440570286046,1,-1,-1,-1,-1,-2,-1,-1
1528440570286046,-1,-1,0,0,1,0,-1,0
1528440570293023,-1,0,-1,-1,0,0,0,0
1528440570293023,-1,-2,1,0,-1,0,-2,0
1528440570307984,-1,0,0,1,1,-1,0,-1
1528440570307984,0,0,-1,-1,1,-1,-1,-1
1528440570323941,-2,-1,-1,-1,-1,-1,-1,-1
1528440570323941,0,-1,-1,-1,1,0,-1,-2
1528440570332992,-1,0,0,0,-1,-1,-3,-1
1528440570332992,1,-2,-1,-1,1,-2,1,-2
1528440570333913,1,-2,0,1,-1,-2,0,0
1528440570333913,0,0,0,0,0,-2,2,-1
1528440570353867,-1,0,0,0,0,0,2,-1
1528440570353867,-3,-1,0,0,0,0,-1,0
1528440570354858,-1,-1,-1,-2,0,0,0,-1
1528440570354858,0,1,0,-1,-2,0,-1,0
1528440570368819,0,-1,-2,-1,-2,0,-2,-1
1528440570368819,0,-1,-1,-1,-1,1,0,0
1528440570384777,-1,0,-2,-1,-1,-1,-1,-2
1528440570384777,-1,-1,-1,-2,1,0,0,-1
1528440570386835,-3,1,-2,-2,0,1,-1,-1
1528440570386835,0,-1,0,0,-2,0,-2,1
1528440570390781,0,-1,2,0,0,0,-1,1
1528440570390781,0,-1,-2,-2,-1,-1,0,-3
1528440570405721,0,-1,0,-1,0,0,1,-1
1528440570405721,-1,-1,0,-2,-1,1,-2,-2
1528440570413699,-1,0,-1,-1,-1,-1,-1,-2
1528440570413699,-2,-1,0,1,1,-1,-1,0
1528440570428659,-1,0,0,1,-2,-1,-1,0
1528440570428659,-1,-1,0,-1,-1,0,0,0
1528440570436677,0,-1,-1,0,-1,1,0,-1
1528440570436677,-1,0,-1,-2,-1,-1,0,0
1528440570443654,-1,-2,-1,0,1,0,0,1
1528440570443654,-1,0,-1,0,-1,-2,0,-1
1528440570459578,-1,1,0,0,-1,1,-1,-1
1528440570459578,0,1,1,-1,0,0,0,-1
1528440570465596,-1,-1,-1,0,0,-1,-1,-1
1528440570465596,-1,0,-1,0,0,-1,0,-2
1528440570473593,-3,-2,-1,-1,-1,-1,-2,-1
1528440570473593,-2,1,-1,0,0,1,0,-2
1528440570488503,1,-1,0,0,-1,-2,-1,-1
1528440570488503,0,-1,-1,0,-1,0,-1,-2
1528440570496533,1,2,-1,-1,-1,-1,1,-2
1528440570496533,0,0,1,0,-1,0,-1,0
1528440570510496,-1,1,0,0,-2,0,1,-1
1528440570510496,-1,-1,1,0,-1,0,0,0
1528440570519472,-1,-2,-1,-1,2,1,0,1
1528440570519472,0,-2,-1,1,-2,-1,-1,1
1528440570525403,2,0,0,-1,-3,0,0,-1
1528440570525403,-1,-1,-1,0,-1,-2,-1,-1
1528440570533436,-1,1,2,0,0,-1,-2,0
1528440570533436,-1,0,0,-1,0,-1,1,-2
1528440570548393,-1,0,-2,-1,-2,-3,-1,-1
1528440570548393,0,-1,0,0,-1,-1,-1,-1
1528440570556320,0,-1,0,-1,-2,-1,-2,-2
1528440570556320,0,-1,-3,0,-1,-1,-1,-2
1528440570571280,0,0,-1,-2,0,-1,-1,-1
1528440570571280,-1,-1,-1,0,-1,-1,0,-1
1528440570579258,0,0,0,1,1,-1,0,-2
1528440570579258,0,-3,-1,0,-1,0,-3,-1
1528440570586240,0,-1,1,0,1,0,0,0
1528440570586240,0,1,0,0,-1,-2,0,-1
1528440570610176,0,-3,-1,0,-1,0,0,-2
1528440570610176,0,0,0,-2,-1,-2,-1,0
1528440570611173,1,1,0,0,0,-1,-2,-2
1528440570611173,-1,1,0,0,0,0,0,-1
1528440570616159,-1,0,0,1,-2,-2,0,-1
1528440570616159,-3,0,0,0,0,0,0,-1
1528440570623140,-1,-3,-1,-1,0,0,-1,1
1528440570623140,1,-3,-1,-1,0,0,-2,0
1528440570639097,0,0,-2,-2,0,0,-3,0
1528440570639097,0,1,-1,-1,-2,0,-1,-2
1528440570646131,-3,-1,-1,-1,-2,0,-1,-1
1528440570646131,0,1,1,0,-1,1,1,-1
1528440570653117,1,-2,-1,-1,-1,-1,1,1
1528440570653117,-1,0,1,-1,-1,-2,0,0
1528440570669054,0,-1,-1,0,1,-1,0,-1
1528440570669054,0,-2,-1,0,0,0,-1,0
1528440570677272,0,0,-1,2,1,-1,-1,-1
1528440570677272,0,-1,0,0,-1,-1,-1,-2
1528440570684132,0,-1,-1,-1,-1,-1,-1,-1
1528440570684132,-1,-2,-1,-3,-1,0,-2,-1
1528440570699195,0,-1,1,-1,0,0,-1,-1
1528440570699195,0,0,-1,0,-1,1,0,0
1528440570705979,0,-2,1,1,-1,-2,0,0
1528440570705979,0,0,-1,0,-1,-1,0,0
1528440570714163,-1,-1,-1,-1,0,0,-2,-1
1528440570714163,-1,-2,-1,0,-1,0,0,-1
1528440570728930,0,-1,0,-2,0,-1,-2,-2
1528440570728930,0,-1,0,0,0,-2,0,-1
1528440570737117,-1,-1,-2,0,-1,-1,-1,0
1528440570737117,-1,0,0,0,1,-1,0,-1
1528440570743837,0,0,-3,-1,0,1,0,-2
1528440570743837,-2,-1,0,-1,0,-2,0,-2
1528440570759419,-2,0,0,-1,-2,0,-1,0
1528440570759419,-1,-1,2,0,-1,-1,0,1
1528440570766404,0,-1,-1,-1,-1,-2,-2,0
1528440570766404,-1,0,0,-1,1,0,-2,1
1528440570774693,1,0,-1,0,0,-1,0,1
1528440570774693,0,-1,0,0,0,-1,-1,-2
1528440570788387,-2,1,0,0,-1,-1,0,-1
1528440570788387,0,0,-1,0,0,0,0,-1
1528440570797402,0,-1,0,-1,0,-1,0,-2
1528440570797402,0,-3,-1,-1,1,1,-1,0
1528440570811325,0,0,0,-2,-1,0,0,-1
1528440570811325,-1,-1,-1,0,0,-1,-2,-1
1528440570819567,-1,-1,-1,0,1,0,-1,-1
1528440570819567,0,0,-3,-1,0,-1,0,-1
1528440570835392,-1,-1,0,0,-1,-1,-1,0
1528440570835392,-3,-1,-2,-1,-2,-1,-1,-1
1528440570835392,0,0,0,-1,-1,-1,1,-1
1528440570835392,-2,1,0,0,-1,1,-1,1
1528440570848493,-1,0,0,-1,-2,1,-1,0
1528440570848493,-1,-2,0,0,0,-2,-1,0
1528440570857307,-2,-1,-2,-1,-1,-2,-2,-1
1528440570857307,0,-1,0,-1,-1,0,-1,0
1528440570871432,-1,1,-1,-3,1,0,-1,0
1528440570871432,-1,-2,0,0,-1,-1,0,0
1528440570879451,0,-2,-1,0,0,0,-2,-1
1528440570879451,-1,0,-3,0,0,-1,0,1
1528440570894595,0,-1,-2,0,0,-3,1,0
1528440570894595,1,0,-1,-2,-1,1,-1,-2
1528440570895592,0,-1,-1,0,0,-1,-1,-1
1528440570895592,-2,0,-1,-1,-2,1,-2,0
1528440570908818,-1,-2,1,0,0,-1,-1,0
1528440570908818,-1,-1,-2,-3,-1,1,1,0
1528440570917305,-2,-1,1,-1,-2,-2,-1,0
1528440570917305,-1,0,0,-1,-3,-1,-1,-1
1528440570931043,-3,0,-3,0,0,-1,1,-1
1528440570931043,-1,1,-2,0,0,-1,-2,0
1528440570939874,-1,1,-2,0,-1,0,1,0
1528440570939874,-2,-2,-2,0,-1,-2,-1,0
1528440570954160,0,-3,0,-2,-1,0,-2,2
1528440570954160,0,0,1,-1,0,-2,-1,-2
1528440570963156,0,1,-1,-2,0,-1,0,0
1528440570963156,1,1,1,0,-1,-1,-2,-1
1528440570968999,0,0,-1,-1,-2,-1,1,-2
1528440570968999,0,-2,-3,0,-1,-1,-2,-1
1528440570977773,0,0,-1,-1,0,0,-1,-2
1528440570977773,0,-1,0,-2,1,1,-2,0
1528440570991216,1,-1,-1,2,0,2,0,-1
1528440570991216,-1,-1,-1,-3,-2,-2,-1,-1
1528440570999919,-1,-2,-2,-1,-2,-1,0,-1
1528440570999919,-1,-2,-1,-2,0,-2,1,-1
1528440571013678,-1,0,-1,0,0,-1,1,-1
1528440571013678,0,-1,1,0,1,-1,-2,0
1528440571022669,0,1,0,0,1,0,-1,-1
1528440571022669,-1,0,1,-3,-2,-1,0,0
1528440571037620,-1,0,-2,-2,-2,-3,-3,1
1528440571037620,0,0,1,8,6,2,0,0
1528440571038617,1,1,3,3,2,2,2,2
1528440571038617,-2,-1,-1,-3,-4,-1,0,-2
1528440571051632,-1,-2,-5,-7,-9,-4,-2,-2
1528440571051632,-1,-1,-2,-2,-4,-1,0,0
1528440571059874,0,1,1,0,1,0,-3,0
1528440571059874,1,0,-1,2,3,1,0,0
1528440571073768,-1,-2,1,2,2,1,0,0
1528440571073768,0,-1,0,-2,0,0,0,0
1528440571083194,-1,0,-2,1,3,-1,1,-2
1528440571083194,1,-1,-2,-2,-3,-2,-2,1
1528440571088260,0,0,0,0,0,0,-1,0
1528440571088260,-1,0,-1,-1,-3,0,-1,-1
1528440571097470,-1,-3,-1,-2,-2,-2,0,-1
1528440571097470,1,0,-1,2,2,1,1,-2
1528440571111197,0,-1,0,1,2,1,1,-1
1528440571111197,-1,0,0,-1,-1,1,0,1
1528440571127310,0,-2,-4,-4,-5,-2,-1,-1
1528440571127310,-1,0,1,4,5,0,0,0
1528440571134108,0,0,-1,-4,-3,-2,-1,-1
1528440571134108,0,-1,-1,-1,-2,-1,1,-2
1528440571142325,0,0,-2,-2,-1,0,1,0
1528440571142325,-1,1,-3,-2,-2,0,-2,-2
1528440571148546,0,0,2,3,4,2,-1,-3
1528440571148546,0,-2,-1,-2,0,-2,-2,-1
1528440571157259,-4,-2,-1,0,-2,-1,0,-2
1528440571157259,-1,-1,1,0,1,-2,-1,1
1528440571171494,-2,-1,0,0,0,0,-1,-1
1528440571171494,0,0,-2,-3,-2,0,-1,-2
1528440571186438,0,0,-1,0,0,2,-1,-1
1528440571186438,1,-1,-1,-1,0,-2,0,0
1528440571193587,0,0,-1,0,-2,-3,0,0
1528440571193587,-1,0,-1,-2,-1,0,0,1
1528440571202653,0,0,0,0,-1,-2,-1,1
1528440571202653,-1,-1,-3,-2,-1,0,0,-1
1528440571208984,0,-1,-1,-1,1,0,-1,-1
1528440571208984,0,1,0,1,0,0,0,-1
1528440571217612,-1,0,-2,-1,0,-1,0,-2
1528440571217612,-2,-1,-2,-1,-3,0,0,0
1528440571230577,-1,-2,0,0,-1,-1,0,1
1528440571230577,0,0,-2,-1,2,-1,1,-1
1528440571239553,-1,-3,-1,-2,0,1,-2,0
1528440571239553,0,0,-1,-1,-1,-1,-1,-1
1528440571254302,-1,-1,-1,-2,-2,1,0,-1
1528440571254302,-1,-3,0,0,-2,-1,-1,1
1528440571262804,-1,-1,-1,-1,-1,-1,-2,-2
1528440571262804,2,-1,1,1,-2,-2,-1,-1
1528440571269059,0,1,0,1,0,-1,-1,0
1528440571269059,-1,-1,-2,0,0,-2,1,-1
1528440571277764,-1,1,0,0,-2,0,-1,0
1528440571277764,-1,-2,-1,-1,1,-1,0,0
1528440571290984,-2,1,-1,-1,1,-1,-2,-2
1528440571290984,-1,-2,0,-2,-1,0,1,-2
1528440571300714,-1,-2,0,-1,-1,-1,-1,0
1528440571300714,-3,0,-1,-1,-3,-2,-2,-1
1528440571314118,0,-2,-2,0,-2,-2,0,0
1528440571314118,-2,-2,-1,-1,0,-1,-1,1
1528440571322482,-1,0,-2,-2,-2,-2,1,1
1528440571322482,0,-1,0,-1,0,1,0,1
1528440571328484,1,0,-3,1,1,-1,0,-2
1528440571328484,1,0,0,-1,-2,0,-1,-2
1528440571337453,0,0,1,-2,-1,-1,-1,-1
1528440571337453,-1,-1,-1,-2,-1,-1,1,-2
1528440571351521,-2,0,0,-2,-2,1,0,1
1528440571351521,-1,-1,0,1,-2,-2,0,-1
1528440571359820,0,0,-1,0,0,2,-1,0
1528440571359820,-2,-1,-1,-1,-2,-1,1,0
1528440571374022,-2,-1,-1,0,1,-1,-1,0
1528440571374022,1,-1,0,-1,-1,-1,-1,-1
1528440571382626,-1,-1,-1,1,0,-1,-1,-2
1528440571382626,-1,-1,-2,-1,1,0,-2,0
1528440571388611,0,0,-1,0,-1,-1,0,1
1528440571388611,-1,2,0,1,0,0,0,-2
1528440571397586,-1,-1,-1,-1,0,0,0,0
1528440571397586,-1,1,0,-1,0,0,0,0
1528440571410976,-1,-2,0,-1,-2,-1,-2,-1
1528440571410976,0,-1,-1,-2,-1,0,-2,-1
1528440571419818,0,-1,-3,-2,-1,0,-1,0
1528440571419818,0,-2,1,0,-1,0,0,-1
1528440571433779,-1,0,-1,0,-1,0,-1,0
1528440571433779,0,1,-3,0,-1,0,1,0
1528440571442515,0,-1,0,-2,0,-2,-2,-2
1528440571442515,-2,-1,-1,-1,0,0,-2,-2
1528440571448744,-1,-2,-1,1,0,-1,-1,0
1528440571448744,-1,-1,0,-1,-1,1,-1,-1
1528440571457475,1,0,-1,-1,-1,0,0,0
1528440571457475,0,-2,-1,-1,0,-1,-1,-1
1528440571471471,0,-1,0,-1,-1,-1,-1,-2
1528440571471471,-1,0,-1,1,0,0,-1,-1
1528440571480609,-1,-1,0,-1,-2,-1,-1,-1
1528440571480609,0,-1,-1,0,0,-1,-1,0
1528440571494862,0,-1,-2,0,1,0,1,-1
1528440571494862,1,-1,-1,-1,0,-1,1,0
1528440571500928,-1,0,-1,1,1,0,1,-1
1528440571500928,-2,0,-1,-1,-1,-2,-1,0
1528440571508906,-2,0,0,-1,-1,0,-1,0
1528440571508906,-1,1,-2,0,1,-1,0,0
1528440571517891,0,-1,0,1,0,-4,0,2
1528440571517891,-1,-2,-1,-2,-2,-1,0,-1
1528440571531581,0,-1,-1,-1,-1,-1,0,0
1528440571531581,0,-3,-1,-1,-3,0,-2,-2
1528440571539829,-1,-2,-1,0,0,0,0,0
1528440571539829,0,-1,0,-1,0,-1,0,-2
1528440571554838,1,0,1,0,-1,-2,1,-1
1528440571554838,-1,0,0,0,0,0,-1,-1
1528440571561081,1,-1,-2,-1,0,-2,-1,-2
1528440571561081,1,-2,-2,0,0,0,0,0
1528440571577024,0,-2,-1,-2,0,1,1,-2
1528440571577024,-1,-1,-2,-1,-1,-2,-1,-1
1528440571578779,-2,0,1,-1,-1,-1,0,-2
1528440571578779,-1,0,1,0,-3,0,1,-3
1528440571591006,0,0,0,2,-1,-1,-1,1
1528440571591006,0,-1,-2,-2,-1,-2,0,3
1528440571599975,1,-1,0,-1,-2,0,-1,0
1528440571599975,-1,-2,-2,0,-1,0,0,0
1528440571614201,-1,-1,-1,-1,0,-2,0,-2
1528440571614201,-1,-2,0,-1,-1,-1,-1,-1
1528440571621180,-1,0,0,-1,0,1,-1,-1
1528440571621180,0,-2,0,-1,-2,0,-1,-1
1528440571637180,2,-1,-1,-2,-2,-2,-1,0
1528440571637180,0,-1,-2,-1,0,-1,-1,1
1528440571639181,-1,1,0,-2,-1,0,-1,-1
1528440571639181,-1,1,0,3,1,-2,-3,-1
1528440571651386,-3,-3,-1,0,-1,-1,-2,-2
1528440571651386,-1,0,1,-1,-1,0,-1,0
1528440571660138,0,1,-1,0,0,0,1,-1
1528440571660138,0,2,-1,-2,0,-2,1,-1
1528440571682060,0,0,0,-3,-1,0,-1,0
1528440571682060,0,-1,-1,-1,-2,-3,-1,0
1528440571690040,-2,-3,-2,-2,-2,-2,-2,1
1528440571690040,0,-2,-3,-1,-2,0,-1,0
1528440571697021,1,-2,-4,-1,-1,-1,0,0
1528440571697021,-1,0,-1,0,0,-1,-1,0
1528440571699016,-1,-1,0,0,0,-2,0,0
1528440571699016,0,1,0,1,0,-1,0,-1
1528440571711037,0,0,-1,-2,0,0,1,-1
1528440571711037,0,-1,-1,-1,0,-2,-1,-1
1528440571719960,-1,0,-1,0,-1,0,1,1
1528440571719960,-1,-1,0,0,-1,1,-1,1
1528440571733975,-1,-1,-1,1,-4,0,-1,0
1528440571733975,-1,0,1,-1,0,-1,-1,0
1528440571740956,-1,-1,-1,0,0,-1,-2,1
1528440571740956,-2,0,1,0,1,-1,-1,-1
1528440571756914,0,-1,-1,-1,0,-2,-1,0
1528440571756914,1,0,-1,0,-1,0,-1,0
1528440571758854,1,0,0,0,0,0,0,-1
1528440571758854,0,-1,-1,-1,-1,0,0,0
1528440571770874,-1,1,-1,-1,1,0,-3,-1
1528440571770874,-1,-1,-1,1,-1,0,-1,-1
1528440571779799,-1,0,-1,0,-1,0,0,0
1528440571779799,-1,-2,-1,-2,-1,-2,0,-1
1528440571793815,-3,0,-1,-1,-1,-1,1,0
1528440571793815,2,0,0,0,1,-1,-2,-1
1528440571800796,0,-1,0,0,-2,1,1,-2
1528440571800796,0,-1,-1,-2,-1,0,0,1
1528440571817704,0,0,-1,-1,0,0,-1,0
1528440571817704,-1,-1,-1,0,1,0,1,-1
1528440571818694,-1,0,-1,-1,0,-1,-1,-1
1528440571818694,-1,-1,-1,1,0,-1,-2,1
1528440571830710,0,0,-1,-2,0,0,0,-1
1528440571830710,-1,0,0,0,1,0,0,-1
1528440571839638,0,1,0,-2,0,-1,0,0
1528440571839638,-1,-1,-1,-3,-1,-1,0,-1
1528440571853653,-1,0,0,-2,0,0,-2,0
1528440571853653,-1,-2,-1,-2,-1,-1,0,-1
1528440571860583,-1,-1,-2,-2,-1,-1,-3,-1
1528440571860583,-1,-1,0,-2,-1,1,-1,1
1528440571877537,-1,-1,0,1,-1,0,0,0
1528440571877537,-1,-1,-3,-3,-1,-2,0,1
1528440571878535,-2,0,-2,0,-1,-3,-1,1
1528440571878535,1,0,0,0,-2,-1,1,1
1528440571890503,-1,-1,-2,-2,0,0,1,-2
1528440571890503,-2,0,1,-1,-2,-1,0,1
1528440571907458,0,-1,-2,-3,-2,-1,0,0
1528440571907458,-1,-1,-2,-2,-1,-1,0,-1
1528440571914439,-1,-1,-1,-1,-1,-1,0,0
1528440571914439,-1,-1,0,-1,-1,-1,-3,-1
1528440571920423,0,0,-1,-1,-2,0,0,-1
1528440571920423,0,0,0,1,-1,-1,0,-1
1528440571937378,1,0,-1,1,-1,-3,-1,1
1528440571937378,-1,0,-2,1,0,-2,0,-1
1528440571938376,1,-1,0,1,-1,-2,-2,0
1528440571938376,-1,-2,-1,0,-1,0,-3,-3
1528440571951340,0,-1,0,1,0,1,-2,-1
1528440571951340,-1,-2,-2,-1,0,0,-1,0
1528440571960316,-3,0,0,-1,0,1,-2,-1
1528440571960316,-1,1,-2,0,-1,0,1,0
1528440571974279,0,1,-1,0,-1,0,-1,0
1528440571974279,1,0,-1,-1,-2,-2,0,-1
1528440571981261,1,-3,-1,1,0,0,-1,0
1528440571981261,-1,1,0,-1,1,0,-2,-3
1528440571997466,-1,0,-2,-2,0,0,-2,0
1528440571997466,-1,-1,1,-1,0,0,0,1
1528440571999212,0,1,-1,-1,-1,-2,1,-2
1528440571999212,-1,-1,1,-1,0,-2,-1,1
1528440572011180,0,-1,0,-1,0,-1,-1,0
1528440572011180,0,-1,0,-1,-2,-1,-2,-1
1528440572020666,2,0,0,0,-1,-2,0,-2
1528440572020666,1,-2,-2,0,-2,1,0,1
1528440572034670,-1,0,-2,0,-3,0,1,-1
