timestamp,emg1,emg2,emg3,emg4,emg5,emg6,emg7,emg8
1528181529547346,-1,1,0,-1,-1,-1,0,-1
1528181529547346,-1,1,-2,-1,1,0,0,-2
1528181529564300,-3,-1,-1,-1,0,-3,-1,-2
1528181529564300,-2,-2,-1,1,0,-2,0,1
1528181529565316,1,-1,-1,0,-1,0,0,1
1528181529565316,0,-3,0,-1,-1,2,-1,-1
1528181529577266,0,-2,0,-1,0,2,0,0
1528181529577266,-1,0,2,0,-3,-1,0,-2
1528181529587238,1,1,0,0,-2,0,-1,0
1528181529587238,-1,0,1,-1,-2,0,-1,0
1528181529601226,0,-1,-3,1,1,0,2,-3
1528181529601226,-2,-5,-1,0,1,-1,-1,-2
1528181529603195,-1,-4,-1,-2,0,1,-2,0
1528181529603195,-1,0,1,-1,0,-1,-3,-1
1528181529624139,0,2,1,0,1,0,0,1
1528181529624139,-1,0,0,-1,-1,-2,-4,1
1528181529626134,-2,1,0,-1,-1,1,0,-1
1528181529626134,-2,-1,-2,-2,-2,-2,0,-1
1528181529638102,1,1,-2,0,0,-2,-2,-1
1528181529638102,2,-1,-2,-1,-1,0,-1,-3
1528181529653064,1,-3,0,-1,-1,-1,-1,0
1528181529653064,-1,-2,-2,0,-1,1,-2,-2
1528181529662047,-3,-2,-1,-1,-1,1,0,-1
1528181529662047,-2,0,-1,0,-1,0,2,0
1528181529663035,0,1,1,0,1,0,1,-2
1528181529663035,1,2,1,1,0,-2,2,0
1528181529683982,0,0,0,-1,0,-2,-1,-1
1528181529683982,0,-1,-2,0,0,-1,-1,-1
1528181529685975,0,1,-1,-1,0,-3,-3,2
1528181529685975,-2,-3,-2,1,-1,-3,-1,2
1528181529697968,-1,-2,0,0,-1,-1,0,1
1528181529697968,-1,0,0,-1,-1,3,0,-1
1528181529706918,0,1,0,-1,-3,1,-1,-1
1528181529706918,-1,2,-1,-1,-2,1,-2,0
1528181529721878,1,-1,-2,-1,-2,1,-1,-4
1528181529721878,0,-2,-2,-1,-1,-1,-1,0
1528181529722875,-1,-1,-2,0,1,-2,-1,-3
1528181529722875,0,-2,0,0,0,-2,-1,-1
1528181529743819,-1,-1,-1,0,-2,-3,1,-1
1528181529743819,0,0,-3,-2,0,-1,-2,1
1528181529745814,0,1,-2,-1,-1,-1,0,-3
1528181529745814,-1,-2,1,0,0,-1,-1,-3
1528181529757835,-1,-1,0,-1,1,0,-1,1
1528181529757835,1,2,-1,0,-1,-2,-1,2
1528181529767756,-1,2,-1,1,-1,-1,0,2
1528181529767756,1,-1,-2,-2,0,-1,1,0
1528181529781770,-1,-2,0,-2,0,0,-2,-1
1528181529781770,1,-2,1,-1,-1,-2,-1,0
1528181529782716,-1,-2,0,-3,0,-1,-2,-1
1528181529782716,0,0,-3,1,-2,2,-1,1
1528181529803712,-1,0,0,0,-2,-1,-5,0
1528181529803712,-2,2,-3,1,0,-2,0,-1
1528181529805701,0,-2,-2,0,1,0,0,1
1528181529805701,-1,-3,-2,-1,0,0,2,-2
1528181529817624,-2,0,-1,-1,0,-2,4,1
1528181529817624,-3,-1,-2,-1,-1,1,1,-1
1528181529826597,1,0,0,-1,0,-1,0,-2
1528181529826597,0,0,0,-1,-1,1,-1,-1
1528181529841559,0,-1,0,-1,-1,-1,0,-1
1528181529841559,0,-1,-1,-1,0,0,0,-1
1528181529843597,0,2,1,-1,2,-2,-1,-2
1528181529843597,-2,-1,0,-1,1,-1,-2,0
1528181529864496,0,-1,-2,-1,0,1,0,0
1528181529864496,-2,-1,0,-1,-2,0,-3,-2
1528181529865493,0,-2,-1,1,-2,0,-3,0
1528181529865493,0,-1,-1,0,0,-1,-2,-1
1528181529877514,-1,-1,0,-2,-2,-1,0,0
1528181529877514,1,0,0,0,0,1,0,-2
1528181529886459,-2,-3,-1,-2,-1,0,-3,-1
1528181529886459,-1,2,2,-1,-2,0,-2,0
1528181529901413,-2,-1,1,0,1,1,0,0
1528181529901413,-1,-2,-1,-2,-1,-1,1,-1
1528181529907426,-1,0,0,1,-2,0,2,0
1528181529907426,1,-2,-2,-2,-1,0,1,-1
1528181529924337,-2,-1,0,0,-3,-3,-2,0
1528181529924337,0,1,-1,0,-1,-1,0,-2
1528181529925335,-1,0,-2,0,0,-1,-1,-2
1528181529925335,0,-1,-1,0,-1,-1,-2,0
1528181529937302,2,-1,0,2,0,1,1,0
1528181529937302,-1,-1,1,-1,0,0,0,0
1528181529946279,-3,-1,0,-1,-1,1,2,3
1528181529946279,0,1,1,-3,0,-2,0,-1
1528181529961237,-1,-1,-2,0,-1,-2,-3,-2
1528181529961237,-2,-3,0,0,-1,-1,-3,0
1528181529967222,1,-2,1,0,-1,2,0,-1
1528181529967222,-4,-3,-1,-2,-2,1,-1,0
1528181529984178,0,1,-2,-1,-1,0,-1,1
1528181529984178,0,-1,-2,0,-1,-2,1,0
1528181529986172,1,-1,0,0,1,-3,-1,-1
1528181529986172,1,1,-1,1,-3,0,-1,1
1528181529998140,0,1,-2,-1,-3,1,-2,1
1528181529998140,-1,0,0,0,-1,-1,-4,-1
1528181530007142,-1,-3,-2,0,-1,-2,0,-1
1528181530007142,-2,-4,-3,-1,1,1,-2,-2
1528181530021125,-2,-1,-3,-1,0,-1,1,-3
1528181530021125,0,2,1,0,-2,-1,2,0
1528181530028062,-1,0,1,0,0,0,2,-2
1528181530028062,0,3,0,-1,0,1,2,1
1528181530044069,-2,-1,2,-2,0,-2,0,1
1528181530044069,1,-3,-2,0,1,-1,-1,-2
1528181530046014,-2,-2,-2,-1,1,1,-2,-1
1528181530046014,-1,-1,0,0,1,-1,0,-2
1528181530058032,0,0,2,0,0,1,-1,-2
1528181530058032,-1,0,1,0,0,-1,0,1
1528181530066955,1,0,0,0,-2,-1,-2,1
1528181530066955,0,-1,-1,-1,0,0,0,2
1528181530080917,-2,0,0,1,1,0,0,0
1528181530080917,-1,2,0,0,-1,-1,-1,-1
1528181530094880,1,-1,-3,0,-3,-2,-1,-1
1528181530094880,-1,-1,0,0,-2,0,0,-1
1528181530103856,1,0,-2,-2,-1,-1,-1,-2
1528181530103856,0,-1,1,-1,0,-1,-3,-1
1528181530105851,-2,0,-2,-1,-2,-2,0,-2
1528181530105851,0,-2,-1,-1,-2,-3,-2,-1
1528181530126795,0,-4,-1,-1,-2,-1,0,0
1528181530126795,0,-2,-4,-3,0,0,2,1
1528181530127792,-1,-2,0,-2,0,0,-3,-1
1528181530127792,0,-1,3,-2,1,-1,-1,-1
1528181530140784,-2,0,2,-3,1,0,1,-3
1528181530140784,-1,0,-3,1,0,-1,0,1
1528181530154722,-1,1,-2,-2,0,0,-2,0
1528181530154722,-2,-1,-3,-1,1,1,0,1
1528181530163697,1,1,0,1,0,-2,1,-1
1528181530163697,0,0,0,0,-2,-1,0,-1
1528181530165691,-1,2,0,-1,-1,1,1,0
1528181530165691,-1,2,-1,1,-2,-2,-1,-1
1528181530186649,-1,0,1,0,-4,-1,-2,-2
1528181530186649,-2,0,-1,0,0,0,0,0
1528181530188631,-2,-1,0,1,-3,-1,0,-2
1528181530188631,-2,-1,-1,-1,-1,1,2,-2
1528181530200599,1,0,-4,0,1,-1,2,-2
1528181530200599,0,-3,0,-2,1,2,0,-3
1528181530207580,0,-1,-1,0,-1,0,-4,1
1528181530207580,0,0,1,0,0,-1,-1,0
1528181530224535,-1,0,-1,2,-1,-4,-1,2
1528181530224535,-1,1,-2,2,0,-3,-1,0
1528181530225532,1,0,-1,-2,1,-3,2,-1
1528181530225532,-2,-2,-1,0,1,-1,-1,-2
1528181530246478,0,-3,-1,-1,1,1,-3,-2
1528181530246478,0,-3,0,-1,0,-2,-2,0
1528181530248471,-1,-1,0,1,0,0,0,0
1528181530248471,0,0,-1,-1,0,0,0,2
1528181530260438,-1,-2,1,-2,-1,0,-1,1
1528181530260438,-2,2,0,-1,-1,0,1,-1
1528181530269414,-1,0,0,-1,-2,0,0,-1
1528181530269414,-1,-2,0,-3,-1,-3,0,-4
1528181530284641,-1,-1,0,1,-1,-3,2,-4
1528181530284641,-1,-3,-2,0,-2,-3,-3,-1
1528181530285677,1,-1,1,0,0,-3,0,0
1528181530285677,2,1,-1,1,0,0,-2,0
1528181530306887,-1,1,0,-2,0,0,-2,1
1528181530306887,-3,-2,0,0,0,0,1,1
1528181530308616,-1,0,1,-1,0,1,-1,2
1528181530308616,0,0,-2,-1,-1,1,1,1
1528181530319900,1,1,-3,-1,0,1,-2,1
1528181530319900,0,0,-2,0,0,1,-2,-2
1528181530328882,-2,0,-1,-2,0,0,-1,-2
1528181530328882,-3,1,3,1,0,-3,1,-1
1528181530343860,0,0,1,0,-1,-2,2,-1
1528181530343860,-1,1,0,-1,-1,0,-1,2
1528181530345833,0,-2,-1,0,0,0,0,-1
1528181530345833,1,0,-2,-3,-2,-1,0,-1
1528181530366772,-1,-1,-2,0,0,-1,-1,-2
1528181530366772,-2,-2,-3,-5,-1,-1,0,-3
1528181530367771,-1,-2,-1,0,-1,0,1,-1
1528181530367771,-1,1,0,0,-1,-1,-1,-1
1528181530379771,-2,0,-1,0,-3,0,0,0
1528181530379771,0,-1,2,1,0,-1,-1,-1
1528181530389711,-1,0,0,1,-1,0,-1,1
1528181530389711,0,-1,-1,-1,0,-2,0,0
1528181530403101,0,-1,1,-1,-1,0,0,-1
1528181530403101,0,0,-2,1,0,-3,0,-1
1528181530412069,0,0,-3,-1,0,-3,-1,-3
1528181530412069,0,0,-2,-2,-1,1,-2,-2
1528181530426031,-1,-1,0,0,1,2,-1,1
1528181530426031,0,-1,0,-1,-1,2,0,0
1528181530433012,0,-2,0,-2,-4,0,-3,-3
1528181530433012,0,0,-1,2,-1,-2,-2,0
1528181530449268,-1,-2,-2,-3,-1,0,-1,1
1528181530449268,-4,-1,0,-1,0,0,-1,3
1528181530450411,0,-1,0,-1,0,0,2,-1
1528181530450411,-1,0,-1,-2,-2,0,0,1
1528181530462234,1,-2,-2,-1,0,-2,-1,-1
1528181530462234,0,1,0,-1,-3,1,2,0
1528181530472210,-1,-1,0,-1,0,-2,2,1
1528181530472210,1,-2,0,-1,-1,-1,-1,0
1528181530486170,-2,1,-1,-1,-2,-1,-2,-2
1528181530486170,1,-1,-1,-3,-1,0,-3,-2
1528181530493418,-1,0,-2,-2,0,0,-4,0
1528181530493418,1,-2,-1,0,-1,-1,-4,0
1528181530509377,0,-1,-1,1,2,-1,0,-2
1528181530509377,0,-3,1,0,-1,0,1,-4
1528181530511103,-2,-2,-2,-1,0,-1,2,-1
1528181530511103,2,1,-1,-1,0,-2,-1,1
1528181530523368,-1,-1,0,-2,-2,-1,-2,5
1528181530523368,0,1,-1,0,-2,0,1,-1
1528181530532086,1,2,-1,-1,-2,-1,2,1
1528181530532086,-1,-2,0,1,-3,2,0,-2
1528181530545357,-1,-2,-2,-3,-1,0,1,-1
1528181530545357,1,1,1,-2,1,0,0,0
1528181530553852,-1,0,1,-1,-2,-1,0,0
1528181530553852,-2,-1,0,-1,0,0,2,-1
1528181530568794,0,-1,-1,-2,-3,-2,-2,-1
1528181530568794,-2,0,-2,1,-2,-1,-5,-2
1528181530570802,-1,0,-3,0,0,1,-1,-2
1528181530570802,-1,0,-1,1,-1,0,0,0
1528181530591748,0,-3,-2,1,0,-2,1,-2
1528181530591748,0,-2,-2,-1,0,-4,0,1
1528181530592745,1,-1,1,-1,1,-1,0,0
1528181530592745,0,-2,0,0,0,-3,-1,-2
1528181530606372,-2,2,-1,-1,-1,0,0,1
1528181530606372,-1,0,-3,0,0,-1,-1,0
1528181530621085,0,-1,-1,1,1,0,1,-1
1528181530621085,-1,-2,0,0,-1,2,1,0
1528181530629361,-1,-1,1,-1,-2,-4,-1,-2
1528181530629361,0,0,1,-1,-2,-2,0,-3
1528181530630362,-1,1,0,0,1,-1,-1,-1
1528181530630362,0,0,1,-2,-2,1,-2,-2
1528181530652408,-1,1,-2,0,0,3,0,-1
1528181530652408,0,-3,-3,-1,-2,-1,2,2
1528181530653304,1,-2,1,-1,-3,-3,-1,0
1528181530653304,-1,-2,0,-1,-2,-1,0,-1
1528181530666605,1,-1,2,0,-1,-1,0,0
1528181530666605,2,0,0,-2,0,0,-4,2
1528181530672245,-2,1,-2,-1,-1,0,-5,-1
1528181530672245,-2,1,-2,-3,-1,-2,-3,2
1528181530689227,-3,0,-2,-1,0,-1,-2,-1
1528181530689227,-1,-2,0,2,0,0,-1,-3
1528181530690199,-4,-4,1,0,0,-3,0,-3
1528181530690199,0,-2,1,0,1,-3,1,-3
1528181530712195,1,-1,0,-1,-1,-1,2,1
1528181530712195,-1,-1,-2,0,-2,0,0,-2
1528181530713142,1,-1,-1,-1,-3,0,-2,2
1528181530713142,-1,-2,0,-1,-1,-2,0,-1
1528181530726136,0,-2,3,0,1,-1,2,-1
1528181530726136,0,1,1,-2,0,0,1,0
1528181530734096,-2,2,-3,0,1,0,-1,0
1528181530734096,-2,1,-3,1,1,-1,-1,-1
1528181530749352,-2,-3,-3,-2,0,0,-4,-1
1528181530749352,-2,-1,1,0,-1,-2,-1,2
1528181530751035,-1,-1,-2,0,-1,-1,-1,0
1528181530751035,1,0,-2,-1,0,-3,-1,-1
1528181530772240,-2,0,-3,2,-3,-2,0,-3
1528181530772240,0,1,0,0,0,1,3,0
1528181530773199,0,-3,0,0,1,0,0,-3
1528181530773199,0,1,2,-2,0,2,-1,0
1528181530785191,0,1,0,1,0,0,-2,0
1528181530785191,-3,1,-1,-1,1,-1,0,0
1528181530801899,-1,0,1,-1,-1,-1,-2,1
1528181530801899,-2,-1,-2,-1,0,0,1,2
1528181530809905,-1,-2,-2,-2,0,0,2,-1
1528181530809905,-2,-3,-1,-1,0,-3,0,-1
1528181530810876,0,0,0,1,0,-2,1,-1
1528181530810876,-2,-1,-1,1,-3,-1,-3,-3
1528181530832064,-3,0,0,-1,-1,1,-2,-1
1528181530832064,-1,0,0,-1,-1,-2,-1,-1
1528181530833101,2,0,0,-1,-3,0,0,0
1528181530833101,1,2,-1,-2,-2,-2,-3,0
1528181530854789,1,-1,-1,0,0,-2,-1,0
1528181530854789,1,-2,1,-2,0,2,1,1
1528181530855764,-3,-2,-1,-3,0,-2,-1,-1
1528181530855764,-1,1,-1,-1,0,0,1,-1
1528181530869850,0,-1,-2,0,0,0,1,1
1528181530869850,-1,-2,-1,0,0,-2,-1,-2
1528181530870761,-1,-2,0,0,-2,2,0,-3
1528181530870761,-2,-3,-2,-1,-2,0,1,-3
1528181530890924,1,0,2,-1,-2,1,-1,-1
1528181530890924,-1,2,1,-1,-2,0,-1,0
1528181530891659,-1,-1,-1,-1,0,0,-1,1
1528181530891659,-1,-1,-3,-3,-2,0,-1,1
1528181530914214,1,0,-2,1,2,-2,-2,-3
1528181530914214,1,-4,-3,-2,2,-2,-2,0
1528181530914214,-1,-1,-2,-1,2,0,1,-1
1528181530914214,1,-1,-1,0,-1,-1,0,-2
1528181530928464,0,-3,0,-2,-1,-1,-1,0
1528181530928464,-1,2,-1,1,-4,1,-3,-1
1528181530929123,-1,2,1,0,0,-2,-1,-3
1528181530929123,-2,-2,0,1,0,0,3,3
1528181530951102,-2,-2,0,0,-2,0,2,1
1528181530951102,-1,-1,-4,1,-2,-1,-1,-2
1528181530952101,1,-3,-1,0,-2,0,0,3
1528181530952101,0,0,-2,0,0,-1,-3,1
1528181530974124,0,0,1,-1,0,-2,-1,-1
1528181530974124,0,-2,-1,-2,-1,0,0,0
1528181530974124,-1,-2,-1,-1,-1,-1,-3,-2
1528181530974124,-2,0,0,1,0,0,-1,-2
1528181530988966,-1,2,0,-1,-1,1,1,0
1528181530988966,-2,1,1,-1,-1,0,0,-3
1528181530988966,1,1,-2,-1,-1,-2,-1,-2
1528181530988966,2,-3,-1,0,2,0,-1,-1
1528181531011964,2,-1,-4,-1,-1,0,-2,-2
1528181531011964,1,-1,-1,1,-1,-2,-2,0
1528181531019126,-2,-1,0,0,-2,-3,-2,0
1528181531019126,0,0,0,-2,-1,-3,0,1
1528181531034086,1,1,1,1,1,0,-1,0
1528181531034086,0,0,0,-1,0,-1,-3,-4
1528181531034726,-1,0,-1,0,-1,0,-1,1
1528181531034726,-1,-3,-2,1,1,2,1,0
1528181531049021,-1,-1,-1,-2,-1,-1,0,-1
1528181531049021,-2,1,-1,0,0,-3,2,0
1528181531049021,2,1,-2,0,0,-2,-2,0
1528181531049021,0,-2,-1,1,-1,-3,-4,-3
1528181531071376,-2,-1,0,-2,3,0,-2,0
1528181531071376,-1,1,-1,-1,1,5,4,2
1528181531072071,-1,-1,0,-2,1,2,0,1
1528181531072071,0,1,-2,-3,-3,-4,-1,-1
1528181531094828,-1,-2,-3,-1,-3,-1,-4,0
1528181531094828,2,-1,1,1,-1,-2,-4,1
1528181531094828,1,1,-2,1,1,2,0,0
1528181531094828,0,0,0,1,-1,2,-1,-3
1528181531111014,-3,0,-1,1,-2,-4,0,-1
1528181531111014,-1,0,0,0,0,-1,1,-1
1528181531111936,0,-1,0,-1,-2,0,3,3
1528181531111936,2,-1,2,-1,1,0,4,2
1528181531130953,-1,2,-1,-2,1,1,1,-7
1528181531130953,-1,-1,-1,-2,0,-1,-5,-6
1528181531131692,0,-1,-2,-1,1,1,-2,-1
1528181531131692,-2,0,-1,-1,2,1,0,0
1528181531154301,0,-3,-1,2,-1,-2,1,4
1528181531154301,0,-1,0,-2,0,-4,0,2
1528181531154940,0,-1,-1,0,-2,-3,-2,-3
1528181531154940,-1,-1,0,0,-3,0,-2,-2
1528181531176883,2,0,-1,0,-3,0,-3,0
1528181531176883,0,0,-2,-1,-2,-1,1,-2
1528181531178155,-1,-3,0,0,-1,-2,0,-1
1528181531178155,0,-1,1,-1,-1,-1,-2,0
1528181531191106,-2,1,-3,-1,1,-1,-2,0
1528181531191106,0,-1,-2,0,1,1,2,2
1528181531191840,1,-1,0,0,-2,1,2,3
1528181531191840,-2,-1,0,0,-1,0,-1,-2
1528181531214825,1,-1,2,-1,1,1,1,1
1528181531214825,0,-1,0,-2,0,0,-2,-1
1528181531214825,-1,1,-2,-1,1,2,1,-6
1528181531214825,1,0,-2,-1,3,0,0,-3
1528181531228758,0,1,-1,-2,0,-2,-2,-1
1528181531228758,-1,0,-1,0,0,-1,-3,3
1528181531229738,-2,-2,0,-2,0,-2,1,3
1528181531229738,0,-1,-2,0,0,1,1,3
1528181531250945,-3,-2,-2,0,-3,-2,-2,-8
1528181531250945,3,-2,0,1,-3,-2,-3,4
1528181531251680,0,0,-1,-2,-4,-3,-4,-4
1528181531251680,-8,-2,1,-1,-2,-3,3,-6
1528181531273672,1,-1,-1,1,0,0,1,0
1528181531273672,-2,-2,0,0,1,1,-1,-3
1528181531274635,-1,0,1,-1,-2,2,3,4
1528181531274635,1,-1,-1,-1,-3,0,-3,6
1528181531296599,2,1,-1,0,-3,-2,2,0
1528181531296599,0,0,-3,-2,0,-1,0,-1
1528181531297569,0,0,-2,-1,1,-2,-3,0
1528181531297569,1,2,-2,0,0,-2,0,0
1528181531310577,-2,-1,-2,0,-1,-2,1,1
1528181531310577,-1,-1,0,0,-2,-1,0,-1
1528181531311521,-1,-1,0,0,-1,2,1,-3
1528181531311521,0,1,0,0,-1,-1,-2,-2
1528181531334514,0,0,0,-3,0,1,-2,3
1528181531334514,-1,-1,0,-2,1,-2,-1,-4
1528181531334514,-1,0,-1,2,0,0,0,-2
1528181531334514,0,-1,1,-1,0,-2,0,1
1528181531348475,-1,-2,1,0,0,-1,2,1
1528181531348475,0,0,-1,-1,0,1,2,1
1528181531349473,0,0,-1,-1,-1,-3,-4,-5
1528181531349473,-1,1,0,-1,-1,0,-2,-4
1528181531370417,0,-1,-1,0,-2,0,0,0
1528181531370417,-1,-2,-2,-1,-3,-2,-2,-2
1528181531371411,0,-1,-3,-1,0,-2,-2,3
1528181531371411,-1,-1,-2,-1,-1,2,-4,-3
1528181531394353,1,-2,-1,0,-1,-1,0,-2
1528181531394353,-3,1,0,-1,0,-1,0,0
1528181531395296,2,2,1,-1,0,0,1,-2
1528181531395296,2,0,0,0,-1,2,3,3
1528181531408313,-1,-1,-1,1,0,0,-4,0
1528181531408313,0,0,-3,1,-2,-3,-1,1
1528181531409258,-3,-2,-1,0,-1,-1,2,2
1528181531409258,2,-1,-2,-3,-1,-2,0,0
1528181531430257,1,-2,-1,-1,-2,2,2,-1
1528181531430257,-1,-2,-2,1,0,3,-1,-1
1528181531438233,0,-2,0,-1,-2,-1,-2,0
1528181531438233,-1,0,-2,-2,1,-1,0,-4
1528181531445162,1,-1,-1,-3,-1,-3,-1,-2
1528181531445162,-1,-2,-1,-1,0,1,0,-2
1528181531453193,-3,-2,-2,0,-1,0,-1,-2
1528181531453193,-2,-4,-1,1,-2,-2,-1,0
1528181531476132,-2,-2,0,0,0,-1,1,-2
1528181531476132,-1,0,-1,-2,-1,-3,-1,-1
1528181531477131,-2,0,0,-1,0,-1,-1,0
1528181531477131,-1,0,0,-2,-1,2,0,2
1528181531491093,-2,0,1,0,-1,-1,-3,-2
1528181531491093,-1,0,-1,0,-1,-1,2,-1
1528181531492092,0,-2,-2,0,-1,0,2,-2
1528181531492092,-2,0,-2,0,-2,-2,-2,-1
1528181531516003,-1,0,-1,-2,0,2,0,0
1528181531516003,1,-1,0,-2,0,1,-3,2
1528181531516003,1,-1,1,-1,0,-1,-3,1
1528181531516003,0,-3,-3,0,0,0,1,2
1528181531528938,-1,-1,-1,-1,-2,1,1,1
1528181531528938,-2,1,-2,0,-1,-1,1,-1
1528181531528938,-1,-1,1,-2,-2,-1,1,-2
1528181531528938,-1,-1,-2,-1,-1,0,-2,-1
1528181531550932,-1,0,-2,1,1,1,-3,0
1528181531550932,-1,1,-3,-1,-1,0,-4,0
1528181531551916,-2,0,1,-2,1,-1,-3,1
1528181531551916,-2,-1,0,0,3,-1,1,-2
1528181531573820,-1,-2,0,0,-1,-4,3,-3
1528181531573820,1,-2,0,-1,-1,-4,-2,-1
1528181531574818,-1,2,0,0,-1,0,-1,1
1528181531574818,0,-1,1,-1,-1,-2,-3,0
1528181531589030,-1,2,0,0,-2,-1,-2,-1
1528181531589030,0,0,0,-1,-2,2,-1,-2
1528181531589030,0,0,-1,0,-1,-2,0,-2
1528181531589030,0,0,-2,-1,-1,1,0,-1
1528181531610721,2,-2,-2,0,-2,1,-1,-1
1528181531610721,1,-4,1,0,0,1,0,1
1528181531611723,-4,-1,-1,0,-1,-3,-1,1
1528181531611723,0,1,0,-1,-1,-2,-1,0
1528181531636330,-1,1,-2,-1,-1,-2,-2,-1
1528181531636330,1,2,-3,-1,-1,-1,1,-1
1528181531636330,1,1,-4,-2,3,2,-1,-3
1528181531636330,0,0,1,1,1,-2,-1,-2
1528181531649184,0,-1,0,0,-1,-3,-2,0
1528181531649184,-3,-3,0,0,0,-2,-3,-1
1528181531649184,-1,-2,-1,2,0,1,-1,-2
1528181531649184,1,-1,-2,-1,-2,0,0,0
1528181531671110,0,1,-1,0,-1,0,-3,2
1528181531671110,-2,-1,1,-1,-2,-1,-2,-5
1528181531672401,0,0,-2,-1,1,-1,4,-2
1528181531672401,1,0,-1,2,-2,-3,4,-1
1528181531694851,-1,0,-2,-1,1,0,3,0
1528181531694851,0,-1,0,0,1,0,0,1
1528181531694851,0,-2,4,-1,-1,2,-1,-1
1528181531694851,-2,0,-1,-3,0,0,-4,-1
1528181531708804,-1,2,-2,-2,-1,2,-1,1
1528181531708804,-1,-2,-1,-1,-1,-1,-3,1
1528181531709800,-2,-3,-2,1,-3,0,-3,0
1528181531709800,-2,-3,-1,0,-3,0,1,-2
1528181531730915,-4,-3,-1,-2,-1,-3,-3,-3
1528181531730915,-1,-1,-2,0,-1,-1,-1,-1
1528181531731527,-1,0,1,-3,1,-3,2,1
1528181531731527,-2,1,1,-1,-1,-2,-1,-2
1528181531754772,0,0,1,0,1,-1,-2,0
1528181531754772,0,-1,-1,-1,0,0,1,0
1528181531754772,-1,-1,-1,-1,-1,-1,-2,0
1528181531754772,0,-3,-2,0,2,0,-3,-1
1528181531769145,0,-3,-2,-2,-1,1,3,-1
1528181531769145,1,-1,-2,0,0,1,-1,0
1528181531769721,1,-1,1,0,-1,1,0,1
1528181531769721,1,0,1,-1,-3,2,2,2
1528181531791705,0,-1,1,-1,-3,-1,-2,-1
1528181531791705,-1,2,1,-2,-1,-1,1,-1
1528181531791705,1,1,0,-1,-1,-4,-3,-6
1528181531791705,0,-3,0,-1,-2,-3,-2,-2
1528181531813601,0,0,2,-1,0,0,-1,1
1528181531813601,0,-1,-1,1,1,0,1,2
1528181531820608,0,0,-2,0,2,0,-2,2
1528181531820608,0,1,0,1,1,-4,-5,0
1528181531828561,-3,-2,-1,-2,0,-1,-1,-3
1528181531828561,-1,0,0,-1,-1,0,-1,-3
1528181531829560,-1,-2,-3,-2,1,-1,2,-1
1528181531829560,-1,-4,0,0,2,1,2,0
1528181531851715,1,0,-1,1,-1,1,-1,1
1528181531851715,0,-1,-1,-1,-2,-1,0,-1
1528181531851715,-2,-3,-3,-1,-4,2,-1,-1
1528181531851715,0,-2,-1,0,0,-1,-2,0
1528181531874566,0,1,1,0,1,-1,-4,0
1528181531874566,1,0,-2,1,0,-3,-2,0
1528181531874566,-1,1,1,-3,-2,0,-1,1
1528181531874566,-1,-1,1,-2,-1,0,2,-2
1528181531888401,0,-2,0,-2,0,1,1,1
1528181531888401,1,0,0,0,1,0,1,0
1528181531889399,-1,1,-2,0,-1,-4,-3,-2
1528181531889399,-2,-1,-2,0,-3,-2,-2,-2
1528181531911523,2,0,0,-2,-1,-1,4,-1
1528181531911523,-3,-2,-2,0,-2,0,-1,-1
1528181531911523,-1,-2,2,0,-1,0,-2,1
1528181531911523,1,1,0,-1,-1,1,-3,1
1528181531934855,2,1,1,2,0,-3,-1,1
1528181531934855,0,-1,-1,-2,1,0,2,0
1528181531934855,1,0,-1,-1,-1,0,0,0
1528181531934855,-2,-2,-3,-1,-1,-1,0,-1
1528181531948873,-3,0,-2,-1,1,-1,-1,-4
1528181531948873,-3,0,0,2,-1,0,0,-2
1528181531949527,-2,4,-3,1,0,0,1,-1
1528181531949527,1,1,1,1,-2,-2,-1,1
1528181531971471,1,-5,-1,0,-3,0,-1,1
1528181531971471,3,-3,-1,0,-3,-1,2,0
1528181531971471,2,-1,-1,0,-1,-4,-2,0
1528181531971471,0,2,0,-1,0,0,-2,0
1528181531994082,-1,-5,-1,-1,-1,-4,-4,-1
1528181531994082,-1,-2,0,-1,-1,-1,0,2
1528181531994668,0,-2,-1,0,0,1,2,1
1528181531994668,0,1,0,-3,-1,0,-1,-1
1528181532008676,-2,3,-3,0,0,-1,-1,-1
1528181532008676,-2,3,-1,-2,-2,-1,-1,-2
1528181532009941,0,2,-2,-1,0,-3,-1,-2
1528181532009941,0,-2,0,0,0,-1,-1,0
1528181532030563,-2,2,-1,0,-1,2,-1,-2
1528181532030563,-1,-1,0,-1,0,-2,-2,0
1528181532031569,-1,-2,-2,1,1,-1,-1,-3
1528181532031569,2,1,-1,0,1,-2,1,0
1528181532054732,2,-2,-2,-1,0,-3,1,0
1528181532054732,0,0,1,-1,-1,-4,0,-2
1528181532055653,0,-4,2,-1,0,-2,-2,-1
1528181532055653,-4,-4,-3,-1,-1,0,-2,-1
1528181532068825,-3,-1,0,-1,-1,0,1,-2
1528181532068825,-1,-1,-2,1,-1,0,-2,1
1528181532069555,-2,2,-2,0,0,0,-1,2
1528181532069555,0,-2,-1,-1,1,1,1,0
1528181532091505,0,1,-1,0,0,0,-1,0
1528181532091505,2,0,0,0,-1,2,0,-1
1528181532091505,1,-1,-1,-2,-2,2,-4,1
1528181532091505,-1,-1,-1,0,-1,-2,1,1
1528181532130791,2,0,-1,-1,0,0,1,1
1528181532130791,0,-2,-2,1,-1,-3,-2,-2
1528181532131391,-1,-2,-1,-1,-2,-2,-1,-1
1528181532131391,-2,-2,0,0,-2,-1,1,-1
1528181532132389,-1,0,0,-2,-2,-1,-2,2
1528181532132389,-1,-1,1,0,-2,0,-1,3
1528181532136725,0,-1,0,0,0,0,1,1
1528181532136725,-2,-1,-1,1,3,-3,-3,-3
1528181532151605,-1,-1,-1,0,-2,-1,0,-3
1528181532151605,0,2,-1,-2,-1,1,-1,-1
1528181532151605,-1,3,-2,0,1,1,-1,-4
1528181532151605,0,3,-1,-1,0,2,1,1
1528181532175023,-3,0,-1,1,1,2,-2,-2
1528181532175023,-1,-2,-2,-1,-2,-1,0,-2
1528181532175023,-2,-4,-2,0,-1,-2,1,1
1528181532175023,-1,0,-2,-2,-1,-2,0,1
1528181532188545,-2,2,0,-3,-1,-3,-1,-1
1528181532188545,1,1,0,0,1,-2,-1,-1
1528181532196653,1,1,2,-1,-1,0,0,-2
1528181532196653,1,-4,0,1,0,-1,-1,1
1528181532211727,0,-4,1,-1,-1,-1,-2,1
1528181532211727,-2,0,-2,-2,-2,1,-3,-1
1528181532211727,0,0,0,1,1,0,-1,0
1528181532211727,0,-1,1,-3,-3,-1,0,-1
1528181532234422,-1,-4,-1,0,-1,-1,3,-1
1528181532234422,-1,-4,-2,0,-1,0,2,-1
1528181532235423,-1,-2,-2,0,-2,-1,-1,-3
1528181532235423,0,0,-2,-1,-2,2,-1,-1
1528181532247388,0,1,0,-1,0,1,-3,0
1528181532247388,0,-1,-1,-2,0,-2,-5,2
1528181532256596,-2,-1,1,-3,-1,-3,0,0
1528181532256596,-1,-2,0,1,2,-3,1,0
1528181532271355,-1,-1,-3,1,1,-1,3,-2
1528181532271355,-1,0,0,1,-1,1,0,-1
1528181532272350,0,-2,0,-2,-3,2,0,0
1528181532272350,0,1,-1,-1,-3,-1,-2,-2
1528181532294267,-4,-1,-3,1,-1,-2,-2,-1
1528181532294267,-2,0,-2,-1,2,-1,1,-1
1528181532295260,0,-2,0,-1,-1,0,-1,-1
1528181532295260,0,-1,0,0,0,2,-1,1
1528181532317263,2,-1,0,-2,0,-1,-3,0
