timestamp,emg1,emg2,emg3,emg4,emg5,emg6,emg7,emg8
1528446712943081,1,-2,-2,-1,-1,-1,-1,-2
1528446712943081,-1,-2,0,-1,1,-2,-1,-1
1528446712952025,0,-1,-2,0,-1,-1,-2,0
1528446712952025,-1,-1,-1,-2,-1,-1,0,0
1528446712967014,-2,-3,1,-2,-1,0,-2,-1
1528446712967014,-2,0,-1,-2,-2,-1,-1,0
1528446712969009,0,-2,-1,1,-1,-1,0,-2
1528446712969009,-2,-1,-1,-1,-1,-1,-2,-1
1528446712988927,0,1,0,0,0,-2,-1,-1
1528446712988927,1,-1,-1,0,-2,0,-1,2
1528446712990922,-1,0,-1,0,0,0,-2,-6
1528446712990922,0,-2,-2,2,-1,0,1,-2
1528446713002944,-2,-1,-1,-2,-1,0,0,-3
1528446713002944,0,0,0,-3,-2,-2,0,-1
1528446713019846,-1,-1,-1,-2,-1,-1,0,0
1528446713019846,0,0,-1,-1,0,-2,-1,-1
1528446713026826,0,-1,-1,-2,-2,1,-2,-2
1528446713026826,0,0,-3,-1,0,-2,0,-2
1528446713028820,-1,-2,-2,-1,-1,-1,0,-1
1528446713028820,-3,-2,-2,-1,-2,-2,-2,-1
1528446713049765,-1,-2,-1,0,-3,-1,0,1
1528446713049765,0,-2,-1,0,-1,-2,-1,-2
1528446713050763,0,-1,-2,0,0,1,-1,1
1528446713050763,-1,0,0,-1,-2,-1,0,-1
1528446713062731,-1,-1,1,1,-2,1,-1,-2
1528446713062731,-2,0,-1,0,-1,-1,-1,0
1528446713071706,-2,-1,-1,-2,-2,-1,-1,0
1528446713071706,-1,0,-2,-1,-1,-2,-1,-1
1528446713086681,-1,0,-1,-2,0,-1,0,0
1528446713086681,1,-2,0,0,0,-1,-1,-2
1528446713088661,0,-1,-1,-1,-2,0,-2,1
1528446713088661,-2,-1,-1,-2,0,0,0,-2
1528446713109653,0,-1,-2,1,-1,-1,-1,-1
1528446713109653,-1,-2,-3,-1,-1,0,-1,-1
1528446713110641,-1,-1,-1,-1,-1,-2,-1,-1
1528446713110641,0,-1,-2,-1,-1,-1,0,-1
1528446713122570,-1,-1,0,-2,-1,0,-2,-1
1528446713122570,-1,-1,0,0,-2,-1,-1,0
1528446713132543,-1,-1,-1,-1,-1,-1,-2,-1
1528446713132543,-2,-1,0,-1,-1,-1,0,-2
1528446713146508,-2,0,-1,-1,-2,-1,-1,0
1528446713146508,-1,1,-1,-2,-3,0,-1,-2
1528446713153487,-2,-1,0,-1,-1,-1,0,-3
1528446713153487,-1,-1,-1,-1,-2,-1,-1,-2
1528446713169444,-1,0,-1,-2,-2,-3,-1,0
1528446713169444,1,-2,0,0,-1,0,1,-1
1528446713171439,-2,-1,-1,0,-1,0,-3,-3
1528446713171439,-1,0,-1,-2,-2,-2,-1,-1
1528446713183407,-3,-3,-1,0,0,-1,1,-2
1528446713183407,-2,-1,-2,-1,0,-1,-2,-2
1528446713193382,0,-2,-1,-3,0,-2,-2,2
1528446713193382,-1,-2,0,0,-2,-2,1,4
1528446713206346,1,0,0,-1,0,-2,-1,-4
1528446713206346,-1,0,-1,-1,0,-2,-2,-2
1528446713213369,0,0,1,-1,-1,-1,-1,-1
1528446713213369,0,-2,-3,-1,-2,-1,-1,-2
1528446713229285,-1,-1,-3,-1,-2,-1,-1,-1
1528446713229285,1,-2,-2,-2,-2,-1,-1,1
1528446713231281,1,0,-1,-1,1,-1,0,0
1528446713231281,0,-1,0,0,-1,-1,-1,-3
1528446713243266,0,-1,-2,-2,-3,1,0,-1
1528446713243266,-2,-1,1,0,-1,-1,-1,-2
1528446713252239,-2,-1,-1,-1,-1,-1,-1,-1
1528446713252239,0,-2,-1,-1,-2,1,-1,0
1528446713267187,1,-4,0,-2,-2,0,-2,0
1528446713267187,-1,-1,-2,1,-1,-1,-1,-1
1528446713269178,0,-2,-3,-3,-2,-1,0,0
1528446713269178,-2,0,0,-1,0,-1,-1,0
1528446713290122,0,1,-1,-1,-1,-2,-1,0
1528446713290122,-1,0,0,-2,-1,-2,0,-2
1528446713291119,-1,-1,0,-1,-2,0,-1,-1
1528446713291119,-3,0,0,0,0,-1,-2,1
1528446713303327,-3,-1,-3,-2,-2,-1,-3,-4
1528446713303327,0,-2,-2,-1,-1,-2,-2,-1
1528446713312065,0,-2,-1,0,-2,0,-1,-2
1528446713312065,-1,0,-2,-1,-2,-1,-1,-2
1528446713326333,-1,-1,0,1,0,-1,0,0
1528446713326333,0,-1,-3,-3,-2,-1,-2,-1
1528446713327338,0,-2,-2,-3,-3,0,1,0
1528446713327338,0,-2,-2,0,1,0,-4,-5
1528446713349429,0,0,-1,0,1,-1,-1,-2
1528446713349429,-2,-1,-2,-2,-1,0,-2,-1
1528446713350322,0,-2,-1,-2,-1,-2,-1,1
1528446713350322,0,0,-1,0,0,-1,0,1
1528446713371216,0,-1,0,-1,-2,-1,0,-2
1528446713371216,-2,0,-1,-3,-1,-2,-1,-1
1528446713372214,0,-1,0,-1,-2,-2,-2,0
1528446713372214,0,-1,0,1,0,-2,-1,-1
1528446713385523,-2,-2,1,-1,-2,-1,-2,-1
1528446713385523,0,-2,-1,0,-4,0,1,-1
1528446713393187,-2,0,-2,-2,0,0,-2,-2
1528446713393187,-3,-2,-1,-4,-3,-1,-1,-1
1528446713409143,-2,0,-1,-1,-1,-2,-3,-5
1528446713409143,-2,-1,-1,1,0,0,-2,-2
1528446713409143,-1,0,-1,-1,0,-1,0,-1
1528446713409143,0,-1,-2,0,0,-1,-1,-2
1528446713431299,-2,-2,-1,-1,0,-1,0,2
1528446713431299,1,0,-1,-3,-3,-1,-3,-2
1528446713432055,-1,-1,-1,-1,-2,-1,-1,-2
1528446713432055,1,0,2,0,-3,-2,-1,1
1528446713461974,0,-1,0,-1,-1,-2,0,1
1528446713461974,-1,-1,-1,-1,0,-1,-1,-2
1528446713469952,-1,-1,0,-1,0,-3,-1,-1
1528446713469952,-2,-1,-3,-4,-3,-1,0,-1
1528446713471947,-1,-1,-1,0,-1,0,-5,-4
1528446713471947,-1,-1,-1,-2,-1,-1,0,-1
1528446713472944,-1,-1,0,-1,-1,-1,-1,-1
1528446713472944,0,0,0,0,-1,2,-1,-1
1528446713490895,-1,0,0,0,0,-2,-1,0
1528446713490895,-3,-3,-2,-1,-2,-2,-1,-1
1528446713491893,0,-2,-1,-1,0,0,-1,0
1528446713491893,-1,-2,-1,-1,0,0,-2,-1
1528446713505868,-1,0,-1,-4,-1,0,1,0
1528446713505868,1,1,0,-1,0,-1,-1,-1
1528446713512838,-1,-1,-1,0,-3,-2,-2,-2
1528446713512838,-2,0,-2,-1,-1,-1,-1,-3
1528446713528847,-2,-2,-1,1,-1,0,0,0
1528446713528847,-2,-1,0,1,0,-1,-1,-2
1528446713543807,-2,0,-2,-1,-2,0,0,-1
1528446713543807,0,-1,0,-1,-2,-1,-2,-1
1528446713550789,1,-3,0,-1,-1,-2,0,0
1528446713550789,-1,0,-1,-2,-1,0,0,-1
1528446713551774,0,0,0,-1,0,0,-2,-2
1528446713551774,-2,-1,-1,-2,-1,-1,0,-1
1528446713566767,0,-1,0,1,0,-1,-1,-2
1528446713566767,-2,-2,0,-1,-2,-2,-2,-1
1528446713572731,0,-2,-2,-1,1,-2,-2,0
1528446713572731,-1,-2,-1,-1,-2,-1,1,-1
1528446713588635,0,-1,-1,-3,-1,-2,-1,0
1528446713588635,0,-2,-2,-2,0,0,-1,0
1528446713589633,-2,-1,-1,-2,0,0,-2,-1
1528446713589633,-1,-2,0,0,-2,0,1,1
1528446713611593,-2,-1,-2,0,-3,-1,-1,0
1528446713611593,-1,-2,-1,0,-1,-1,-2,-1
1528446713611593,0,0,-2,-1,-2,-2,1,0
1528446713611593,-1,-2,-1,-3,0,-1,-3,-2
1528446713626562,-1,-1,0,-1,0,1,0,0
1528446713626562,-3,-1,-1,-1,-1,-2,-2,-3
1528446713626562,-2,-1,-1,0,-2,-1,0,-3
1528446713626562,-1,-1,-1,2,0,-2,-1,-2
1528446713648529,-2,-1,-2,1,-2,-2,-3,-2
1528446713648529,-1,0,-2,-1,0,-1,0,-1
1528446713649481,-1,-1,-1,-1,0,-1,-2,-1
1528446713649481,1,-1,-3,-1,-1,-2,-1,-1
1528446713671444,-1,-1,-1,-1,-2,0,-1,0
1528446713671444,0,-1,-1,-2,-1,-1,1,-1
1528446713672443,0,-1,-1,-1,-2,-3,0,-1
1528446713672443,-2,-2,-2,-1,-2,0,-2,-1
1528446713686425,-2,-2,-2,0,0,-1,-3,-2
1528446713686425,-1,-1,-1,-3,-2,-2,-1,0
1528446713687423,-2,-2,-1,-2,-2,-1,-3,-2
1528446713687423,-2,-2,0,-1,-1,0,-2,-1
1528446713708316,-1,-2,-2,-1,0,-1,-1,-2
1528446713708316,-1,0,0,-1,-1,0,-1,0
1528446713716320,0,-3,-1,1,1,-1,-1,0
1528446713716320,0,-3,-1,-2,0,-2,-1,-1
1528446713731293,-1,0,0,-2,0,0,0,-2
1528446713731293,0,0,0,0,0,-1,-2,-2
1528446713732287,-1,-1,0,-3,-2,-2,1,-1
1528446713732287,-1,-1,-1,-1,1,-1,-1,-1
1528446713754193,0,-1,-1,-2,-2,-2,0,-3
1528446713754193,-1,-2,-1,-1,-3,0,-2,1
1528446713754193,-2,0,-2,-1,-1,1,0,-2
1528446713754193,-2,1,0,-2,-1,0,0,0
1528446713768155,-1,0,-1,-2,0,-2,0,1
1528446713768155,-1,-2,-2,0,-2,-1,-3,-3
1528446713776133,0,-2,-1,-1,-2,-1,-3,-3
1528446713776133,-1,1,0,1,0,-3,2,3
1528446713791094,0,-2,-1,0,-1,1,0,-2
1528446713791094,-1,-1,-2,0,0,0,-1,0
1528446713792099,-1,-1,0,-2,-2,0,-2,0
1528446713792099,1,0,-1,-3,0,0,-1,-1
1528446713822011,0,0,0,-2,-1,-2,-1,0
1528446713822011,-1,-1,-1,-1,0,-1,-1,1
1528446713823008,-1,0,-2,-1,0,0,-1,0
1528446713823008,-1,0,-1,-2,0,-1,0,-2
1528446713828043,-1,-1,-2,-2,-3,-2,-1,-1
1528446713828043,1,-1,-2,-3,-1,-1,0,-3
1528446713836971,-1,-1,-2,0,0,-1,0,-1
1528446713836971,-1,-2,0,1,0,-1,-2,-1
1528446713851522,-3,-1,-1,0,-2,-1,-2,-1
1528446713851522,-1,-1,-1,-1,-1,0,1,1
1528446713852248,-1,-2,-1,-2,-3,-2,0,1
1528446713852248,-1,-2,-2,-1,0,-2,-1,-2
1528446713874068,0,-2,-2,-1,-2,-1,-1,-2
1528446713874068,-1,-3,-2,-1,-2,-1,-2,0
1528446713875124,1,0,-1,-2,0,0,-1,0
1528446713875124,0,0,0,-2,-2,0,0,-1
1528446713897310,-1,-1,-2,-2,0,0,-2,0
1528446713897310,-1,0,0,-1,-1,-1,-2,-1
1528446713898045,0,-1,0,0,1,-1,-2,-4
1528446713898045,-2,0,-1,-2,-1,-1,0,0
1528446713911309,0,-1,0,0,-1,1,-3,0
1528446713911309,0,0,0,-1,-2,0,0,-2
1528446713912008,-1,1,-1,1,-1,0,2,2
1528446713912008,0,-1,-1,0,-1,-1,-2,-2
1528446713934211,-2,-1,0,-3,0,-3,0,-3
1528446713934211,-1,0,0,2,0,-2,-1,0
1528446713935214,-1,-1,-2,-1,-2,-1,0,-2
1528446713935214,-2,0,-2,-1,-1,-1,-2,-1
1528446713957712,-1,-1,-2,-2,-1,-2,-3,0
1528446713957712,-1,-2,-2,0,0,-2,-1,-1
1528446713957712,0,0,1,-1,-2,1,-2,-2
1528446713957712,0,-1,-1,-1,-1,-1,-1,-2
1528446713971829,1,-2,1,1,-2,0,0,0
1528446713971829,0,-1,1,-1,-3,-2,-3,-2
1528446713972749,-3,-1,-1,-1,0,-3,-2,1
1528446713972749,-1,-3,-3,-2,0,0,-2,-2
1528446713993619,1,-1,-1,0,-3,-1,0,0
1528446713993619,-1,-1,-1,-1,-1,-3,1,1
1528446713994617,0,-2,0,0,-1,-1,-5,-5
1528446713994617,0,-1,-1,1,-2,-2,0,0
1528446714016588,0,0,-1,-5,0,-2,-3,0
1528446714016588,0,-3,-1,0,-2,1,-1,-1
1528446714017557,1,0,-3,-3,-3,-1,-1,-1
1528446714017557,-1,0,0,0,2,0,0,-2
1528446714031742,-2,-2,-1,1,0,1,0,0
1528446714031742,-2,0,-1,0,0,-1,0,2
1528446714032692,-2,-1,-2,-2,-2,-1,-2,-3
1528446714032692,-1,-1,0,-1,-2,1,-1,-1
1528446714054384,0,-1,-3,0,-3,-1,0,0
1528446714054384,-1,-2,-1,-1,0,0,-1,-1
1528446714055234,0,-2,0,1,-1,-3,-1,0
1528446714055234,-1,-2,-1,-1,-1,-1,-1,-1
1528446714077396,-1,-1,-2,-3,-2,-1,-1,0
1528446714077396,-1,-1,-2,-3,0,1,-2,-1
1528446714078146,-1,-1,0,-3,-2,-2,-2,1
1528446714078146,-1,0,1,0,-2,-2,-1,0
1528446714099919,0,-1,-1,-4,-3,-1,-1,-3
1528446714099919,-2,-2,-2,-2,-3,0,-1,0
1528446714100919,-2,-1,-1,-2,1,0,0,0
1528446714100919,-1,-1,-2,0,-2,-3,-2,0
1528446714113885,-2,1,0,7,1,1,-2,-2
1528446714113885,-2,-1,1,1,1,-2,1,-1
1528446714115140,-1,-2,-2,-1,-1,0,1,-1
1528446714115140,-2,-1,-2,-1,-1,-2,-4,-3
1528446714137404,-2,-2,-1,-4,1,-1,-1,-1
1528446714137404,-2,-3,-2,2,-2,-2,-1,-1
1528446714138444,-1,-3,0,-2,-2,-2,0,0
1528446714138444,1,-1,2,-1,-2,0,1,1
1528446714151730,-3,-1,-1,2,0,-2,-4,-5
1528446714151730,-1,-1,-1,-1,1,0,-1,-2
1528446714152734,-2,-1,-3,-5,-3,-1,1,0
1528446714152734,0,-1,-3,-3,-2,-1,0,1
1528446714174051,-1,-3,-2,-3,-2,-1,-2,1
1528446714174051,1,-1,-1,0,-1,0,-3,-4
1528446714174671,-1,-3,-1,1,1,0,-2,0
1528446714174671,-1,-2,1,6,2,0,-1,-2
1528446714197385,-2,-1,-3,-9,-5,-3,-2,0
1528446714197385,0,0,-1,0,-3,-1,2,4
1528446714197989,-1,-2,-2,-1,0,-2,-7,-4
1528446714197989,0,-1,0,-1,-1,-1,-3,-6
1528446714210953,-1,-1,-1,1,0,-1,1,2
1528446714210953,-1,0,-2,-2,-1,-1,-3,-3
1528446714211951,-2,0,-1,-2,-3,-1,2,0
1528446714211951,-2,1,-1,-1,-1,-1,-1,0
1528446714234168,0,1,-2,1,0,-2,1,-1
1528446714234168,1,-2,-2,-5,-2,-4,-2,0
1528446714234168,-1,1,0,-2,0,1,-2,-2
1528446714234168,-1,0,-3,-4,-3,-2,-2,1
1528446714257203,0,-1,-1,7,4,2,1,1
1528446714257203,-3,-3,-4,-5,-5,-2,-3,-1
1528446714258174,-2,-1,1,9,2,-1,-1,-2
1528446714258174,-1,-1,-3,-14,-8,-3,-1,0
1528446714271142,-3,-2,-2,-1,0,-1,-2,1
1528446714271142,-2,-1,0,3,2,1,-1,-2
1528446714272136,0,0,-2,-4,-3,-2,-1,-2
1528446714272136,-1,1,-2,5,3,1,0,1
1528446714294400,0,-1,1,-2,-1,-2,0,-2
1528446714294400,0,-1,-2,-3,-2,-1,-1,0
1528446714294400,0,-1,-1,-2,-3,0,0,1
1528446714294400,-1,-1,-1,2,0,1,-1,-2
1528446714317342,-2,-2,1,-2,-2,0,-2,-1
1528446714317342,-1,-1,3,5,2,2,2,2
1528446714318015,-1,-2,-4,-4,-3,-2,1,-1
1528446714318015,-1,-1,0,-1,1,-1,-2,-2
1528446714331297,-2,-1,-1,-2,0,1,-1,-1
1528446714331297,-3,-1,-2,-8,-5,-2,-2,-8
1528446714332274,1,-1,-2,1,0,-1,0,1
1528446714332274,-2,-3,-2,-5,-2,-2,-1,-1
1528446714354416,0,-1,-1,2,-1,-3,-4,-2
1528446714354416,-1,1,1,12,6,1,-1,3
1528446714355244,-2,0,-4,-21,-8,-2,-1,1
1528446714355244,-3,-2,0,0,-1,-2,-5,-4
1528446714377736,0,-1,-1,-2,-2,-2,-2,-2
1528446714377736,-1,0,-2,-4,-3,-1,-1,-1
1528446714377736,1,0,1,7,1,-1,-1,0
1528446714377736,-1,0,-3,3,-1,0,2,2
1528446714391704,-1,-1,-2,-7,-2,0,-1,-2
1528446714391704,-1,0,-2,3,0,-2,-2,-2
1528446714399030,-2,-1,0,2,2,0,0,0
1528446714399030,1,-1,-3,-5,-3,-3,-5,-3
1528446714413686,-1,0,-2,0,1,-1,0,-1
1528446714413686,-1,-1,-1,-4,0,-1,-2,-1
1528446714414683,0,-1,-1,1,0,-1,-3,-3
1528446714414683,-2,-3,-1,-1,1,-1,2,0
1528446714436624,1,0,-1,1,-2,-1,0,2
1528446714436624,1,-2,-1,-3,0,0,-2,-1
1528446714437634,-1,-1,-2,-1,-2,-3,-5,-3
1528446714437634,0,-2,-2,2,1,-1,-1,1
1528446714450835,-2,-2,-2,-1,-1,-1,-1,-1
1528446714450835,-1,-1,-2,-2,-2,-1,1,2
1528446714458565,0,-1,1,4,0,-1,-2,1
1528446714458565,0,1,0,0,-1,-1,0,0
1528446714473786,0,-2,-1,-3,-2,-2,1,0
1528446714473786,-3,-1,-2,-3,-1,-1,-1,0
1528446714474523,-1,0,2,4,0,0,-1,-2
1528446714474523,-1,-2,-2,-5,-3,-1,0,-1
1528446714496764,-1,-3,-4,-4,-1,1,-2,-1
1528446714496764,-1,-1,-1,-1,-1,-2,-1,-2
1528446714497757,-1,-1,-2,-1,1,-2,1,-3
1528446714497757,1,1,0,6,2,1,3,5
1528446714511145,-2,1,-4,-6,-6,-3,-4,-4
1528446714511145,-4,-2,-2,-3,-2,-2,-6,-10
1528446714519015,-1,-2,-1,-1,-1,-2,0,0
1528446714519015,0,0,-1,1,-1,0,-1,-1
1528446714534228,0,-1,0,-1,-1,-1,0,0
1528446714534228,1,-1,-2,1,-1,-1,1,1
1528446714535225,-3,-2,-1,0,-2,0,-2,-1
1528446714535225,-1,-2,-2,-1,-1,1,-1,-2
1528446714564144,-2,-1,-1,0,-1,-2,-2,0
1528446714564144,1,-1,-3,-3,-1,-1,-1,-1
1528446714564879,-1,-1,-1,2,2,0,-2,-1
1528446714564879,-1,0,-1,-2,-2,-2,-2,0
1528446714572036,-2,-1,1,0,-1,0,0,1
1528446714572036,-2,-3,-1,1,-1,-2,-4,-6
1528446714579107,-1,0,-3,-2,0,-1,-1,-2
1528446714579107,-1,-1,0,-1,-1,1,-2,-1
1528446714594378,-1,0,0,1,0,-1,-1,-2
1528446714594378,-1,-2,-2,-4,-3,-1,0,1
1528446714595311,-1,0,0,-1,0,1,-1,-3
1528446714595311,-1,-2,-3,-4,-2,-2,0,-1
1528446714617460,-2,-2,-2,-1,0,0,-5,-3
1528446714617460,1,-1,2,0,0,0,0,1
1528446714618088,1,-2,-2,-2,-3,-1,0,2
1528446714618088,-1,-1,0,0,-2,-2,-4,-5
1528446714631103,-1,-2,-1,0,-1,1,-2,-2
1528446714631103,-2,0,-2,0,-4,-1,-1,-1
1528446714639052,-2,-1,0,-1,-2,-2,0,0
1528446714639052,-2,-2,-2,-2,-2,-2,-1,0
1528446714653991,0,-1,-1,-2,0,-1,3,2
1528446714653991,-2,1,-2,-1,-1,-2,-2,-1
1528446714655019,-1,-1,-1,0,0,0,0,-1
1528446714655019,0,0,-1,0,-2,-1,1,1
1528446714677194,2,-1,0,0,0,-1,0,1
1528446714677194,0,0,-2,0,-3,0,-1,-3
1528446714677928,-1,-1,0,1,-2,0,-1,-2
1528446714677928,-1,-2,-2,-1,0,-2,-5,-4
1528446714691156,0,1,-1,-1,-3,-1,1,0
1528446714691156,-1,-1,-1,-1,-2,1,-1,1
1528446714699433,0,-1,-2,-1,-2,-1,5,5
1528446714699433,-3,-3,-2,-2,-1,-1,-13,-10
1528446714714492,3,0,1,2,2,4,12,5
1528446714714492,-1,-2,-1,-2,0,-2,-6,-2
1528446714714492,-4,-4,-3,-5,-6,-10,-19,-9
1528446714714492,1,0,-1,0,1,1,10,9
1528446714737350,-3,-4,-3,-4,-2,-4,-9,-9
1528446714737350,0,-2,0,-2,-1,1,3,2
1528446714738346,2,1,0,3,2,1,6,4
1528446714738346,-1,0,4,1,-2,-2,1,-1
1528446714759029,-6,-5,-13,-15,-6,-3,-2,-1
1528446714759029,0,0,1,4,1,-1,3,2
1528446714761032,-3,-1,1,-2,0,-1,-3,-4
1528446714761032,0,0,-2,-1,-2,-1,2,-1
1528446714774400,-2,0,3,4,1,-1,-1,-1
1528446714774400,-3,-2,-7,-6,-3,-3,-3,-1
1528446714774400,1,-2,0,1,0,-1,-1,3
1528446714774400,-2,0,1,1,0,-1,-1,-1
1528446714796926,0,0,2,7,0,-1,-1,-1
1528446714796926,-1,-1,-4,-10,-5,-1,-2,-3
1528446714797923,-2,0,0,2,-1,0,1,0
1528446714797923,-2,-2,-4,-6,-3,-1,0,0
1528446714810889,-1,-1,0,2,0,-3,-4,-4
1528446714810889,-1,0,2,4,0,-1,1,0
1528446714818869,-3,-1,-3,-4,-1,0,0,-3
1528446714818869,0,-3,-1,-2,-1,-1,-2,-2
1528446714833827,-2,1,0,0,0,0,-1,0
1528446714833827,0,-1,-1,-1,1,-1,3,2
1528446714849312,-3,-3,-3,-3,-3,-2,-9,-11
1528446714849312,0,0,-1,2,1,-1,-2,0
1528446714857077,1,0,0,-1,0,-1,0,0
1528446714857077,-2,-3,0,0,0,0,2,3
1528446714858112,0,-2,-2,-1,1,0,0,2
1528446714858112,-2,-1,-1,-2,0,0,-2,-6
1528446714879004,0,-1,-2,-2,-1,-2,0,-1
1528446714879004,0,-1,-1,0,0,0,-2,-3
1528446714880001,0,0,-3,-2,-2,0,1,-1
1528446714880001,0,-3,-3,0,-2,-2,-1,3
1528446714894185,-1,-2,0,-2,-2,-1,0,0
1528446714894185,-1,0,0,3,0,-1,-4,-3
1528446714894997,1,0,0,0,0,2,0,1
1528446714894997,-1,0,-1,-2,-2,-2,0,0
1528446714916902,-1,-2,-2,0,-2,-1,-2,-1
1528446714916902,0,-1,-1,1,-1,0,0,1
1528446714917917,-1,0,-2,-4,-1,-1,1,-1
1528446714917917,-1,-1,-1,1,-1,-1,-1,-1
1528446714940042,-2,-2,-2,-3,0,-2,-6,-6
1528446714940042,-3,-2,-2,-2,-2,-2,-2,-2
1528446714940042,-1,-2,-1,3,0,0,2,0
1528446714940042,-1,-1,0,-1,-1,0,0,2
1528446714954069,-2,-1,-3,-2,-4,0,-2,-1
1528446714954069,-2,-1,-2,0,0,-1,-1,-3
1528446714955056,1,-2,-1,-1,-2,-2,0,7
1528446714955056,-2,-1,-1,-2,-1,-1,0,-2
1528446714977648,-2,-1,0,1,1,1,0,3
1528446714977648,1,1,-2,-2,-3,-2,-1,-3
1528446714978226,-2,0,-1,-1,-1,0,-1,-4
1528446714978226,-2,0,-1,-3,-1,-1,-1,-2
1528446714999901,0,0,0,-1,1,-2,-1,-2
1528446714999901,1,-2,0,1,0,-1,-1,0
1528446715000936,-2,0,2,0,0,-2,-1,-2
1528446715000936,-1,0,-1,-1,-2,0,0,0
1528446715013112,-2,0,3,2,-2,0,0,-1
1528446715013112,-4,-5,-9,-7,-2,-2,1,0
1528446715022869,0,0,-1,3,-1,0,-5,-2
1528446715022869,-3,-3,-4,-7,-2,-1,-2,-3
1528446715037103,0,0,0,0,0,1,-7,-5
1528446715037103,1,2,3,3,2,1,0,0
1528446715038858,-2,-4,-6,-7,-2,-1,0,0
1528446715038858,-1,0,0,0,-1,-1,-1,-1
1528446715059286,0,0,3,4,1,0,1,0
1528446715059286,-1,0,-7,-8,-5,-1,-2,0
1528446715061281,0,-1,0,-1,1,-1,-1,-2
1528446715061281,-1,-1,0,0,-2,-2,-2,0
1528446715073493,-1,-1,-2,-2,-2,-1,1,0
1528446715073493,-1,1,3,5,-1,0,-1,1
1528446715082226,2,-1,0,-2,-1,-1,0,0
1528446715082226,0,0,-4,-2,-1,-2,-1,-1
1528446715097502,0,-1,1,0,-1,-3,-3,-2
1528446715097502,-1,-2,0,0,-1,-2,-1,-1
1528446715098484,-2,0,-1,-3,-2,-1,0,-3
1528446715098484,-1,-2,-1,2,0,0,0,0
1528446715120209,-2,-1,-4,-5,-2,-2,0,-1
1528446715120209,-1,-1,0,-1,-1,0,2,2
1528446715120873,-5,-2,-2,-1,-1,-4,-7,-13
1528446715120873,0,1,-1,2,-1,1,0,2
1528446715134095,-1,-2,-3,0,0,0,-1,0
1528446715134095,-1,-2,-1,-1,-1,1,-1,-2
1528446715141077,-2,-1,-1,-1,-2,-1,0,4
1528446715141077,0,-2,-1,-1,-1,-2,0,-2
1528446715157041,-4,0,-1,-3,-1,-1,-1,-1
1528446715157041,1,-2,1,-1,-1,-1,-1,-2
1528446715158771,0,-1,-1,-2,1,0,1,1
1528446715158771,-1,0,-1,0,-2,-1,-3,-3
1528446715179649,-2,-2,-4,-3,0,-2,-1,1
1528446715179649,-2,1,0,0,-1,-2,-2,-1
1528446715181219,-1,-1,-1,-2,-2,0,0,0
1528446715181219,-1,0,0,-1,0,-1,1,-1
1528446715194511,-1,0,-2,1,-1,-2,0,0
1528446715194511,-4,-1,-3,-6,-4,-3,-1,-2
1528446715208390,1,-1,-1,2,-1,0,5,4
1528446715208390,-2,-2,0,1,-2,-3,-8,-7
1528446715217461,-1,-1,1,1,-1,-2,-2,-1
1528446715217461,-1,0,-1,0,1,-3,-2,-1
1528446715218119,-1,1,0,-1,-1,0,1,3
1528446715218119,-2,-1,-1,-2,-2,0,1,-1
1528446715239235,1,-1,-3,-1,-2,0,-1,2
1528446715239235,-1,-1,-1,-1,1,-1,-2,-1
1528446715247042,-1,-1,-1,-1,0,-1,-2,-2
1528446715247042,-1,-2,-1,-2,-2,0,-2,1
1528446715254027,-1,-2,-2,-1,-1,-1,-1,-3
1528446715254027,0,1,1,1,-1,1,0,1
1528446715261031,-1,-1,-2,-1,-3,-1,-1,-2
1528446715261031,0,-2,-2,-1,-1,-1,0,-1
1528446715276964,0,-1,-1,-3,-4,-2,-1,-1
1528446715276964,-1,-2,0,0,0,0,0,-1
1528446715278959,-2,-1,0,0,-2,-1,-2,-2
1528446715278959,-2,-1,-1,-3,-2,-2,0,1
1528446715300359,-1,0,-1,-2,-2,-1,2,-2
1528446715300359,0,-1,0,0,1,-2,-2,-1
1528446715301945,-1,-2,-2,-1,0,-1,-3,-2
1528446715301945,-1,0,1,0,0,-1,0,1
1528446715314133,-1,0,-1,0,0,-1,-2,0
1528446715314133,-1,-2,-1,-1,-2,-2,0,-3
1528446715321108,-2,-1,0,0,-1,-1,-1,-2
1528446715321108,-2,-2,-4,-1,-1,-1,1,3
1528446715336887,0,0,-1,-1,0,0,0,-2
1528446715336887,-4,-1,-1,-2,-2,1,-4,-2
1528446715338800,-1,0,-2,0,-1,-1,0,-2
1528446715338800,-2,0,-1,-1,0,0,0,-1
1528446715360118,-1,-1,-1,-3,-1,-1,-2,-1
1528446715360118,0,-2,0,0,-1,-1,2,1
1528446715361050,-1,-2,-1,-2,0,-1,-1,-1
1528446715361050,-1,-2,-1,-1,0,-3,-2,-2
1528446715373259,0,-3,-1,0,-1,0,0,1
1528446715373259,-2,0,-1,-3,-2,-1,0,-1
1528446715382303,-1,-1,-2,1,-3,-3,-1,0
1528446715382303,-2,-1,-1,-2,-1,-2,-2,-3
1528446715397632,0,-1,0,-1,-2,-1,0,0
1528446715397632,0,-1,-2,-2,0,-1,-1,-1
1528446715398581,-2,-1,-1,-1,-2,0,-1,-2
1528446715398581,0,-2,-1,0,-2,-1,1,2
1528446715420080,-1,-1,-2,-1,-2,-2,-1,-2
1528446715420080,-1,-1,-1,-1,-1,-2,-2,-3
1528446715420805,0,-1,-1,-2,0,1,0,0
1528446715420805,1,1,-2,-2,-2,0,-2,-2
1528446715432801,-1,-5,-1,-2,-1,-1,-2,-2
1528446715432801,0,-1,-1,1,-1,0,-1,0
1528446715441752,0,-2,0,-2,-1,-2,0,-1
1528446715441752,0,-2,-1,-2,-1,-1,0,-2
1528446715456826,0,0,2,0,0,0,-1,0
1528446715456826,-1,-2,-1,-2,-2,-1,-2,-1
1528446715458704,0,-1,1,1,-1,-2,-2,-2
1528446715458704,-1,-1,-3,-1,0,-1,-2,-1
1528446715487194,-1,0,-2,-2,-1,0,-1,-1
1528446715487194,-2,-3,-2,-1,-2,-2,0,0
1528446715488926,-1,-1,-3,-1,-1,0,-2,0
1528446715488926,-2,-2,-1,0,-1,0,-1,-2
1528446715493493,-2,-2,-1,0,-1,-2,-1,-2
1528446715493493,0,-1,0,-1,-1,0,1,0
1528446715502775,0,0,-2,0,-3,-2,-2,-2
1528446715502775,0,-1,-1,0,0,-2,-1,-1
1528446715516719,-3,-2,-2,0,-2,0,-3,-1
1528446715516719,-1,0,-1,-1,-1,-1,-1,0
1528446715518716,-1,-1,-1,-1,-3,0,-1,-1
1528446715518716,-1,-1,-2,-2,-1,-2,0,-1
1528446715540000,-1,1,0,-1,1,-1,-1,-2
1528446715540000,-1,-3,-1,-3,0,-2,0,0
1528446715541692,-1,-1,-1,-1,0,-1,0,0
1528446715541692,-1,0,-1,0,-2,-1,-1,-1
1528446715552883,0,0,-2,0,-1,-1,-1,-2
1528446715552883,-1,0,-1,0,0,-1,-2,-3
1528446715562840,-1,-2,-2,-2,-2,0,-1,-3
1528446715562840,-2,-3,-1,-2,0,-1,-2,-1
1528446715577432,-1,1,-1,-1,-2,-2,0,-1
1528446715577432,0,0,-1,-1,-1,0,-2,0
1528446715578480,0,-2,0,-2,-1,-3,0,1
1528446715578480,0,-1,-1,0,0,0,-1,-1
1528446715599637,-3,-2,-3,-1,-3,0,0,-4
1528446715599637,0,-1,-2,0,-1,-1,-3,-3
1528446715601371,-1,-1,-1,0,-2,-2,-1,-1
1528446715601371,-1,-1,-1,-1,-2,0,-1,-1
1528446715613341,-2,-3,-2,-1,-1,0,-1,0
1528446715613341,-1,0,-1,0,-1,-2,1,-2
1528446715622314,-1,0,0,-1,-1,1,-2,-1
