timestamp,emg1,emg2,emg3,emg4,emg5,emg6,emg7,emg8
1529314288906538,1,0,0,0,1,-1,-1,0
1529314288906538,0,-1,1,0,0,0,-1,-2
1529314288932467,0,-1,0,-2,1,0,-1,-2
1529314288932467,0,0,-3,-2,-1,-1,-1,0
1529314288932467,-1,0,-2,1,0,-2,0,0
1529314288932467,-2,-1,-2,-2,0,-2,-1,-1
1529314288943438,0,-1,0,0,-2,-1,0,-1
1529314288943438,1,0,-1,-1,-1,-1,-1,-1
1529314288950421,-1,-1,0,0,-2,1,0,-1
1529314288950421,-1,-1,0,-1,0,-1,1,0
1529314288965380,0,-1,0,0,-1,0,-1,-1
1529314288965380,-1,-1,-1,0,-1,-1,-1,1
1529314288982334,-1,-1,0,0,0,0,-1,0
1529314288982334,-1,0,0,0,-2,1,0,-2
1529314288988318,1,-2,-1,-2,0,0,1,-2
1529314288988318,0,1,0,0,0,-2,-2,-1
1529314289003279,-1,-2,-1,-1,-1,-1,0,2
1529314289003279,0,2,0,0,-2,-1,-1,0
1529314289010260,-1,-1,0,-2,-1,-1,1,-2
1529314289010260,-1,1,-1,0,-3,-1,-2,0
1529314289027264,-2,-1,0,1,0,-2,-2,0
1529314289027264,0,0,-1,-2,0,1,-1,0
1529314289040180,1,-1,-1,0,-1,-1,0,0
1529314289040180,1,1,-1,-1,0,1,0,1
1529314289048187,-1,0,0,-1,0,1,0,-1
1529314289048187,-2,2,-2,-1,0,0,0,0
1529314289063121,0,-2,0,0,-1,-2,-2,-2
1529314289063121,-2,-2,1,-1,0,-1,-2,-2
1529314289070660,-1,-2,0,0,1,0,-2,-2
1529314289070660,1,0,-1,-1,-1,0,0,0
1529314289085622,-1,1,-1,0,1,-1,-1,-1
1529314289085622,0,0,0,-1,0,0,-1,1
1529314289092604,-1,-2,-1,-2,-1,-1,-1,-2
1529314289092604,-1,0,0,1,-1,0,0,0
1529314289100585,0,-2,-1,0,0,0,-1,-3
1529314289100585,-1,-1,-2,-2,-2,-2,0,0
1529314289115542,0,0,0,-1,-1,-1,-1,-1
1529314289115542,-1,-1,-1,-1,0,0,-2,-1
1529314289122523,0,-1,0,0,-1,0,-1,0
1529314289122523,-1,-1,0,1,-1,0,-2,-2
1529314289138516,0,-1,0,-2,0,-1,-1,-1
1529314289138516,0,-1,-2,0,0,-1,0,-1
1529314289145489,1,0,0,-1,-2,0,-1,0
1529314289145489,1,-2,0,0,0,-1,1,-2
1529314289160424,-1,0,0,0,-2,0,-1,1
1529314289160424,-1,0,-1,-1,1,-2,0,-2
1529314289168410,-1,0,-1,-1,-1,-1,0,1
1529314289168410,0,0,-1,-1,0,0,0,-1
1529314289183362,1,-2,-1,-1,-1,-2,0,0
1529314289183362,-1,0,0,0,-1,0,-2,0
1529314289198322,-2,-1,-1,-1,1,1,-2,-1
1529314289198322,0,-1,-2,-2,1,-1,-2,0
1529314289205304,-1,0,1,-1,1,0,1,-2
1529314289205304,1,-2,-1,-2,0,-1,-1,-1
1529314289220263,0,0,-1,0,1,-2,-2,1
1529314289220263,1,0,0,-1,-1,-2,-1,0
1529314289228242,0,0,0,0,0,0,-2,-1
1529314289228242,-1,0,-1,0,-2,-1,-1,0
1529314289243237,1,-2,-1,-1,0,-1,1,-1
1529314289243237,0,0,0,1,0,-1,0,-1
1529314289258163,-1,-1,-2,0,-2,-1,-2,-1
1529314289258163,-1,-1,-1,-1,-1,-1,1,-1
1529314289265144,-1,0,-1,0,-2,0,-1,-1
1529314289265144,0,-1,-2,-1,0,-2,-1,-2
1529314289280102,-1,0,0,-2,0,0,0,-1
1529314289280102,2,-1,0,-1,0,-1,-1,-1
1529314289288081,-1,0,-1,-1,1,0,0,0
1529314289288081,-1,1,-1,-1,1,0,-1,-1
1529314289303041,-2,0,0,-1,0,-1,-2,-1
1529314289303041,-1,0,0,-1,-2,0,-1,-1
1529314289318001,-1,2,0,0,0,-2,1,-2
1529314289318001,0,0,1,-1,1,-1,1,0
1529314289325979,-2,0,-1,-3,-1,0,-3,-2
1529314289325979,0,0,-2,-2,-1,0,-2,-1
1529314289340939,-1,-1,0,0,0,1,-3,-1
1529314289340939,-1,-1,-1,1,0,-2,0,-1
1529314289347923,-1,-1,-1,1,1,-2,-1,1
1529314289347923,-1,-2,-1,0,-1,-2,-1,0
1529314289362882,-1,-2,-2,-1,0,1,1,-2
1529314289362882,-1,-1,-1,-1,1,0,0,-1
1529314289377852,-2,-2,-1,0,-1,-2,-1,-3
1529314289377852,0,0,0,-1,-2,1,-2,0
1529314289385832,1,1,-3,-1,-1,-1,-1,1
1529314289385832,-1,1,-1,0,-1,-1,1,0
1529314289400780,0,1,-2,-1,-3,-1,-1,0
1529314289400780,1,-1,-1,1,2,1,0,0
1529314289407762,-1,-1,0,-1,-2,0,-2,0
1529314289407762,0,0,0,0,2,1,-1,1
1529314289422723,0,0,-1,1,-1,-1,0,2
1529314289422723,0,0,1,-1,-1,1,1,1
1529314289437681,-1,-1,-2,-1,0,0,-2,-1
1529314289437681,-1,-2,-1,0,0,0,1,-1
1529314289445661,0,0,0,0,-1,-1,-1,0
1529314289445661,0,-1,0,-1,0,-2,-1,-1
1529314289460620,-1,0,0,-2,1,2,0,2
1529314289460620,0,0,1,1,0,0,1,2
1529314289467601,-1,0,0,0,0,0,0,-2
1529314289467601,0,-3,-1,0,0,1,0,-1
1529314289482562,0,0,0,-1,0,-1,0,-2
1529314289482562,0,0,-2,0,-2,-1,0,1
1529314289498519,1,-1,-1,-1,0,-2,1,0
1529314289498519,0,0,-1,-1,-2,-1,0,-1
1529314289505501,-2,-2,-1,-1,0,-2,-1,-4
1529314289505501,0,0,-1,0,0,0,-1,-2
1529314289520887,1,-2,-1,0,0,-1,0,-2
1529314289520887,0,0,-1,-1,-1,1,0,0
1529314289527906,2,-2,0,-2,-3,1,0,1
1529314289527906,-2,-2,-1,-1,4,-1,-5,-5
1529314289542873,1,0,-1,-1,-2,-1,0,-1
1529314289542873,-2,1,-1,-2,-3,-1,1,1
1529314289558826,-2,0,0,2,0,-2,-2,-1
1529314289558826,0,-2,0,0,-1,-1,0,0
1529314289565816,-1,0,-1,0,2,-1,-2,-1
1529314289565816,-2,0,0,-2,0,0,0,0
1529314289580728,1,0,-1,-2,1,-1,0,-1
1529314289580728,0,0,0,0,-2,0,-1,0
1529314289587762,0,0,0,3,2,2,2,1
1529314289587762,1,-1,1,0,0,0,1,2
1529314289602667,-3,-3,-1,1,6,-2,1,18
1529314289602667,-5,-1,-1,-1,-1,0,-9,-21
1529314289617629,0,-1,0,1,1,-1,1,3
1529314289617629,-2,-1,0,-1,-2,-3,-2,-2
1529314289625646,1,0,0,-1,-3,2,0,-3
1529314289625646,0,0,-1,0,-3,-1,3,8
1529314289640639,-1,1,-1,0,-2,0,2,0
1529314289640639,-2,-2,0,-1,1,0,-1,-3
1529314289647622,1,0,0,0,1,-1,-1,-1
1529314289647622,0,-2,-1,-2,0,1,-2,3
1529314289662805,-1,0,-4,-1,2,1,-2,-2
1529314289662805,0,-1,0,-1,0,-3,1,6
1529314289670794,-2,-2,0,0,0,-1,-2,-5
1529314289670794,-1,1,1,-1,-1,0,1,-2
1529314289678720,0,2,1,1,-1,0,-2,1
1529314289678720,0,-2,-2,-1,0,-1,-2,1
1529314289685520,1,2,-3,-5,-6,1,1,-1
1529314289685520,-1,-2,-1,3,3,-4,-2,-1
1529314289700955,-3,-3,-2,-2,1,-2,-1,-2
1529314289700955,-1,0,0,-1,1,-2,-1,2
1529314289708268,-3,0,0,-2,-2,-1,-3,-9
1529314289708268,2,0,-3,-3,0,0,3,4
1529314289723680,3,2,2,-1,0,1,1,2
1529314289723680,0,-1,-3,1,0,-1,-1,-5
1529314289730363,-1,-1,-1,-1,-2,1,1,-1
1529314289730363,-1,0,0,-3,-1,-1,1,1
1529314289738707,2,0,1,2,4,4,0,-7
1529314289738707,5,1,-2,-1,-1,-1,7,34
1529314289746336,-7,-1,-1,2,3,-4,-14,-43
1529314289746336,0,-1,-1,0,1,-1,0,15
1529314289761310,-4,-4,0,-1,-2,-3,-6,-12
1529314289761310,1,1,0,-2,-3,3,1,-4
1529314289768714,1,0,0,1,-3,-2,2,8
1529314289768714,0,1,-2,-1,-1,-1,-2,-2
1529314289783855,1,1,-2,-3,-1,1,0,2
1529314289783855,-2,0,0,1,0,0,-1,-5
1529314289791099,0,-2,0,0,-1,0,0,8
1529314289791099,-2,-2,-1,1,-1,-1,-1,-6
1529314289797849,1,0,0,-3,0,-2,2,10
1529314289797849,-2,-1,0,-2,0,-3,-4,-11
1529314289805774,0,0,-2,-1,0,1,1,5
1529314289805774,1,0,0,0,-3,-2,0,0
1529314289820733,-2,0,-1,0,0,1,1,0
1529314289820733,-1,0,0,0,-1,0,-2,-3
1529314289827752,1,-2,0,0,0,-1,2,2
1529314289827752,0,-3,-1,-2,-1,1,0,-2
1529314289843761,0,-2,1,1,-1,-1,-1,2
1529314289843761,-2,0,-2,0,0,-1,-2,-8
1529314289850792,0,1,-1,0,1,-2,2,5
1529314289850792,0,0,0,0,0,-1,-1,-3
1529314289858672,-1,0,1,0,-2,-2,-1,0
1529314289858672,-1,0,-1,1,-1,2,-4,-1
1529314289865689,2,0,-1,-1,-1,0,-2,1
1529314289865689,-1,-3,0,0,-2,0,-2,-2
1529314289880430,-1,-1,-1,-2,0,1,-1,-2
1529314289880430,0,-1,1,-1,-2,-1,0,-2
1529314289888729,-2,0,0,-1,-3,0,-1,1
1529314289888729,0,2,0,-2,1,0,-1,-3
1529314289903775,0,0,0,0,-1,-2,0,3
1529314289903775,-1,-1,-3,-1,0,-1,-2,-4
1529314289911427,-1,1,0,0,-1,-2,-1,0
1529314289911427,-1,0,-2,1,-1,1,0,-1
1529314289918642,0,-1,-1,-2,-1,-1,-3,0
1529314289918642,-2,0,0,-1,0,-1,-1,-1
1529314289925933,1,-2,-1,-1,2,1,-3,0
1529314289925933,-1,-4,1,0,-1,-1,0,-2
1529314289941453,-1,0,-2,0,-2,0,1,1
1529314289941453,0,-1,-1,1,1,1,1,-2
1529314289948480,2,0,-1,-2,0,-1,1,-1
1529314289948480,0,0,-2,1,2,0,2,7
1529314289963212,-2,-3,-1,-2,-2,-4,-3,-4
1529314289963212,-4,0,0,-1,0,-2,-1,-3
1529314289970740,-1,0,0,0,-1,-1,0,1
1529314289970740,-1,1,1,-1,-2,-1,-2,-4
1529314289978447,2,0,0,1,-3,1,3,6
1529314289978447,-1,1,-2,0,-1,-1,-1,1
1529314289985428,-1,-1,-1,-2,1,-1,-1,-3
1529314289985428,1,-1,-1,0,-3,1,3,4
1529314290000657,1,0,-1,-1,1,0,0,1
1529314290000657,-1,-3,-1,-3,-1,-3,-2,-6
1529314290008635,-1,0,-1,0,-1,0,0,1
1529314290008635,-3,0,-3,-1,0,1,-1,0
1529314290023569,0,1,0,-2,1,0,-2,-2
1529314290023569,3,3,2,0,-1,0,-1,-1
1529314290030310,0,-1,0,-2,0,-2,1,1
1529314290030310,0,1,0,-1,-2,-2,0,-2
1529314290038338,-2,-1,0,1,1,0,-1,-2
1529314290038338,1,-2,-3,-1,0,-1,1,4
1529314290045270,-2,-1,-1,0,-1,-2,-2,-2
1529314290045270,-1,-1,0,-2,0,-2,-2,-3
1529314290060229,-1,-2,-2,0,-1,0,1,-1
1529314290060229,-1,-1,-1,0,-1,0,-1,-3
1529314290068252,1,0,-1,0,0,1,1,1
1529314290068252,-2,-1,-1,1,-1,-1,0,3
1529314290090197,-1,0,0,0,-2,-3,-2,2
1529314290090197,-2,0,-1,-1,-1,0,-4,-3
1529314290098153,0,2,-1,-3,0,-1,-1,-2
1529314290098153,1,0,0,0,2,0,-1,-2
1529314290105163,1,0,1,1,0,0,3,13
1529314290105163,-6,-4,-1,0,-2,-3,-6,-21
1529314290113087,1,-2,-1,-1,0,0,0,2
1529314290113087,0,0,-2,-1,-1,0,0,-2
1529314290128102,1,1,-1,0,-1,-2,0,-1
1529314290128102,3,0,0,-1,-2,-1,1,6
1529314290135086,-4,-3,1,0,0,-1,-2,-4
1529314290135086,0,-1,0,-2,0,-2,-2,-3
1529314290143060,-1,-1,-2,-1,-2,0,-1,-5
1529314290143060,0,1,-1,-1,-2,2,4,6
1529314290151012,0,-1,-3,1,3,-2,0,2
1529314290151012,0,0,1,-3,-1,0,0,1
1529314290158022,-2,-3,1,0,0,-1,-3,-3
1529314290158022,0,1,-1,0,1,-2,0,2
1529314290166000,-1,1,-1,-1,-3,0,0,0
1529314290166000,-2,-1,-1,0,-1,-1,-2,-3
1529314290180963,-2,-1,-1,-1,-2,0,1,-4
1529314290180963,-1,-2,-3,-1,0,0,1,2
1529314290187940,-1,1,1,1,-1,0,-2,-2
1529314290187940,-2,-2,0,0,-1,0,-1,-1
1529314290202897,0,-2,1,0,-1,0,-1,-2
1529314290202897,-1,0,-1,-2,-1,0,-1,3
1529314290210880,0,1,-3,0,-2,-2,-1,0
1529314290210880,-1,0,0,1,2,-1,-2,-2
1529314290217807,-1,-1,0,0,1,-1,0,-1
1529314290217807,0,-1,1,-1,-1,0,1,0
1529314290232793,-1,-1,-2,0,-2,0,0,-1
1529314290232793,0,0,-1,-1,-2,0,0,-1
1529314290247745,-3,0,0,1,2,-1,-1,-1
1529314290247745,-1,0,0,0,1,-2,1,0
1529314290255760,-2,1,-1,-2,-1,-1,-1,-2
1529314290255760,0,-2,-2,-1,-1,-1,-1,-1
1529314290270719,-1,0,-3,-1,-2,0,-1,-2
1529314290270719,-1,0,-1,-2,-1,-2,0,0
1529314290277702,1,0,-2,-1,1,-2,0,-1
1529314290277702,-1,-1,0,1,-1,1,0,1
1529314290285681,-1,-1,0,0,-1,0,0,-2
1529314290285681,0,0,1,0,0,1,-1,1
1529314290300641,-1,-3,-1,1,-1,0,-2,-1
1529314290300641,-1,-1,1,-1,0,-2,-2,0
1529314290307568,-1,-2,-1,0,-2,0,-1,1
1529314290307568,-1,0,-1,-1,-2,-1,-1,-3
1529314290322547,-2,0,-1,-1,-1,0,0,-1
1529314290322547,-1,-2,1,0,0,-1,0,1
1529314290330532,0,-1,0,-1,-1,0,0,0
1529314290330532,0,0,-2,-2,-1,0,0,-1
1529314290338521,0,-2,1,0,-1,-1,-3,-1
1529314290338521,1,0,-1,-2,-1,0,0,-1
1529314290345521,-1,0,-1,-1,0,-1,-2,1
1529314290345521,-1,0,1,0,-1,-1,-1,1
1529314290360427,0,0,-2,-2,1,0,0,-1
1529314290360427,0,-2,-1,0,0,-1,0,0
1529314290368658,-1,-1,-1,0,-1,-2,0,-1
1529314290368658,-1,-1,-1,-1,1,1,0,-1
1529314290382930,-2,0,-1,0,-2,0,0,0
1529314290382930,0,-1,0,-1,0,1,-3,-2
1529314290390901,0,1,-2,-1,-1,0,-1,-2
1529314290390901,-1,-1,0,-1,-2,-2,-3,1
1529314290398787,0,0,-1,-1,1,-1,-1,0
1529314290398787,0,0,-1,0,-1,-2,-1,0
1529314290405844,-1,-1,-1,-2,-1,0,0,-1
1529314290405844,0,0,-2,1,-1,1,1,-2
1529314290420574,2,-1,-1,-1,0,1,0,0
1529314290420574,0,-1,-1,0,-1,0,-1,-1
1529314290428986,0,-1,-1,-1,1,-1,-2,-1
1529314290428986,-1,-2,0,0,-1,1,-2,-2
1529314290443742,-2,-3,-1,-1,0,0,-1,-1
1529314290443742,-1,-1,0,0,0,0,0,-1
1529314290450484,0,-1,-1,0,0,1,0,0
1529314290450484,0,-1,-2,0,0,0,-3,0
1529314290458726,1,-1,0,-1,-2,-1,0,-1
1529314290458726,-2,0,1,-1,-3,-1,0,0
1529314290465704,-1,-1,0,-2,-1,-2,1,-1
1529314290465704,1,1,1,0,-1,-2,0,-1
1529314290480401,-2,0,-2,-1,-1,0,-1,0
1529314290480401,-1,-2,-1,-1,-1,1,0,0
1529314290488640,0,-1,-2,-1,-1,0,1,0
1529314290488640,-1,-1,-1,0,0,-1,0,0
1529314290503597,0,-1,0,-2,1,0,-1,1
1529314290503597,0,-2,-1,0,1,-3,-1,0
1529314290510576,0,0,0,-2,0,0,-1,-1
1529314290510576,0,-1,-1,-1,-1,-2,-1,0
1529314290518550,-2,1,1,0,0,0,0,1
1529314290518550,-1,-1,-1,-1,0,0,-1,1
1529314290526313,1,0,0,-1,-1,-1,0,-1
1529314290526313,-1,-1,-1,-1,0,-1,-1,-1
1529314290540480,-2,0,0,-1,-2,-1,-1,0
1529314290540480,0,1,-1,-1,1,-1,0,-1
1529314290548447,-1,-1,0,0,-1,-1,-1,-1
1529314290548447,0,0,-1,-1,-1,0,1,0
1529314290563470,-1,0,-2,0,1,-1,0,-1
1529314290563470,-2,-1,-2,-2,-1,-1,-1,-3
1529314290570780,-2,-1,0,-1,0,-1,-1,-1
1529314290570780,-1,0,-3,-1,-2,-1,-1,0
1529314290578740,0,-2,-1,-1,0,0,2,0
1529314290578740,1,-1,1,1,-1,-2,-1,-2
1529314290585403,-1,-1,-2,-1,0,0,-1,-1
1529314290585403,-1,-1,1,-2,-1,-1,-1,-2
1529314290601092,-1,-2,-1,-1,-1,1,-1,1
1529314290601092,0,0,-2,-2,-1,0,0,1
1529314290608836,0,-1,-1,0,-2,1,0,0
1529314290608836,1,0,-1,1,0,-1,-2,0
1529314290623319,0,0,-1,0,-1,-2,-2,-3
1529314290623319,-1,-1,0,0,-1,-2,0,0
1529314290630301,-1,-2,0,-1,-1,-1,-1,0
1529314290630301,-2,-1,-1,-1,0,0,0,0
1529314290638279,-1,1,2,-1,-2,0,-1,-1
1529314290638279,-1,-1,0,1,1,1,0,-2
1529314290645505,0,0,0,-2,-1,-1,0,0
1529314290645505,-1,-1,-1,1,0,0,0,-1
1529314290660707,1,-1,-1,-1,-1,-2,-1,0
1529314290660707,-1,-3,-1,-1,-1,-2,0,2
1529314290668675,-1,-1,0,0,0,-2,1,-1
1529314290668675,-1,-1,0,-1,-2,0,-1,-2
1529314290683376,-1,0,-1,-1,0,-1,0,-2
1529314290683376,-1,0,0,-2,-1,0,0,-1
1529314290690390,0,0,0,-1,0,-1,-1,-1
1529314290690390,0,2,-1,-1,0,0,-1,0
1529314290698336,1,2,-1,0,-2,1,-1,0
1529314290698336,0,-2,-1,-1,-1,0,-1,0
1529314290705317,-1,-1,0,0,-1,-1,-1,0
1529314290705317,-1,-2,-1,-2,-1,-1,0,-1
1529314290720881,-1,-1,-1,-1,-1,-1,-1,2
1529314290720881,0,0,0,1,-1,-1,-1,-1
1529314290728690,0,-2,-1,1,-1,-1,-1,-2
1529314290728690,-1,-1,-1,0,-1,0,0,-1
1529314290743694,0,0,-2,1,-2,-1,1,0
1529314290743694,-1,-2,-1,-1,-3,0,-1,0
1529314290750924,-1,1,0,-2,1,0,-1,-1
1529314290750924,-2,-1,0,0,0,0,1,-1
1529314290757906,0,-1,-2,-1,1,-3,-1,-2
1529314290757906,-1,0,-1,0,2,0,-2,-1
1529314290765877,0,0,-1,-2,1,0,0,-1
1529314290765877,1,-1,-1,-2,0,-1,1,0
1529314290781000,0,1,0,-1,0,-2,0,0
1529314290781000,0,1,0,0,-1,-1,0,1
1529314290788783,-1,-1,-1,-1,-1,0,0,1
1529314290788783,0,-2,-1,-1,0,-1,-1,0
1529314290803755,-2,-2,-1,-1,0,-1,-1,-3
1529314290803755,0,0,0,-2,1,-1,-1,0
1529314290810945,-1,-2,-1,-2,-3,0,0,1
1529314290810945,-2,-1,-2,-1,-1,1,-1,2
1529314290826106,-2,0,0,1,-2,-1,0,-2
1529314290826106,-1,-3,-1,0,-2,0,-2,-1
1529314290833812,-2,0,-1,0,0,-1,-1,0
1529314290833812,2,1,0,0,0,0,-1,-1
1529314290847684,0,-1,1,-2,-1,-2,-1,0
1529314290847684,-1,1,-1,-2,-1,1,0,0
1529314290855626,-1,0,0,0,-1,-2,-2,0
1529314290855626,-1,0,-2,0,-1,-1,-1,-1
1529314290870640,-1,-1,-3,1,-1,-2,0,-1
1529314290870640,-1,-1,-1,-1,0,-3,0,-2
1529314290878873,-1,-2,0,0,0,0,-1,0
1529314290878873,0,0,-1,-1,-1,0,1,0
1529314290885545,-2,1,-2,-1,-1,-1,0,0
1529314290885545,-1,-1,1,-1,-2,-2,-2,0
1529314290900765,1,-1,-2,1,-1,-1,0,1
1529314290900765,0,-1,0,-1,-2,-3,0,-2
1529314290908752,0,0,-2,-1,1,1,-1,-1
1529314290908752,0,-1,0,0,0,-1,1,0
1529314290923701,1,1,0,-1,-2,0,0,-1
1529314290923701,-1,1,-1,0,0,-1,0,0
1529314290930562,0,-2,-1,-1,-3,0,-1,0
1529314290930562,-1,0,-2,-1,0,0,-1,-3
1529314290938664,0,0,1,1,-1,-1,0,0
1529314290938664,0,-1,-1,0,-2,-1,1,-1
1529314290946287,-1,-2,0,-1,-1,-1,-1,0
1529314290946287,-1,-1,-1,-1,-1,0,-1,2
1529314290961310,-2,-2,-1,-1,-2,0,-3,-1
1529314290961310,0,0,-1,1,-1,-1,-1,0
1529314290968493,0,0,0,0,1,0,-1,0
1529314290968493,0,1,-1,-1,-1,-2,-1,1
1529314290983441,0,0,0,0,0,0,-1,-1
1529314290983441,-2,-1,-2,-1,-1,0,-1,-2
1529314290991206,-2,-2,-1,-1,0,-2,0,-1
1529314290991206,-1,1,-1,-2,-1,0,-1,0
1529314290998391,-1,-1,1,0,1,-1,-1,0
1529314290998391,0,-1,0,-1,1,0,0,-2
1529314291006202,-1,0,-1,-1,-2,0,0,0
1529314291006202,-1,-1,0,-1,0,-1,-1,-1
1529314291020872,-1,0,-1,-2,-1,-1,-2,0
1529314291020872,-2,0,0,-2,-1,-2,-2,1
1529314291035606,-1,-1,0,2,0,-1,2,-1
1529314291035606,-1,-3,-2,-2,-2,-2,0,-2
1529314291043591,0,-1,0,0,0,1,0,-2
1529314291043591,0,-2,-1,0,-1,-1,-1,-1
1529314291058801,-2,-2,-1,-1,0,-1,0,-1
1529314291058801,-1,0,-1,-2,0,1,-1,1
1529314291073828,1,-3,0,-1,-2,-1,0,0
1529314291073828,0,0,-1,0,-1,0,0,-1
1529314291080474,1,-1,-1,0,0,-2,0,-1
1529314291080474,0,1,0,-1,-2,-2,1,-1
1529314291096125,0,-1,0,-1,-1,-1,0,-1
1529314291096125,-1,0,-2,0,1,-1,-1,-1
1529314291102948,-1,-1,0,-1,-2,0,1,0
1529314291102948,-1,-2,-1,0,0,0,-1,0
1529314291118104,0,-1,1,-1,1,0,-1,-1
1529314291118104,-2,-2,-1,0,-1,0,-2,-1
1529314291133359,-1,0,-1,0,-2,0,-2,-1
1529314291133359,-3,-1,0,-1,-2,-1,-1,-1
1529314291141263,-1,-1,-2,-3,-3,0,-1,-1
1529314291141263,0,-1,-1,-1,0,-2,1,-3
1529314291155850,0,1,-1,0,-1,0,-2,-2
1529314291155850,0,-1,0,-1,-1,1,0,-1
1529314291163604,1,0,-1,0,1,-1,-1,-1
1529314291163604,0,0,0,-1,-2,0,-2,0
1529314291178799,-1,-3,-1,-2,-1,1,0,1
1529314291178799,1,-1,-2,-1,-1,-1,-1,-1
1529314291185512,-1,0,-1,-1,1,-2,0,-2
1529314291185512,-2,-1,-1,0,-1,-1,-1,-1
1529314291200782,-2,-1,0,0,0,0,0,1
1529314291200782,0,0,0,-1,0,0,0,-1
1529314291223233,-1,-1,2,0,1,0,-1,-1
1529314291223233,1,-1,-1,-1,1,-1,-1,-1
1529314291231222,-1,-1,-2,0,-1,0,-1,0
1529314291231222,-1,-1,1,-1,-1,-1,0,0
1529314291245914,0,-1,0,-1,-1,0,-1,0
1529314291245914,-1,0,0,0,-1,1,-1,-1
1529314291252941,-1,0,-1,1,0,-1,0,-1
