timestamp,emg1,emg2,emg3,emg4,emg5,emg6,emg7,emg8
1528182046415862,-3,-1,-1,-1,0,-2,-1,-1
1528182046415862,-1,-1,1,-1,-2,-2,0,0
1528182046421846,0,0,0,0,-1,0,0,1
1528182046421846,0,-1,-1,0,0,0,2,-1
1528182046422843,-1,-1,-1,0,0,1,-1,-1
1528182046422843,-2,0,-1,-2,-2,1,-2,-1
1528182046422843,-3,-1,-1,-1,-1,0,-1,-2
1528182046422843,-1,-2,0,-1,-1,-1,0,-2
1528182046426832,0,-1,0,-1,-1,-2,-2,2
1528182046426832,-2,-1,0,-1,0,-1,0,0
1528182046434811,0,1,0,-1,-1,-2,-1,0
1528182046434811,1,0,0,-1,-1,-1,-1,0
1528182046443786,0,0,-2,-1,1,-1,-1,-2
1528182046443786,0,0,-1,0,0,0,-1,-1
1528182046457750,-1,-2,-1,1,-2,-2,0,0
1528182046457750,-1,0,-1,-1,-1,0,-1,0
1528182046464732,-1,0,-2,-1,-2,0,0,-1
1528182046464732,0,-4,-1,0,-2,-2,-2,-2
1528182046488668,0,-1,-2,-3,1,2,-1,-2
1528182046488668,-1,1,-1,0,-1,0,0,-1
1528182046489665,1,-2,0,0,-1,-1,0,-1
1528182046489665,1,1,-2,-2,1,1,1,0
1528182046502630,-1,0,-1,-1,-1,-2,0,0
1528182046502630,-1,-1,-2,-1,-1,0,-1,0
1528182046509611,0,1,-1,-1,0,-1,0,-1
1528182046509611,-2,0,-1,1,-1,-2,-1,0
1528182046525568,1,0,-1,0,-1,-2,0,0
1528182046525568,-2,0,0,-2,-1,1,-1,0
1528182046527566,-1,0,0,0,0,-1,-2,0
1528182046527566,0,-2,1,0,0,1,0,0
1528182046548507,-1,-1,1,-1,-1,0,1,-1
1528182046548507,-1,-1,-2,0,0,-3,-2,0
1528182046550500,0,1,-1,0,0,-3,0,1
1528182046550500,0,1,1,-1,-2,-2,0,-1
1528182046562469,0,0,1,0,1,-1,-1,0
1528182046562469,-3,-1,-1,-2,-1,-1,-2,0
1528182046571445,-2,0,-2,-1,-1,0,1,-1
1528182046571445,0,1,-1,0,0,0,-1,-1
1528182046586438,0,-1,-1,-1,0,1,0,0
1528182046586438,1,-1,0,-1,-1,0,1,-2
1528182046587404,2,-1,0,-2,-2,-2,-1,-2
1528182046587404,-1,-2,0,-1,-2,-1,-1,0
1528182046608347,-2,-1,-1,1,0,0,0,-1
1528182046608347,-1,-1,0,1,0,0,0,0
1528182046610341,-2,-1,-3,0,0,-1,-1,1
1528182046610341,0,0,-2,-1,-1,0,-1,-2
1528182046622308,0,-1,0,-1,0,-2,-1,-2
1528182046622308,1,-1,-2,-2,-1,-1,-1,-3
1528182046631287,-1,-2,1,0,0,-1,-2,-1
1528182046631287,-1,-2,-3,-1,0,-1,-1,0
1528182046653227,0,0,0,-1,0,1,0,0
1528182046653227,-1,-1,0,0,0,0,-1,-1
1528182046655222,-1,0,-1,-1,0,2,0,-2
1528182046655222,-1,0,0,-1,0,0,-1,1
1528182046668188,0,-1,-2,0,-1,-1,-1,0
1528182046668188,1,0,-1,0,0,-2,-1,0
1528182046670182,0,-2,0,-2,-2,-1,-1,-1
1528182046670182,0,0,0,-1,-1,-1,-1,-2
1528182046682150,1,0,-1,0,0,0,-1,-2
1528182046682150,-1,-1,-1,-1,-1,1,-1,0
1528182046691134,0,-1,1,1,-1,0,0,-1
1528182046691134,-1,0,-1,-1,0,-2,0,-1
1528182046706086,-1,-1,-1,-1,0,-1,1,0
1528182046706086,0,-1,0,-1,0,0,1,0
1528182046708081,-2,1,-2,-1,-2,0,-1,1
1528182046708081,1,0,1,0,0,-2,-1,-2
1528182046729025,0,0,-1,-1,-2,-2,-2,0
1528182046729025,-2,-1,0,0,1,-2,-2,-2
1528182046730020,-1,0,0,-1,0,0,2,-1
1528182046730020,0,-2,-1,0,-1,-1,-1,0
1528182046741990,0,1,0,-2,0,1,0,-1
1528182046741990,0,1,0,-1,-1,-1,-2,-1
1528182046750965,0,-1,1,-2,0,-1,-3,-1
1528182046750965,-1,0,-1,-1,0,1,0,0
1528182046765937,0,-1,0,-1,-1,0,-1,1
1528182046765937,-2,-1,0,0,-4,0,0,0
1528182046767921,0,0,-1,-1,-1,-2,1,0
1528182046767921,0,0,0,-1,0,-1,1,-1
1528182046788865,-1,-1,-1,0,0,-2,-1,1
1528182046788865,1,-1,-1,-1,0,1,-2,0
1528182046789861,1,0,0,-1,0,-2,0,-1
1528182046789861,-3,-3,-1,1,0,0,-1,0
1528182046801829,-1,-2,-1,-2,-1,-1,-1,-3
1528182046801829,0,-1,0,0,0,-2,-1,-1
1528182046810805,-1,-2,-2,0,0,-1,0,0
1528182046810805,1,0,-1,-1,-2,-1,-2,0
1528182046825767,-1,0,1,1,-2,-2,-1,-1
1528182046825767,-2,0,-2,-1,-2,0,2,-1
1528182046827760,0,-3,-2,0,-2,0,0,-1
1528182046827760,0,0,-1,-1,-1,-1,0,-1
1528182046848705,-1,-2,-1,0,1,-1,0,-1
1528182046848705,0,0,0,1,2,-1,-1,0
1528182046849702,0,0,0,-1,1,-2,-3,-1
1528182046849702,-1,-1,-2,-1,-1,-1,-1,-1
1528182046862683,-1,0,0,0,0,0,-1,-2
1528182046862683,0,1,1,-1,-2,1,-1,-1
1528182046871647,-2,-2,0,0,-2,0,1,0
1528182046871647,0,-2,-2,-2,-1,-3,0,1
1528182046886602,0,0,0,0,-2,-1,-1,0
1528182046886602,-1,-1,1,-2,-1,-2,-2,1
1528182046887600,-2,0,0,0,-1,-2,-3,-1
1528182046887600,-1,-1,0,-1,-1,-2,-1,-1
1528182046908543,-2,2,0,1,0,-1,0,0
1528182046908543,0,-2,-1,-1,0,0,-1,-2
1528182046910539,-1,-1,-2,-2,-1,-2,0,0
1528182046910539,-3,0,-1,-1,-2,1,0,0
1528182046922507,0,-1,-1,-3,-1,-2,0,0
1528182046922507,1,0,-2,0,0,-1,0,0
1528182046931483,0,-1,-1,-1,-1,-1,-2,-1
1528182046931483,-1,1,0,2,0,-2,0,-1
1528182046946445,-1,0,-2,-1,0,0,0,-1
1528182046946445,0,1,0,-1,-1,-2,-1,0
1528182046947453,0,1,1,0,1,1,-1,-1
1528182046947453,1,-1,1,1,0,-1,-1,-1
1528182046968391,2,-1,0,0,0,-2,0,0
1528182046968391,0,-2,-2,-1,-2,-2,1,0
1528182046970378,-2,-1,1,-2,0,1,-1,-3
1528182046970378,0,-1,0,-1,-1,0,-1,0
1528182046982347,-1,-2,0,-1,0,0,-3,-1
1528182046982347,-1,1,0,-1,1,-1,1,-1
1528182046997307,0,-1,-1,-1,0,-1,0,0
1528182046997307,2,0,-3,-2,-2,0,1,-1
1528182047006303,0,-1,-1,-1,0,1,0,0
1528182047006303,-1,-1,0,-1,-1,-1,-2,1
1528182047007312,1,0,0,0,0,0,0,0
1528182047007312,-1,-1,-1,-1,-1,-1,-2,-2
1528182047028255,0,-1,-2,-1,1,1,0,0
1528182047028255,0,-2,-2,1,-1,-1,0,-3
1528182047030219,-2,1,-1,0,0,0,2,0
1528182047030219,-1,0,-1,-1,1,0,0,0
1528182047042316,1,0,0,0,-2,0,-1,-1
1528182047042316,0,-1,0,-2,-1,-1,0,-1
1528182047051162,-2,-2,-2,1,0,-2,-2,0
1528182047051162,-1,-1,-1,-1,-1,-1,0,0
1528182047067120,-2,-3,0,-1,-1,0,-1,-1
1528182047067120,1,-2,-1,0,0,2,-1,1
1528182047072158,-1,-1,0,-1,-2,0,0,-1
1528182047072158,1,0,0,0,1,-3,0,0
1528182047088102,-1,0,-1,1,-1,0,-2,0
1528182047088102,-1,0,0,-1,0,0,1,0
1528182047090059,-2,0,-1,0,0,0,0,1
1528182047090059,-1,-2,0,0,0,-1,1,0
1528182047102027,-1,0,-1,0,-2,-1,1,0
1528182047102027,-2,-1,0,2,-2,-1,0,0
1528182047111001,-1,-1,0,0,0,-1,0,-1
1528182047111001,-2,-1,-1,0,1,-1,0,1
1528182047126109,0,0,-1,1,0,0,1,-1
1528182047126109,0,-1,-3,0,0,-1,0,-2
1528182047127484,1,-3,1,-1,-2,0,-1,0
1528182047127484,-1,0,-1,0,-2,0,-3,0
1528182047148465,0,-2,1,0,-1,-1,-1,0
1528182047148465,-2,1,-1,-1,0,0,-1,0
1528182047150427,0,1,-2,-2,-1,0,-1,0
1528182047150427,-2,-2,-1,1,0,0,-1,0
1528182047162397,-2,-1,-1,0,0,-2,-1,-2
1528182047162397,0,-4,0,0,0,-2,1,-1
1528182047171370,-2,-1,-1,-1,-1,-1,0,-1
1528182047171370,-1,-1,-1,0,1,1,-2,-1
1528182047185548,-1,0,0,-1,-1,1,0,0
1528182047185548,0,1,-1,0,0,-2,0,-1
1528182047192807,-1,-3,0,-1,-1,-1,0,-1
1528182047192807,0,0,0,0,-2,-1,0,0
1528182047208773,0,1,-1,-1,1,-1,-1,0
1528182047208773,-1,-2,1,-2,0,0,-2,0
1528182047210763,-1,-1,-1,0,-2,-1,-1,0
1528182047210763,0,0,-1,-1,-1,0,-3,0
1528182047222755,-1,0,-2,-1,2,0,-1,-1
1528182047222755,0,-2,-1,-1,-1,0,0,0
1528182047231014,0,1,-1,-1,0,-1,0,-1
1528182047231014,-1,-3,-1,-3,-2,-1,0,0
1528182047245983,0,-1,-2,0,-1,-2,-1,1
1528182047245983,-1,0,-1,-2,-1,0,-1,0
1528182047252223,-1,1,-1,-1,0,-1,-3,-1
1528182047252223,-2,-1,0,0,-1,-1,0,-2
1528182047270011,-1,0,1,-1,0,-1,-1,-1
1528182047270011,-1,-1,-2,1,1,-1,1,-3
1528182047272009,0,-1,1,-1,1,0,-2,0
1528182047272009,-1,0,-2,0,1,0,1,1
1528182047281980,-1,0,-2,1,-1,-1,-3,0
1528182047281980,-2,1,-2,-1,-1,1,0,0
1528182047290991,1,0,-1,-1,-1,2,-1,-2
1528182047290991,-1,-1,1,0,-1,-1,0,-1
1528182047305063,0,-1,2,-2,-2,0,-1,0
1528182047305063,-1,0,0,-2,0,-1,0,-1
1528182047312040,-1,-1,-2,0,-1,-3,-1,-1
1528182047312040,1,0,-1,0,0,-1,-1,-1
1528182047328014,1,-3,-1,-1,-2,-3,1,0
1528182047328014,-1,2,-1,-2,-2,-2,-1,1
1528182047328853,0,-2,1,0,0,0,-2,-1
1528182047328853,-1,0,0,-1,0,0,-1,-1
1528182047350799,-3,0,0,-2,-2,0,-2,-1
1528182047350799,0,-2,0,0,-1,-2,-2,0
1528182047350799,-1,0,-1,0,-1,0,1,-1
1528182047350799,0,0,0,-1,-1,0,-1,1
1528182047364897,0,-3,2,-1,1,1,0,0
1528182047364897,0,-1,2,-1,0,1,1,-1
1528182047372771,1,0,-1,0,-1,-1,-2,1
1528182047372771,0,-1,-2,-1,-2,-2,-2,-1
1528182047395674,0,0,-2,-1,0,0,0,0
1528182047395674,1,-1,-2,0,-1,0,-4,-2
1528182047395674,-1,-1,-1,0,1,-2,-1,0
1528182047395674,-1,0,0,0,0,-2,-1,-1
1528182047410671,0,-1,-2,-3,-1,-2,1,-1
1528182047410671,-2,-1,-1,-1,-2,1,1,0
1528182047411659,-1,-1,-1,-1,0,-1,1,0
1528182047411659,1,0,-1,0,0,0,-1,-1
1528182047432592,-2,-2,0,0,-2,1,0,-2
1528182047432592,-1,0,0,-1,-1,0,0,0
1528182047433584,-1,0,1,-1,-1,1,-1,-2
1528182047433584,0,-1,-1,-1,0,1,1,1
1528182047455551,-1,-2,-1,-1,-1,-1,0,-2
1528182047455551,-2,0,-2,-1,-1,-1,0,-2
1528182047462507,0,-2,-1,-1,-1,-1,0,1
1528182047462507,-2,1,0,-2,-1,-2,-2,0
1528182047470475,-1,1,1,-1,0,0,-2,1
1528182047470475,-1,-2,-1,2,-2,0,0,0
1528182047471472,0,-1,-1,-1,-2,1,-1,-1
1528182047471472,-1,1,-1,-1,-1,-1,0,1
1528182047492417,-1,2,0,0,0,0,1,-1
1528182047492417,-1,0,1,0,-2,-2,-1,-1
1528182047493413,-1,1,0,-1,-1,-1,-2,-1
1528182047493413,0,-2,-1,0,-1,1,-2,-1
1528182047515384,-1,-1,-1,1,-1,1,-1,1
1528182047515384,1,0,-3,0,0,-1,-1,-2
1528182047516373,0,-1,-2,-1,0,-1,-1,-2
1528182047516373,-2,-2,-1,-1,-2,0,-1,-1
1528182047530315,-1,-3,-1,-1,-2,-1,0,-1
1528182047530315,0,-2,-2,0,1,0,0,0
1528182047531313,-1,-1,-2,-1,0,-2,1,1
1528182047531313,-1,0,-1,-1,1,-1,1,-2
1528182047553289,-1,-1,-1,-2,1,-1,-2,-1
1528182047553289,0,-2,0,-1,0,-3,-1,1
1528182047554251,0,0,0,-1,0,-2,-1,0
1528182047554251,-2,-1,-1,-1,-2,-2,0,-2
1528182047575235,0,0,-1,0,-1,-2,0,0
1528182047575235,-2,0,-1,0,-2,1,0,2
1528182047576224,-1,1,-1,-1,0,0,1,0
1528182047576224,-2,-2,-1,0,-1,0,0,-1
1528182047590210,0,-1,-2,-3,0,-1,-1,-2
1528182047590210,-1,-3,0,-1,-1,1,0,0
1528182047591203,-1,-2,-2,-2,-1,0,-1,-2
1528182047591203,1,-2,-2,1,-1,-1,-1,0
1528182047613103,0,-1,-1,0,0,-1,-1,0
1528182047613103,0,-1,0,-2,0,0,0,-1
1528182047614145,-1,1,0,-1,-1,1,0,0
1528182047614145,0,-1,0,-1,0,0,-1,0
1528182047627057,1,0,-1,0,-2,0,-1,0
1528182047627057,0,1,-1,-1,-2,0,-2,0
1528182047635088,0,-1,-2,-2,0,-1,-1,0
1528182047635088,-1,0,-1,-2,0,-1,1,-2
1528182047650043,-1,0,-2,-1,-1,0,-1,-2
1528182047650043,0,2,0,0,-1,0,-1,1
1528182047651004,0,0,-2,0,0,-2,0,-2
1528182047651004,0,0,0,0,-1,0,-2,0
1528182047672936,-1,-1,0,0,-1,0,-3,0
1528182047672936,-1,-2,0,0,-1,-3,1,-2
1528182047673979,-3,-1,-1,1,-1,0,-2,-3
1528182047673979,0,0,-1,0,0,-1,0,-1
1528182047686897,-1,0,-1,0,-1,-1,1,-2
1528182047686897,2,0,-1,-1,0,0,0,0
1528182047694914,-1,-1,0,0,0,0,1,1
1528182047694914,0,-2,-1,-1,-1,0,-1,-2
1528182047710957,-2,-1,-1,0,1,0,0,0
1528182047710957,-3,-1,-1,0,0,1,-1,-3
1528182047710957,0,0,1,-1,-1,0,-2,-2
1528182047710957,0,1,-1,-1,-2,1,-2,-1
1528182047732774,1,1,-1,-1,-1,-2,-2,0
1528182047732774,0,-2,-1,1,-1,-1,-1,-1
1528182047733771,-1,-1,-1,-1,-1,-2,0,0
1528182047733771,-1,-2,0,-1,1,-1,1,1
1528182047755854,-1,-1,0,-1,-1,0,0,-2
1528182047755854,-2,0,0,-2,0,-1,-1,-1
1528182047756710,0,0,-1,-1,-1,0,-2,0
1528182047756710,2,-1,0,0,0,-1,-1,1
1528182047770816,-1,0,0,1,0,1,2,-1
1528182047770816,2,0,-2,-1,0,-2,0,-1
1528182047771748,-1,-2,-1,-1,-2,-2,0,0
1528182047771748,-2,-1,-1,-2,-1,1,-1,0
1528182047793088,-1,-1,0,-2,-1,1,1,-1
1528182047793088,-1,-1,-1,-2,-1,-1,-1,-1
1528182047793948,-2,0,0,-1,-1,-1,-1,0
1528182047793948,-1,0,0,-2,-1,-1,-2,0
1528182047816028,-1,-4,0,0,0,1,-1,-2
1528182047816028,-1,0,-2,-2,1,0,-1,0
1528182047816886,2,0,-2,0,0,-1,0,0
1528182047816886,-1,-1,0,-1,-1,-1,0,0
1528182047830971,-1,-1,-1,-2,-2,-2,-1,0
1528182047830971,1,0,0,-1,1,-2,1,0
1528182047830971,0,0,0,-2,0,-1,0,0
1528182047830971,0,-1,-1,0,1,-2,-1,-1
1528182047852948,-1,1,-1,-2,-1,-1,-1,1
1528182047852948,-2,-1,-1,-1,-2,-2,-1,-2
1528182047853788,-2,-1,-2,1,-2,1,-1,-1
1528182047853788,-1,-1,-2,-1,-1,0,0,0
1528182047875744,0,-1,0,-1,1,-2,1,0
1528182047875744,-1,1,0,1,0,0,-1,0
1528182047876737,-1,1,0,-1,0,2,-2,1
1528182047876737,-1,0,0,-1,-1,0,-1,-1
1528182047890689,1,-2,-1,0,0,-1,-3,-2
1528182047890689,0,0,0,-1,-1,-1,0,0
1528182047890689,0,0,0,2,0,0,0,-2
1528182047890689,0,-1,0,-1,-2,-2,-1,0
1528182047912634,0,-1,-1,-1,-1,-1,-1,-1
1528182047912634,-1,-2,-1,0,0,-1,1,0
1528182047913636,0,-2,-2,-2,-1,0,-2,0
1528182047913636,0,0,-1,0,0,1,0,0
1528182047935756,0,2,0,0,-2,1,-1,0
1528182047935756,-1,-1,-2,0,-1,-1,0,0
1528182047936753,0,0,0,-2,0,-1,0,-1
1528182047936753,-1,-1,-3,0,0,0,-1,-3
1528182047950878,-2,1,-1,-2,-2,-2,-2,0
1528182047950878,0,-1,0,1,0,-2,-3,-1
1528182047951774,0,-2,0,-2,-1,-3,1,0
1528182047951774,0,0,0,0,-2,-1,-1,1
1528182047972659,-1,0,-1,0,-2,0,-2,0
1528182047972659,0,-2,-2,0,-2,0,-1,-2
1528182047973654,-3,-4,-2,0,0,-1,0,-1
1528182047973654,0,1,0,0,-2,-1,-2,0
1528182047995598,0,-2,-2,-1,0,-3,0,1
1528182047995598,-1,1,1,0,-1,0,0,1
1528182047996594,0,1,1,0,2,-1,-2,-1
1528182047996594,-1,1,-1,0,0,-1,0,-1
1528182048010556,1,0,-2,-1,0,1,-1,-1
1528182048010556,1,0,1,-2,-1,-1,-1,0
1528182048011553,-2,0,0,0,-1,-1,0,-2
1528182048011553,-1,0,-1,-1,1,-2,0,0
1528182048033495,0,-2,0,0,-1,0,2,-1
1528182048033495,0,-1,-2,-1,-1,1,-1,0
1528182048033495,-3,-2,1,-1,-3,-1,2,-2
1528182048033495,-2,-2,-2,-1,-1,2,-1,-2
1528182048056711,-2,-2,-1,0,1,0,0,-2
1528182048056711,-1,0,0,-1,-1,0,0,0
1528182048056711,0,0,-2,0,1,-1,-3,0
1528182048056711,-1,-2,0,-1,0,-1,1,1
1528182048070786,-1,-1,0,0,1,-2,-1,-1
1528182048070786,-1,-1,-1,-2,0,-3,-3,-1
1528182048070786,1,0,-2,-1,-1,1,0,-1
1528182048070786,-1,0,1,-2,-1,0,-1,-2
1528182048092572,-1,-1,-1,-1,0,1,0,-1
1528182048092572,1,1,-1,-1,0,-2,1,-2
1528182048093584,-1,-2,-1,-2,-2,-2,0,-1
1528182048093584,0,-1,-1,-1,0,0,0,-1
1528182048116657,0,-1,1,0,0,0,1,1
1528182048116657,0,-2,-1,0,0,1,-2,0
1528182048116657,0,0,-1,-1,1,-1,0,1
1528182048116657,-2,0,-1,-1,-1,0,-2,-2
1528182048130675,-1,0,-2,0,-1,-2,-1,1
1528182048130675,-1,-1,-1,0,-1,1,0,1
1528182048131784,-1,-1,0,0,0,-1,-3,-1
1528182048131784,-2,0,-1,-1,0,0,0,-1
1528182048152966,0,-3,0,0,-1,1,-2,-2
1528182048152966,-2,-1,-1,0,0,0,-1,-2
1528182048153806,0,0,-1,-1,0,0,-2,0
1528182048153806,0,0,-2,0,0,-3,-1,1
1528182048175885,0,0,0,-2,-2,-1,1,0
1528182048175885,-1,0,-1,-1,0,0,0,-1
1528182048176745,-1,1,0,-1,0,0,0,-1
1528182048176745,0,-1,0,0,-1,-2,-2,0
1528182048190703,0,0,-1,-2,-1,-2,-2,-2
1528182048190703,0,-1,-1,-2,-1,-2,0,-1
1528182048191698,-2,0,-1,-1,-1,1,0,0
1528182048191698,-1,0,0,-1,0,-2,2,0
1528182048212702,-1,-1,0,-1,-1,-2,1,-1
1528182048212702,0,0,-2,0,-1,1,1,0
1528182048213640,-1,-1,-2,0,0,-1,-2,1
1528182048213640,1,-1,0,-1,0,1,-1,-1
1528182048236584,1,1,-1,-1,0,-1,-2,-1
1528182048236584,-2,-1,-1,-1,-1,-3,-2,-1
1528182048236584,-1,0,0,0,-1,-1,0,-1
1528182048236584,-2,0,-2,-1,0,-1,-2,0
1528182048250541,-1,0,-2,0,0,0,0,-1
1528182048250541,-2,-1,-1,-1,0,1,0,0
1528182048251538,1,-2,-1,0,-1,-1,-1,1
1528182048251538,-2,-2,0,-2,-1,-2,0,0
1528182048273480,-1,-2,0,-1,-3,1,1,1
1528182048273480,0,0,-2,-2,-2,0,-2,-3
1528182048273480,-1,1,0,-1,-1,-1,-2,-1
1528182048273480,0,-1,-2,0,-2,-2,-1,-1
1528182048296419,-1,0,1,-1,1,-2,-1,0
1528182048296419,-1,-1,2,-1,1,0,0,0
1528182048297418,1,1,-1,-1,-1,1,-3,-1
1528182048297418,-1,-1,-1,1,-2,-1,0,-2
1528182048318392,-2,0,-2,-1,-3,-1,0,-1
1528182048318392,0,-3,-2,1,-1,0,0,0
1528182048319356,0,-3,-1,0,0,-2,-1,0
1528182048319356,-2,-1,0,0,0,0,1,-1
1528182048333448,1,-2,-1,0,-1,0,1,-2
1528182048333448,-2,1,0,0,0,-1,0,0
1528182048333448,-1,-1,0,0,-2,-1,-1,-2
1528182048333448,1,0,-1,-1,-1,0,-2,1
1528182048356259,0,0,-1,-1,1,-1,0,0
1528182048356259,-1,0,-1,-2,-2,-1,0,-2
1528182048357256,-1,0,-1,-1,0,0,-1,0
1528182048357256,-1,-2,0,-2,0,0,-1,-3
1528182048370221,-1,-1,-1,-1,-2,0,-1,0
1528182048370221,1,-1,-1,0,0,-2,0,0
1528182048371218,0,-1,-1,-2,0,-1,-1,-2
1528182048371218,-1,1,-1,-1,-2,0,-2,-1
1528182048393300,0,-1,-2,-2,-1,1,-2,-2
