timestamp,emg1,emg2,emg3,emg4,emg5,emg6,emg7,emg8
1528445413603990,-1,-2,1,-2,-1,-2,-1,-1
1528445413603990,-2,-2,-1,-2,-2,-1,-2,0
1528445413606983,-1,-1,-1,-1,-2,-1,-3,-3
1528445413606983,-1,-1,0,0,-2,-1,-1,-1
1528445413621944,0,-1,-1,-1,-1,-1,-1,0
1528445413621944,0,-1,0,-2,-1,-1,0,0
1528445413622940,0,-2,-2,-1,0,-1,1,0
1528445413622940,-1,-1,-2,-1,-2,-1,1,-1
1528445413643885,-2,0,-2,-1,-2,-1,-1,-2
1528445413643885,-1,-3,0,-1,-2,-2,0,0
1528445413644882,-2,-1,-2,0,-1,0,1,-2
1528445413644882,-2,-2,-2,0,0,-1,-1,-2
1528445413659841,1,0,-3,-1,-1,-1,0,0
1528445413659841,1,-1,-2,-1,-1,0,0,0
1528445413659841,-3,-1,0,0,-1,-2,-1,-2
1528445413659841,-1,-2,-1,0,-2,-2,-3,-1
1528445413689760,-3,-1,1,-1,-1,-1,-2,-2
1528445413689760,-3,-2,-2,-1,-1,0,-1,-2
1528445413690758,0,-1,-2,1,-1,1,-2,0
1528445413690758,-1,-1,-2,-1,-1,0,0,0
1528445413704761,-1,-2,-2,-2,-1,-2,-1,-1
1528445413704761,-3,-1,-1,-1,-1,-2,-2,-1
1528445413704761,-1,-2,0,-2,1,-2,-1,-1
1528445413704761,0,-2,-2,-1,-1,-1,-1,-2
1528445413719681,-1,0,0,0,-1,-1,0,0
1528445413719681,0,-1,-2,0,-2,1,-1,-1
1528445413719681,-1,-1,-1,-1,-2,-1,-1,-1
1528445413719681,-1,1,-1,-2,-1,-1,0,0
1528445413741692,0,-1,-2,-1,-1,0,0,-2
1528445413741692,0,-2,-2,-2,0,-1,-1,0
1528445413742619,0,-1,-3,-1,-1,-1,-2,1
1528445413742619,-2,-1,-1,-2,-4,0,0,-2
1528445413764561,-2,-1,-1,0,-3,-1,-1,0
1528445413764561,0,-2,-1,1,-1,-1,-2,0
1528445413765558,-1,-1,-1,-1,0,0,-1,-1
1528445413765558,-1,1,-1,-1,0,-3,0,-1
1528445413787534,-2,-1,-2,0,0,-1,-3,0
1528445413787534,0,-1,-1,0,0,-1,0,-1
1528445413788532,-2,-1,-1,-2,-3,-1,-1,-3
1528445413788532,-2,-2,-1,-3,-1,0,-1,-1
1528445413801462,0,-2,1,0,-2,0,-2,1
1528445413801462,-1,-1,0,-3,-2,-2,-2,0
1528445413802459,-2,-2,-1,1,-1,-2,0,-2
1528445413802459,1,-2,-1,-1,-1,-3,-2,0
1528445413832381,0,-2,-1,-1,0,0,0,-1
1528445413832381,-1,-1,-2,-1,-1,-1,0,-1
1528445413833378,-2,-1,0,-3,-1,-2,-2,1
1528445413833378,0,-1,-1,1,1,1,-1,-2
1528445413838396,-1,-1,0,-1,-2,-2,0,-1
1528445413838396,0,-1,0,-3,-1,-1,-2,-1
1528445413847387,-2,-1,-2,-1,-2,0,-1,-1
1528445413847387,-2,0,-1,0,0,-2,-2,-1
1528445413877259,0,-1,-1,-2,-1,-2,-2,-1
1528445413877259,-1,0,0,0,0,1,-1,-2
1528445413878259,0,-2,-1,-1,-2,-1,-1,-1
1528445413878259,-1,-2,0,-3,-3,0,0,0
1528445413884256,-2,-1,-1,-1,0,-2,0,-3
1528445413884256,-2,-2,-2,-1,0,-1,-1,-2
1528445413885265,-1,-2,-1,-2,0,-1,-1,-1
1528445413885265,0,0,-1,0,-1,-1,-1,0
1528445413899201,-1,-2,-3,-1,-2,-1,1,-2
1528445413899201,-1,1,0,0,-3,-2,-2,-2
1528445413907180,-2,-1,-1,-1,-2,0,0,-2
1528445413907180,-1,-1,-1,-1,-2,0,-2,-1
1528445413922139,-1,-2,-1,-2,-1,-1,-1,-2
1528445413922139,0,-1,0,-1,-1,0,-1,0
1528445413922139,-1,0,-2,-1,0,0,-1,-2
1528445413922139,1,-1,1,-2,-1,-3,-1,-1
1528445413953085,-1,-2,-2,0,-2,-1,-1,-2
1528445413953085,-1,-1,-1,-2,0,-1,-1,-1
1528445413953085,0,-1,-1,0,0,-1,-3,-1
1528445413953085,0,-1,-2,0,-1,-2,0,-3
1528445413959042,-1,0,-2,-1,-1,0,-1,-1
1528445413959042,-1,-2,-2,1,-3,-3,0,-1
1528445413967021,-1,-1,-1,-2,-1,-2,-1,-1
1528445413967021,-3,-1,-1,-2,-1,-1,-1,-1
1528445413982012,-2,-2,-1,-1,-1,-2,0,1
1528445413982012,1,-1,-1,0,0,-2,-1,-1
1528445413982985,1,0,-1,-1,0,-1,-1,-2
1528445413982985,0,0,-2,-1,-1,0,0,0
1528445414012936,0,-1,-2,-1,0,-1,-1,0
1528445414012936,-2,-1,-1,-1,1,-1,-1,-1
1528445414012936,-1,-3,0,-1,-3,-1,0,-1
1528445414012936,-2,-1,-1,-1,-2,1,0,0
1528445414018926,1,-2,0,0,-1,-2,-1,-1
1528445414018926,-1,-1,-2,0,-1,0,0,-1
1528445414026886,0,0,-2,-1,0,-1,0,-3
1528445414026886,0,0,1,-1,-1,1,0,0
1528445414041820,-1,0,-1,-1,-1,-2,-1,-1
1528445414041820,-2,-1,0,-1,-2,-1,-1,-1
1528445414042819,0,1,-1,-1,-1,-2,-1,-1
1528445414042819,-2,-2,-3,-1,-2,-1,-1,-1
1528445414064759,-2,-1,-1,-1,0,-1,-2,0
1528445414064759,-1,0,-1,-2,1,-1,-2,-1
1528445414064759,-3,0,0,-1,-1,-1,-1,-2
1528445414064759,0,-1,-2,0,0,-1,-2,0
1528445414087746,-1,-2,-1,-1,0,0,-1,-1
1528445414087746,-3,-1,-1,-2,-2,0,0,-1
1528445414088730,-1,-1,-2,0,-1,-2,-1,0
1528445414088730,-1,-2,-1,-2,-1,0,0,-1
1528445414101661,-3,-1,-2,-2,0,-2,-2,0
1528445414101661,0,-2,-1,-1,0,0,-1,-1
1528445414102658,-1,0,0,0,-2,-1,-2,-1
1528445414102658,-1,-1,2,-1,1,-1,-1,-3
1528445414124640,0,-1,-1,-2,-1,0,-1,-2
1528445414124640,0,0,-1,1,0,0,-1,-1
1528445414125626,0,-2,-1,-1,-3,-1,0,0
1528445414125626,-2,-2,-2,-1,-1,-1,-1,-2
1528445414138561,0,-1,0,0,-1,-1,-1,-3
1528445414138561,0,-1,-1,-1,-2,-1,0,0
1528445414147537,-1,0,-1,-2,-1,0,-1,-1
1528445414147537,0,-1,0,-1,-1,-2,0,-1
1528445414161503,-2,1,-1,-2,-2,-1,0,0
1528445414161503,-2,1,-1,0,0,0,0,-4
1528445414169482,-1,-1,0,0,0,-1,0,0
1528445414169482,-1,-2,-2,0,-2,0,-2,-1
1528445414184584,-2,0,-1,-1,0,0,-3,0
1528445414184584,0,-3,-2,-2,-2,-2,-2,0
1528445414185436,-1,2,-1,-2,0,0,-3,-1
1528445414185436,0,0,-2,-2,0,-3,-1,-1
1528445414198596,-1,-2,0,-1,-2,-2,0,-2
1528445414198596,-1,-1,0,0,-2,0,-1,-3
1528445414206663,-1,-3,-1,-2,0,-1,-1,0
1528445414206663,-1,0,-1,0,-3,-1,0,-1
1528445414221566,0,-2,-2,-2,0,-2,-1,-1
1528445414221566,-1,-1,-2,-1,-1,-2,0,-1
1528445414222535,-1,-1,-1,0,-1,0,0,-1
1528445414222535,0,0,0,-1,-1,-1,-2,1
1528445414244476,0,-3,0,-1,-2,0,0,-4
1528445414244476,0,-2,0,-1,0,-2,-2,-2
1528445414245473,0,-1,-2,-2,-1,-2,-1,-1
1528445414245473,1,-3,-2,-1,-1,0,-1,-2
1528445414267560,-2,-1,0,-1,1,0,0,-1
1528445414267560,0,1,0,-1,0,-1,0,0
1528445414268412,-1,0,0,0,-1,-1,-1,0
1528445414268412,-2,1,-3,0,0,-1,-1,-2
1528445414281376,-2,-1,-2,-1,-3,-2,0,-1
1528445414281376,1,-1,-3,-2,-1,-1,0,-2
1528445414289514,0,-1,0,-2,0,0,-2,0
1528445414289514,0,0,1,-1,0,-2,-1,-2
1528445414304472,-3,0,-1,0,-1,1,-1,1
1528445414304472,1,-1,0,-2,-2,1,-1,0
1528445414305313,0,-1,-2,0,-1,-2,0,-1
1528445414305313,-2,0,-2,-1,-1,-1,0,-1
1528445414327599,0,0,-1,-2,0,-2,-1,-1
1528445414327599,-2,-1,-1,-1,1,-1,-1,-1
1528445414328453,-2,-2,0,-2,-1,-1,0,-2
1528445414328453,0,-1,-1,-1,0,0,-2,0
1528445414341793,0,0,-1,-1,-2,0,-1,-2
1528445414341793,-3,-1,-1,0,-1,-1,-1,-2
1528445414342639,0,-2,0,-2,-1,-1,-1,0
1528445414342639,-2,-1,-1,-3,-3,0,-1,0
1528445414364727,0,-1,-1,0,-1,-2,-3,0
1528445414364727,-1,0,-2,-2,-1,0,-2,-1
1528445414365724,-1,-3,-1,-2,-1,-1,0,1
1528445414365724,-1,-2,-1,0,-2,-2,-1,0
1528445414387871,1,-1,-2,-2,-2,0,0,0
1528445414387871,-1,-2,0,-1,0,-2,-1,-1
1528445414388863,-1,0,-2,0,0,-1,0,0
1528445414388863,-2,-1,-1,0,2,0,-1,-1
1528445414401670,0,-1,-1,-2,-1,-1,-1,-2
1528445414401670,0,0,-1,0,0,-1,-1,-1
1528445414402667,-1,0,-3,-1,-2,-1,-2,-2
1528445414402667,-1,-1,0,-1,-2,-1,-1,0
1528445414423812,-1,0,-1,0,0,0,-1,-1
1528445414423812,-2,-1,-1,-1,-1,-1,-1,1
1528445414432797,-1,0,-2,2,1,1,0,-3
1528445414432797,-1,-1,-2,-1,-1,0,-1,-1
1528445414447750,-2,-2,-1,0,-1,0,-1,-1
1528445414447750,-1,-1,-1,-1,-1,-1,-2,-2
1528445414448755,-3,-1,-2,0,-2,-1,0,-2
1528445414448755,-2,0,-1,0,-1,-3,-1,-3
1528445414469688,0,0,0,0,-1,-1,-1,0
1528445414469688,-1,0,0,-1,-2,-2,-1,-2
1528445414471697,-2,0,0,-2,-2,-1,0,-2
1528445414471697,-1,0,-1,-1,-1,-1,-1,-2
1528445414483793,-3,-3,-1,1,-1,0,-1,0
1528445414483793,-2,0,-1,0,-2,1,1,-2
1528445414492808,0,-3,-3,-1,-1,-2,-2,-2
1528445414492808,2,-2,0,-2,-1,-2,0,1
1528445414507796,-1,-2,-1,-2,0,-1,-1,0
1528445414507796,0,-1,-1,0,0,-1,-2,-1
1528445414509804,-1,-2,-2,-1,-1,0,-1,0
1528445414509804,-2,-1,-1,-1,-2,-1,0,-1
1528445414530080,-1,2,-2,-1,-1,1,-1,0
1528445414530080,-1,-1,-1,1,-1,-1,-1,-1
1528445414531921,-2,0,-2,-1,-1,0,-1,0
1528445414531921,0,-1,0,0,1,-2,-1,0
1528445414543879,-1,-3,-2,-2,-1,0,-2,-1
1528445414543879,-1,-1,-2,-2,-1,-2,-1,-1
1528445414552857,0,-1,-1,-1,-2,0,-1,-2
1528445414552857,0,-1,-2,-1,0,0,-2,-1
1528445414568081,0,-1,1,-1,-2,-2,-1,-3
1528445414568081,-1,0,0,-1,-1,0,-1,0
1528445414569081,-3,-2,-1,0,-1,0,-1,0
1528445414569081,-1,-1,-1,1,-1,0,-1,-2
1528445414590217,-2,0,-2,0,-2,0,0,-1
1528445414590217,0,-1,-3,0,-1,-2,-1,-3
1528445414592333,3,-1,1,-1,-1,-3,-1,2
1528445414592333,0,-1,0,-1,-2,1,-2,-2
1528445414603384,-1,-1,-3,0,1,-3,-1,0
1528445414603384,-1,-2,-2,-1,-2,0,1,-2
1528445414612377,0,0,-2,-1,-1,-1,-2,-3
1528445414612377,-1,-3,-2,-2,-1,-3,-1,0
1528445414628460,0,-3,-2,-1,-1,-1,0,-2
1528445414628460,-2,-3,-1,-2,0,-2,-1,1
1528445414634348,-1,0,1,-2,-1,-1,-1,-1
1528445414634348,1,-2,-2,-1,-2,-2,-1,-1
1528445414650239,-3,-1,0,-1,0,0,-1,0
1528445414650239,-1,0,-1,-2,-3,0,0,1
1528445414651251,-1,-1,-2,-2,-2,0,-1,-2
1528445414651251,-1,1,-2,0,-1,-1,0,-2
1528445414664200,-2,0,-1,-2,-1,-1,-2,0
1528445414664200,1,0,-1,-1,0,-1,-3,-1
1528445414673178,0,-1,-1,0,-1,-2,-2,-1
1528445414673178,-1,-2,-1,-1,-1,-2,0,0
1528445414687139,-1,-2,0,0,-2,-1,-2,-1
1528445414687139,-1,0,1,-2,-1,1,-1,-2
1528445414701102,-1,2,-1,-1,-1,-2,-2,-1
1528445414701102,-1,-1,-3,-3,0,-1,-2,-1
1528445414710078,-1,-2,-2,-2,-2,-1,-1,-1
1528445414710078,-1,-3,1,1,0,-1,-2,-1
1528445414712072,-1,-2,0,0,-3,-1,-1,1
1528445414712072,-3,-2,1,1,-1,0,-1,-1
1528445414724047,0,0,0,-3,-2,-2,0,0
1528445414724047,1,-1,-1,-1,-1,-2,-3,-1
1528445414733016,-2,-1,-1,-1,-1,0,0,-3
1528445414733016,0,-2,-1,-1,-2,0,-2,-1
1528445414746979,0,-1,1,-2,-3,0,0,-1
1528445414746979,-1,0,-2,0,1,-2,-2,1
1528445414753961,-2,0,0,-1,0,-2,-2,0
1528445414753961,-1,-1,0,-1,0,0,-2,-2
1528445414769918,-1,-1,-2,0,-1,0,0,-2
1528445414769918,-1,0,-2,-2,-1,-1,1,-1
1528445414771921,-2,-2,-2,-1,0,-1,-1,-1
1528445414771921,-1,0,-1,-2,-1,0,-1,-1
1528445414792857,-1,0,-1,-1,-1,-2,-2,-2
1528445414792857,1,-2,-1,-2,0,-1,-2,1
1528445414793854,-1,-3,-1,-2,-1,-2,-2,-1
1528445414793854,0,0,-1,0,0,-2,-1,0
1528445414806820,-1,-2,-1,-1,-2,0,-2,-2
1528445414806820,-2,0,0,-1,-1,1,0,-1
1528445414813800,-1,0,-1,0,0,0,-1,1
1528445414813800,-1,-1,0,0,-1,0,-1,-1
1528445414829758,-1,-1,-2,-2,-1,-1,-1,0
1528445414829758,0,-1,-1,0,-1,-1,-1,-1
1528445414831753,-2,1,-1,0,-1,-2,1,-1
1528445414831753,-2,-2,-2,-2,-3,-2,-1,-1
1528445414852696,-2,-1,-1,-1,0,-1,-1,0
1528445414852696,0,-1,-2,-2,-2,-1,-1,-1
1528445414854692,0,-1,-1,-2,-2,-1,-1,0
1528445414854692,0,0,-2,0,-2,-2,-1,0
1528445414867656,-1,0,-1,-2,1,0,-2,-1
1528445414867656,-3,0,-1,0,-1,-1,-1,0
1528445414869671,0,1,0,-1,0,-1,-2,-3
1528445414869671,-3,-1,-2,-1,-2,-1,-1,-1
1528445414889602,-1,-2,-1,0,-2,-1,-1,-2
1528445414889602,0,-2,-1,0,-2,0,0,-1
1528445414891594,-1,-2,-3,-1,-2,-2,1,0
1528445414891594,-1,0,-3,0,0,0,-2,-3
1528445414912538,-2,-3,0,0,-1,-1,-2,-2
1528445414912538,-2,-1,-1,-2,-1,0,-1,-2
1528445414914533,-1,-2,0,-1,-3,-1,0,-1
1528445414914533,0,-1,0,-1,-1,0,0,1
1528445414926500,-1,0,-1,0,-3,-1,0,-2
1528445414926500,-2,-2,-1,0,-1,-1,0,-1
1528445414933482,-2,-1,-2,-1,0,-2,-3,0
1528445414933482,-2,-1,-1,-2,-1,-3,1,-2
1528445414950438,-1,-1,0,0,-1,-2,-2,0
1528445414950438,0,0,-1,-1,-2,-1,-2,-1
1528445414951435,-1,-2,-2,1,-1,0,-1,-1
1528445414951435,-2,-1,0,-1,0,0,0,-2
1528445414972522,-2,0,-1,-1,0,-2,-1,0
1528445414972522,0,-1,-1,-3,0,-2,0,-1
1528445414974373,-1,0,-2,-1,-1,0,-1,-1
1528445414974373,1,-2,-2,-2,-1,0,-2,-1
1528445414987474,-2,-2,0,0,-2,-1,0,-1
1528445414987474,-1,1,-2,0,-1,-2,-1,-2
1528445415001438,-1,-1,-1,0,0,0,-1,-1
1528445415001438,-1,-2,0,-1,-1,-1,-1,0
1528445415010411,1,-1,0,0,-1,0,-1,-1
1528445415010411,-3,-2,-1,-2,-2,0,0,-3
1528445415012298,-1,-1,-1,-1,-3,1,-1,-2
1528445415012298,-2,2,-3,-2,0,-2,0,-2
1528445415032352,-1,-2,-3,0,-1,-2,0,0
1528445415032352,0,0,-1,0,-2,0,-2,0
1528445415034232,-2,-2,0,-1,1,-2,-1,-1
1528445415034232,-1,-2,-1,-1,-1,-1,0,-1
1528445415047313,-1,-1,1,-1,0,-2,0,-1
1528445415047313,0,-1,-3,0,-3,-1,-1,0
1528445415054407,-1,-2,-2,-2,-2,-1,-1,0
1528445415054407,-1,-2,1,-2,-2,-1,-2,-2
1528445415070459,-3,1,-3,-2,-1,0,-2,-2
1528445415070459,-1,-2,1,-2,0,0,-1,-1
1528445415076361,0,-1,0,-1,0,-2,0,-1
1528445415076361,-2,-1,-2,-1,-1,0,-2,-1
1528445415092820,0,-1,-3,1,-1,-1,0,-3
