timestamp,emg1,emg2,emg3,emg4,emg5,emg6,emg7,emg8
1528878052370141,-2,-7,-40,-10,-4,-2,-2,-1
1528878052370141,0,2,35,4,-1,-1,-1,0
1528878052371139,-2,1,22,-2,-1,-1,-1,-2
1528878052371139,-1,4,47,5,-1,0,0,0
1528878052372136,-1,4,14,-6,-3,-1,-1,-2
1528878052372136,3,13,14,2,1,1,2,1
1528878052375128,-2,-10,-17,4,6,-2,-4,0
1528878052375128,-2,-4,13,1,4,3,2,-3
1528878052382108,3,10,72,-3,-6,1,1,0
1528878052382108,1,14,-59,27,15,-2,-6,-5
1528878052389090,-1,-19,-35,24,1,3,3,1
1528878052389090,1,-9,-44,-19,5,-1,0,0
1528878052398067,-3,-19,25,0,-8,-2,0,-1
1528878052398067,-4,3,-10,-51,-17,-5,-1,-2
1528878052412029,0,-2,11,18,-1,-7,0,-2
1528878052412029,1,2,-28,25,4,8,-5,-2
1528878052420007,4,13,-69,3,13,2,11,8
1528878052420007,-3,-24,8,-5,3,5,-4,-2
1528878052442946,-5,-4,21,2,-3,-8,-10,-9
1528878052442946,-8,-9,23,-9,-13,0,1,-4
1528878052443944,1,6,24,-2,2,1,1,-3
1528878052443944,-1,-5,3,19,-2,-6,-6,-2
1528878052456909,-4,-7,-80,-35,1,3,-3,-3
1528878052456909,5,7,27,-14,-10,-8,3,3
1528878052465885,-4,-4,93,52,1,-3,-11,-5
1528878052465885,-4,-16,-42,-67,-24,-6,1,-2
1528878052480846,10,25,73,12,7,8,14,8
1528878052480846,-11,-18,-87,-17,-14,-20,-12,-9
1528878052481843,-5,-14,-93,-11,3,1,-2,-4
1528878052481843,-2,5,52,16,0,-4,-6,-6
1528878052503783,1,6,-8,3,1,6,2,2
1528878052503783,4,5,-4,-5,2,13,11,5
1528878052504798,-3,10,19,-19,-7,-10,-18,-7
1528878052504798,-3,1,31,11,6,-6,-5,-3
1528878052516750,-2,-2,7,-7,-19,-5,-4,-2
1528878052516750,5,7,39,20,6,1,2,3
1528878052525741,-2,-5,-49,27,16,-3,-7,-2
1528878052525741,2,10,47,4,-2,3,-1,0
1528878052540686,0,3,-56,-24,-25,-11,5,0
1528878052540686,1,0,74,25,16,2,-3,-1
1528878052542680,-1,-7,-16,-11,-4,5,9,1
1528878052542680,-4,-3,41,-10,-1,-30,-23,-8
1528878052563686,5,10,74,34,8,11,6,4
1528878052563686,-3,-13,-73,-29,-4,1,-5,0
1528878052564639,-1,5,-4,-8,-11,-13,3,0
1528878052564639,0,-12,-43,0,-5,7,4,2
1528878052576625,-1,-2,16,-5,-1,0,1,-1
1528878052576625,-2,7,6,9,0,-7,-1,-1
1528878052585565,1,-5,-22,-28,12,16,5,2
1528878052585565,3,5,-3,18,2,2,9,5
1528878052600561,-10,-14,-49,-26,3,-4,-18,-6
1528878052600561,1,-5,-46,-2,-7,-3,2,0
1528878052602556,-3,-9,-32,-6,0,-5,-7,-3
1528878052602556,4,7,5,16,-7,0,8,4
1528878052623474,-2,-4,-33,33,20,7,5,-2
1528878052623474,0,5,64,-11,3,3,1,-1
1528878052624463,-2,-5,-33,14,4,-8,-17,-6
1528878052624463,-2,-4,8,-35,-12,1,0,-2
1528878052636482,3,0,-12,9,-2,-2,2,1
1528878052636482,0,3,-21,-2,0,-3,2,1
1528878052645432,5,10,53,11,7,9,15,9
1528878052645432,-7,-12,-6,30,7,11,-6,-5
1528878052660365,-1,-3,-55,-52,-16,-16,0,-2
1528878052660365,1,2,28,-7,-9,2,-13,-3
1528878052662360,-2,0,-8,-9,0,7,5,-1
1528878052662360,3,3,-40,12,7,0,-1,2
1528878052683305,-2,-1,83,3,-12,-11,-5,-1
1528878052683305,-7,-14,-106,2,12,-7,-1,-5
1528878052685355,-1,0,49,-13,-23,-24,-4,0
1528878052685355,-2,-9,-46,9,-1,3,13,1
1528878052697309,3,2,-10,-18,-7,13,-15,0
1528878052697309,-1,5,20,17,12,20,14,-2
1528878052706244,-5,-10,-47,-12,-7,4,10,-3
1528878052706244,3,5,46,3,13,-2,11,3
1528878052721203,-1,-1,27,-2,2,-4,-15,-4
1528878052721203,-1,-1,1,-6,-6,-1,-12,-6
1528878052722207,-1,0,-13,-1,-10,-21,-20,-2
1528878052722207,-4,3,22,1,1,-2,-2,-5
1528878052743144,-5,-9,-76,-10,0,9,6,-4
1528878052743144,-3,-11,-5,-20,-4,4,15,1
1528878052745139,2,2,54,1,-10,7,0,-1
1528878052745139,-4,-3,-23,3,-6,-19,-28,-8
1528878052757107,2,11,40,11,5,-13,-3,0
1528878052757107,-1,-4,-29,-22,-2,0,7,1
1528878052766082,0,-4,18,10,-5,3,2,0
1528878052766082,-3,-6,-71,-24,-13,-10,-3,0
1528878052781070,2,12,50,13,6,-4,7,1
1528878052781070,-5,-17,-38,6,-7,-10,-17,-4
1528878052782040,-2,5,17,12,3,-7,-11,-3
1528878052782040,2,-1,4,-8,-3,10,5,3
1528878052802984,-3,-2,7,1,0,-26,-11,-6
1528878052802984,0,13,25,0,-8,15,3,-1
1528878052804979,-7,-15,-31,-19,-7,-8,-6,-4
1528878052804979,-3,-3,10,11,7,7,1,-2
1528878052816947,0,-5,-26,-3,5,17,13,3
1528878052816947,-1,4,60,3,-2,-23,-15,-2
1528878052826006,1,2,29,-7,-5,10,12,-3
1528878052826006,1,-3,-14,-1,2,1,-6,2
1528878052840965,-2,-3,-12,-4,1,-8,-8,-3
1528878052840965,0,3,69,1,-14,-8,-22,2
1528878052841962,0,18,3,8,8,4,21,-5
1528878052841962,-9,-26,-65,-34,-11,-3,6,5
1528878052862927,9,0,0,9,4,2,-12,-2
1528878052862927,-15,-5,-14,1,-16,-27,-7,16
1528878052864901,-2,8,50,19,11,31,8,-10
1528878052864901,-8,-8,-26,-30,-7,0,3,-5
1528878052876905,-3,5,17,-3,-7,7,4,0
1528878052876905,9,-10,-6,5,3,-23,-8,-1
1528878052885882,-3,-6,-30,-9,-1,-6,-19,3
1528878052885882,6,5,-9,-6,0,5,1,10
1528878052900844,3,-14,40,2,1,26,32,11
1528878052900844,-6,3,-44,-3,9,3,0,-10
1528878052902799,9,18,1,10,4,-9,3,3
1528878052902799,-39,-10,-11,5,5,-22,-56,-19
1528878052922774,33,-1,-24,-15,-4,10,37,7
1528878052922774,0,7,17,23,5,20,9,-2
1528878052924741,3,-23,-40,-19,-3,-4,-4,3
1528878052924741,10,26,53,12,9,5,10,1
1528878052936715,-16,-1,-7,-2,-4,-15,-10,-5
1528878052936715,-5,-4,-46,-22,3,28,16,-1
1528878052945687,4,1,-55,-3,-3,8,8,5
1528878052945687,12,5,-3,-16,16,9,15,5
1528878052959652,-19,-5,13,20,-18,-16,-19,-12
1528878052959652,12,-1,22,-23,-5,-20,-6,-1
1528878052966630,-3,11,33,40,27,13,-1,2
1528878052966630,2,-1,-47,-14,-3,20,21,2
1528878052983629,5,16,10,-6,17,3,-19,-2
1528878052983629,-2,-59,-14,-2,-6,-2,41,3
1528878052984588,-7,29,32,4,-8,-15,-33,-6
1528878052984588,6,18,25,50,13,16,29,-5
1528878052996583,-4,-9,3,-24,-13,-19,-5,-4
1528878052996583,-4,-4,-28,21,11,20,-7,5
1528878053005526,2,-2,65,2,2,12,9,-7
1528878053005526,0,-17,-33,-48,-19,-81,-84,-5
1528878053020592,-7,-11,25,4,-6,33,46,-3
1528878053020592,3,19,17,11,17,70,61,6
1528878053027503,4,-6,-11,-19,-11,-14,-3,5
1528878053027503,4,12,5,4,-6,15,17,5
1528878053043511,-4,3,11,27,7,-51,-50,-7
1528878053043511,0,11,25,-10,7,-35,-34,-5
1528878053044509,-6,-18,-57,-36,-4,12,17,-1
1528878053044509,4,2,127,60,3,-10,-5,-3
1528878053056752,-7,-10,-37,-13,-5,7,2,1
1528878053056752,1,13,42,24,-5,1,-2,-5
1528878053065831,-4,-3,-10,-16,-13,-18,-14,-1
1528878053065831,0,-5,-23,-5,-5,1,4,-2
1528878053079794,0,-2,4,0,2,5,1,2
1528878053079794,-3,13,-5,-4,-13,-5,-10,-4
1528878053086939,0,-7,10,8,-5,-17,-10,-3
1528878053086939,1,-5,-1,-2,6,13,13,3
1528878053103735,-1,4,9,19,7,10,4,-3
1528878053103735,-2,4,33,26,1,-22,-21,-7
1528878053104727,1,0,-27,-22,-6,1,6,4
1528878053104727,-5,-15,-56,-15,-4,16,13,-3
1528878053117483,0,11,-31,1,-12,-9,-12,1
1528878053117483,-3,-2,66,16,19,-12,-12,-5
1528878053125512,0,-11,-1,35,5,6,6,0
1528878053125512,-1,3,-6,-41,-11,4,6,-1
1528878053139620,-3,-7,25,-1,-2,-5,-8,-3
1528878053139620,0,7,-29,-60,-25,-7,-3,0
1528878053146745,-1,-2,-3,30,24,7,7,-2
1528878053146745,1,2,18,25,15,4,-1,0
1528878053163630,-4,-8,-12,-12,-12,-5,-2,-1
1528878053163630,-1,-2,-10,-8,10,5,0,-2
1528878053164630,-1,-1,12,-27,-37,-16,-7,-1
1528878053164630,0,1,0,34,33,7,0,-1
1528878053185574,-3,-3,-25,-14,-1,-3,-4,-3
1528878053185574,-7,-17,-32,0,-32,-11,-6,-3
1528878053187569,-2,-1,6,-34,2,-3,-6,-2
1528878053187569,-1,-4,20,-25,-16,-4,0,-2
1528878053199674,-1,-1,16,22,-11,-2,-1,0
1528878053199674,1,5,-2,-20,4,-6,-4,-1
1528878053206765,-4,-3,1,5,-7,-3,-1,-1
1528878053206765,2,6,18,-3,11,6,4,0
1528878053223669,-2,-2,-1,31,18,3,-1,0
1528878053223669,2,6,-14,28,-7,-11,-6,-1
1528878053224666,-2,-6,-27,-40,-6,2,3,0
1528878053224666,3,6,0,27,0,5,2,1
1528878053245971,1,6,28,-34,-4,-3,0,-1
1528878053245971,-2,-12,-60,34,4,-3,-2,-2
1528878053247803,0,1,12,15,19,4,1,-1
1528878053247803,0,0,21,-21,-15,-4,-1,0
1528878053259930,1,1,-18,-11,12,7,1,1
1528878053259930,0,7,35,6,-13,-5,-5,-3
1528878053266910,-1,1,-3,9,-6,-4,-3,-1
1528878053266910,-2,-8,-6,1,10,1,1,1
1528878053283742,0,-7,-37,18,9,3,-2,0
1528878053283742,0,4,-4,-65,-7,0,1,0
1528878053284705,0,6,10,49,17,0,-2,-1
1528878053284705,-4,-3,26,-31,-16,-7,-2,-2
1528878053305464,-3,-10,-34,-20,-1,-3,-1,-1
1528878053305464,-4,-4,-5,21,19,2,-3,-5
1528878053307476,-1,-8,-1,-12,-16,-5,-3,-3
1528878053307476,1,1,-11,-27,-20,-9,-4,-2
1528878053319525,-1,2,10,-1,10,4,1,-1
1528878053319525,0,-2,-4,-2,5,1,-3,-2
1528878053328363,-2,-9,5,9,16,6,4,2
1528878053328363,-1,0,-33,3,-13,-4,-2,-3
1528878053342326,-2,0,-7,-20,-20,-9,-5,-2
1528878053342326,1,4,10,8,2,3,0,2
1528878053350652,-1,0,13,43,-2,-6,2,-2
1528878053350652,0,-3,-5,-15,-11,-2,-1,0
1528878053365609,-3,2,19,7,-4,5,4,-5
1528878053365609,0,-6,0,-54,-14,6,2,3
1528878053367463,1,-1,10,36,23,3,-4,1
1528878053367463,0,1,-5,28,-11,-12,-5,0
1528878053388549,-3,-2,-17,15,16,-2,-10,1
1528878053388549,-1,0,11,-7,-21,0,10,-2
1528878053389544,-2,1,-29,-26,8,-19,-26,-1
1528878053389544,-4,-5,-15,11,2,23,25,-4
1528878053410504,6,12,56,15,21,1,-4,4
1528878053410504,0,-1,-8,-6,-13,8,6,1
1528878053412343,-2,-6,-30,-3,19,10,14,2
1528878053412343,-2,-2,7,-18,-11,-28,-29,-4
1528878053425311,-1,2,14,-13,-9,1,10,0
1528878053425311,1,-3,10,16,4,-5,-6,1
1528878053427303,-5,-3,-40,-9,2,-7,-3,-7
1528878053427303,-1,-3,41,13,2,0,-18,-1
1528878053448247,-1,-3,-23,-27,-21,-7,2,-4
1528878053448247,1,-1,-24,31,23,8,13,2
1528878053450255,0,1,38,-17,-25,6,-1,0
1528878053450255,0,-6,-69,-14,-9,6,2,3
1528878053462210,-2,-4,-4,2,9,-13,0,-5
1528878053462210,1,5,12,4,-11,19,21,4
1528878053471310,3,-1,7,18,12,3,-1,-3
1528878053471310,1,3,-25,-2,-2,6,14,0
1528878053485149,-2,-4,21,-1,-19,-7,-18,-2
1528878053485149,0,-6,-43,-20,6,-7,-11,-5
1528878053492132,-1,4,31,-14,-24,-7,1,1
1528878053492132,0,2,5,-1,14,2,-5,0
1528878053508127,-1,-8,-19,17,11,6,9,0
1528878053508127,1,4,-26,-3,6,-2,-5,-1
1528878053510082,-1,-3,16,-14,-14,-2,-8,2
1528878053510082,-4,-1,2,-9,-12,-14,-4,-4
1528878053532023,0,-1,2,-56,8,11,4,2
1528878053532023,1,4,-13,-8,-7,-6,-10,-2
1528878053534071,-6,-8,-90,-30,-3,-3,-1,-2
1528878053534071,2,-1,15,-2,-2,2,4,1
1528878053545034,-3,-6,21,31,2,1,2,-2
1528878053545034,-2,-2,22,-12,-8,-10,-9,-2
1528878053552022,3,9,17,19,6,1,5,1
1528878053552022,-1,-1,30,21,5,12,7,-2
1528878053567979,-2,-4,-50,-21,0,-3,-5,0
1528878053567979,-2,2,74,18,14,0,-3,-3
1528878053569922,-2,-10,-84,-11,-7,3,3,-1
1528878053569922,-2,-4,14,17,-17,-9,-1,0
1528878053581943,4,8,7,-10,20,12,1,2
1528878053581943,-3,-3,19,15,-2,-14,-12,-2
1528878053590867,1,1,37,-12,-8,6,9,-3
1528878053590867,1,-1,-8,4,4,-1,0,-2
1528878053604882,-3,1,-3,4,-17,-5,-9,-5
1528878053604882,-1,-2,-10,13,15,3,8,-1
1528878053611868,-1,-1,24,-21,-7,-3,-8,-1
1528878053611868,-1,-2,-11,-1,-2,-5,-4,-1
1528878053627767,-1,-1,-23,-6,-12,-6,-4,-1
1528878053627767,-2,0,36,12,11,3,0,-2
1528878053629761,0,5,24,13,-4,0,1,-1
1528878053629761,-2,-7,-9,-8,7,0,0,-1
1528878053641729,0,0,-7,4,-9,0,3,1
1528878053641729,-3,-5,3,-15,-9,-4,-6,-1
1528878053650705,0,-7,-56,1,-2,-1,0,0
1528878053650705,-2,5,12,7,3,0,-1,-1
1528878053664668,-1,-3,-11,1,14,5,3,1
1528878053664668,1,-2,-18,-1,-4,-3,-3,0
1528878053673644,-3,0,36,-8,-7,-7,-3,-3
1528878053673644,-2,-1,0,3,8,3,0,-2
1528878053688604,0,-3,7,-2,-13,-6,-1,-1
1528878053688604,-2,2,-3,2,-1,-2,3,-1
1528878053689609,-1,-1,-3,0,2,0,0,0
1528878053689609,-1,-1,6,3,0,0,-1,-1
1528878053710545,-1,1,9,3,-4,-2,2,-1
1528878053710545,-2,-2,-15,-5,-3,-1,-3,1
1528878053712540,-2,-1,-2,-5,-6,-2,-2,-2
1528878053712540,0,2,10,8,15,2,-2,0
1528878053725506,-1,-5,-12,-11,-9,-1,1,0
1528878053725506,-3,0,-18,4,-7,-7,-4,-3
1528878053731489,0,-1,19,4,2,1,-1,-1
1528878053731489,2,7,34,18,3,-1,-1,0
1528878053748444,-3,-13,-46,-19,-11,-6,-1,-1
1528878053748444,1,1,-8,0,0,0,-2,1
1528878053749441,1,2,27,-1,-5,-1,0,0
1528878053749441,0,0,-9,-8,2,-2,-1,-1
1528878053770385,-1,3,24,10,0,1,-3,0
1528878053770385,1,-2,-5,3,1,-3,-2,0
1528878053772380,-2,-2,0,-2,1,-1,-2,1
1528878053772380,1,-5,-21,-11,-5,-1,0,2
1528878053785345,1,3,10,8,-5,-2,-1,-3
1528878053785345,0,-3,-7,-2,1,0,-1,-2
1528878053792327,-2,1,12,-1,0,0,0,1
1528878053792327,-2,-3,-15,-7,-6,-1,0,-1
1528878053808314,-3,-1,10,1,-2,-2,-2,-1
1528878053808314,-2,-1,-4,0,-3,-2,-3,-2
1528878053810336,-2,-5,-5,-7,-1,0,1,0
1528878053810336,-1,-4,-7,-1,-1,0,1,-1
1528878053831279,2,3,14,4,-1,-2,0,-1
1528878053831279,-2,-4,2,-8,-5,-1,-2,-1
1528878053832221,-1,-1,-4,-9,-10,-3,-3,-3
1528878053832221,-2,-1,0,7,7,0,-1,-2
1528878053844646,0,4,27,16,6,2,1,2
1528878053844646,-1,-2,-26,-9,-6,-2,-3,-3
1528878053853684,0,-2,-8,2,0,-2,-1,0
1528878053853684,-1,-2,6,-6,-4,0,-1,0
1528878053867845,-1,0,3,-1,-5,-5,-4,-2
1528878053867845,0,-1,3,1,4,0,1,0
1528878053869861,-2,0,-3,13,10,2,1,-1
1528878053869861,-1,-4,-14,-2,-2,-1,-1,-1
1528878053890786,-3,-1,2,-2,-4,-2,-1,-1
1528878053890786,0,1,9,-4,-6,-2,-2,0
1528878053892918,1,0,-3,-2,-3,0,-1,-2
1528878053892918,0,0,9,-2,0,0,2,-1
1528878053904955,-1,-1,-21,1,-1,2,0,0
1528878053904955,0,0,10,5,2,1,0,-1
1528878053913946,0,-3,8,2,-3,-3,-2,-1
1528878053913946,-1,-2,-6,0,3,0,-2,0
1528878053928560,-2,-2,4,-2,-3,-1,-2,-2
1528878053928560,0,1,6,0,-1,-1,-1,-2
1528878053930470,-3,-4,-48,-4,2,0,0,0
1528878053930470,-1,2,28,3,-3,-2,0,-1
1528878053950497,-2,-5,-14,1,3,0,-1,0
1528878053950497,-1,1,15,-4,3,1,1,-1
1528878053952335,-2,2,8,-4,-5,-3,-2,-1
1528878053952335,-3,-2,-13,3,-3,-3,-1,-2
1528878053964460,1,0,3,0,2,0,0,-1
1528878053964460,0,1,7,2,-4,-1,-2,-2
1528878053973617,-1,-4,-14,-10,-3,-2,-4,-2
1528878053973617,-3,-1,-14,-3,-2,-1,-2,-2
1528878053988707,-2,0,15,1,-1,-1,-3,-2
1528878053988707,-2,-5,-11,-9,-5,-4,-2,-2
1528878053989596,-1,0,21,1,-1,0,0,-2
1528878053989596,0,-2,-4,5,-1,-1,0,-1
1528878054010549,-1,-1,-2,-4,-4,-4,-1,1
1528878054010549,-2,-2,-11,-1,-2,-1,0,0
1528878054012504,0,-1,5,4,2,1,-1,-2
1528878054012504,-1,0,6,-3,-2,0,-2,0
1528878054024472,-1,-3,-17,-7,-5,-2,-1,-2
1528878054024472,-1,-2,-16,2,0,-3,-3,0
1528878054033448,1,2,5,2,5,0,0,1
1528878054033448,-2,-5,-47,-12,-4,-1,-1,-1
1528878054048565,-1,-1,2,-6,-6,-3,-1,-1
1528878054048565,-1,0,9,3,-3,0,-1,-1
1528878054050470,1,-2,3,-2,-3,0,1,-1
1528878054050470,2,2,18,3,-1,-2,-1,-1
1528878054072501,-2,-2,-25,-3,2,-1,0,0
1528878054072501,-2,-2,3,-1,2,-2,-1,0
1528878054074339,-1,1,4,0,0,0,-2,0
1528878054074339,-1,-1,14,-5,-4,0,-1,-2
1528878054084447,0,-1,6,5,0,-1,0,-1
1528878054084447,-1,0,4,-5,1,-1,1,-2
1528878054093288,-1,-2,0,0,1,-1,0,-2
1528878054093288,0,0,4,-3,1,-2,-2,-1
1528878054108404,0,2,2,3,1,1,0,-1
1528878054108404,-1,-3,-20,-5,-4,0,0,-1
1528878054110399,-1,1,47,3,-1,-1,-2,-2
1528878054110399,-1,-2,-5,-2,0,-2,-2,1
1528878054131268,-2,-1,-14,-3,-1,2,-2,0
1528878054131268,-3,-2,-6,0,-3,-1,0,0
1528878054132198,0,5,11,1,0,-2,2,-1
1528878054132198,-5,-10,-6,-9,-5,-2,-2,-4
1528878054144679,2,7,18,9,2,-1,-1,0
1528878054144679,0,1,29,-3,2,0,0,0
1528878054153494,-4,-11,-49,-12,-5,-3,-4,-2
1528878054153494,1,2,-14,2,2,2,0,1
1528878054167881,-4,-3,45,-2,-2,-2,-3,-2
1528878054167881,3,3,-16,1,1,1,0,-2
1528878054169892,-1,-1,-10,-3,-1,-2,-1,-1
1528878054169892,0,2,20,5,1,0,0,3
1528878054190029,-1,-1,-9,2,2,0,0,-1
1528878054190029,1,0,-2,4,1,0,0,-1
1528878054198009,-2,-4,-7,0,-2,-2,-2,-2
1528878054198009,-2,0,-1,0,-1,-3,3,0
1528878054204132,1,-2,11,-5,-2,-3,-6,-1
1528878054204132,-2,-4,-8,2,-2,2,-3,-2
1528878054213966,2,-1,-30,-7,-1,-3,1,2
1528878054213966,-4,1,25,4,-2,4,2,1
1528878054228084,-2,-1,-19,-2,-1,-3,1,-3
1528878054228084,-1,-3,-9,-4,-2,-2,0,-2
1528878054229923,1,3,16,5,1,0,-2,-1
1528878054229923,-1,-2,-12,-3,0,-2,-2,-4
1528878054251070,-1,-1,-4,-3,-1,0,0,-2
1528878054251070,-2,1,6,2,-1,-2,-3,2
1528878054252071,-2,2,13,1,0,-1,-2,-1
1528878054252071,0,-1,-13,-7,-2,-3,-2,-3
1528878054264176,-1,-1,10,-2,-1,0,0,0
1528878054264176,0,-1,3,0,0,-2,0,-3
1528878054273156,-2,-2,-1,0,-3,0,-1,-1
1528878054273156,-2,-1,-11,-3,-2,-1,-4,-2
1528878054288406,1,-1,-9,-2,-1,1,-1,1
1528878054288406,-2,0,6,0,-2,-2,-2,-2
1528878054290260,-3,0,-2,-2,-1,0,0,-1
1528878054290260,0,0,-11,-1,0,-2,-3,1
1528878054311211,-2,-1,9,-1,-2,-2,1,0
1528878054311211,-1,0,-2,-1,1,-1,-2,-1
1528878054312200,-1,-4,-1,-1,-4,0,-2,-2
1528878054312200,-1,-1,4,0,-2,-1,-4,-1
1528878054325170,-2,-2,-12,-3,-1,-2,1,0
1528878054325170,-2,-1,0,-1,-1,-1,-1,-2
1528878054333183,-1,1,-1,-1,1,-1,-1,-1
1528878054333183,0,-1,2,-1,-2,-1,0,-1
1528878054348267,0,-2,-3,-1,0,0,-2,-1
1528878054348267,2,-3,-25,-4,-3,-1,-1,5
1528878054350263,-4,-1,15,2,-2,-2,1,-4
