timestamp,emg1,emg2,emg3,emg4,emg5,emg6,emg7,emg8
1528879555232340,-1,1,-11,-2,21,2,0,0
1528879555232340,0,0,7,1,-15,3,0,0
1528879555245305,1,-1,-3,-12,-13,-8,1,0
1528879555245305,-2,-6,-37,-10,-4,0,-3,-1
1528879555255279,-4,-15,-45,-29,-19,-13,-6,-3
1528879555255279,-3,-2,1,-35,2,3,-3,-2
1528879555260265,0,25,105,107,16,3,3,1
1528879555260265,8,20,9,18,17,2,4,3
1528879555275225,2,4,-18,-3,0,-4,1,1
1528879555275225,-1,-14,-35,-18,-3,-1,-1,-2
1528879555283204,-4,-16,-41,-53,20,5,-1,-1
1528879555283204,-6,-12,-14,-20,-32,-12,-5,-2
1528879555292180,-5,-5,-5,20,-14,-5,-3,-2
1528879555292180,-5,3,-15,-3,-3,-8,-8,-4
1528879555305145,1,-1,26,8,3,-2,-1,-2
1528879555305145,1,6,9,8,-2,-2,-1,-1
1528879555314121,-3,-15,-44,-15,16,4,-1,-1
1528879555314121,-2,1,5,-13,1,16,4,-1
1528879555320105,8,22,80,35,-1,-25,0,2
1528879555320105,4,6,-28,-2,21,2,1,2
1528879555337061,1,-2,49,30,-15,5,0,0
1528879555337061,1,-7,-37,11,-13,-2,6,4
1528879555343044,0,-6,-53,-48,11,0,-1,1
1528879555343044,-1,1,32,18,-10,-13,-8,-3
1528879555352020,-4,-5,-34,-18,0,-5,-2,-3
1528879555352020,-7,-7,-18,-48,-11,-3,-6,-5
1528879555365025,2,5,70,37,-26,-8,-2,0
1528879555365025,6,14,6,19,19,21,5,3
1528879555374001,4,8,33,-12,-4,-5,0,0
1528879555374001,-9,-23,-83,-27,9,13,3,-2
1528879555379982,-4,-4,8,0,-13,-21,-2,-2
1528879555379982,1,9,50,33,-16,15,0,1
1528879555396081,-1,0,-39,-4,40,7,0,3
1528879555396081,8,1,29,0,-5,2,3,3
1528879555402935,-3,-3,-67,-40,-15,-17,-4,-4
1528879555402935,-6,-14,0,-1,12,17,1,-2
1528879555411861,3,13,33,4,-37,-10,-2,2
1528879555411861,-2,8,9,31,60,-7,1,1
1528879555424856,0,-10,-8,-7,-3,32,6,1
1528879555424856,-2,-5,-25,-58,-15,-6,1,-3
1528879555434800,2,12,39,51,5,-6,-5,-1
1528879555434800,6,13,11,18,-17,-4,-5,2
1528879555440837,-6,-14,-61,-42,-17,-6,0,-1
1528879555440837,-9,-17,0,22,31,-10,-2,-3
1528879555455747,-9,-18,-18,-45,-17,4,0,-5
1528879555455747,12,38,91,45,-24,-9,3,4
1528879555462724,10,25,-4,22,8,9,1,3
1528879555462724,-1,-17,-66,-42,-22,7,3,0
1528879555471702,-4,-10,34,32,31,5,-1,-5
1528879555471702,-1,-4,-30,-2,21,10,-1,-1
1528879555485704,3,7,58,-3,-19,-5,-1,0
1528879555485704,-5,-12,-73,-14,17,-6,-9,-7
1528879555494692,-5,0,12,-17,-13,7,4,2
1528879555494692,-1,1,4,12,-18,-13,0,-3
1528879555500625,-2,-10,-31,2,45,27,1,-1
1528879555500625,-1,0,16,-4,-47,-25,-6,-1
1528879555515583,-4,-11,-59,-29,15,-2,-4,-4
1528879555515583,-6,-7,39,-4,-28,4,-1,-1
1528879555522564,3,31,25,-5,-23,-29,-2,1
1528879555522564,11,13,46,68,31,20,10,5
1528879555539558,9,8,21,3,6,2,7,9
1528879555539558,-9,-20,-51,-21,-34,2,0,-3
1528879555545504,-6,-18,-57,-32,41,-4,-10,-5
1528879555545504,-8,-11,10,-13,4,-2,-3,0
1528879555554479,4,12,-4,-5,-68,-5,-4,-3
1528879555554479,-1,1,13,18,18,7,0,-1
1528879555560464,3,2,-9,5,2,-2,4,4
1528879555560464,0,14,62,26,-29,-3,8,0
1528879555575431,2,-2,-7,13,33,-1,-2,-2
1528879555575431,-5,-6,0,-12,9,-6,-4,-3
1528879555583404,-9,-21,-52,-22,-51,1,-3,-4
1528879555583404,-5,-9,-7,-14,21,-4,-5,-7
1528879555597365,-1,2,46,33,31,-28,-2,-2
1528879555597365,11,23,-5,7,2,11,4,5
1528879555605348,-10,-11,-12,-2,-9,1,-4,-4
1528879555605348,3,8,-6,-11,-20,3,0,0
1528879555614334,-1,-6,6,1,9,2,0,0
1528879555614334,6,3,-4,-6,7,6,0,1
1528879555620356,0,-3,4,12,12,0,0,-1
1528879555620356,10,15,7,-5,-17,-18,-1,1
1528879555635263,-2,-7,-8,1,3,3,-1,1
1528879555635263,-3,-13,0,12,35,7,-1,0
1528879555643242,3,5,2,-4,-39,13,2,0
1528879555643242,-4,-11,-20,-16,8,-46,-7,-4
1528879555658206,6,25,8,-7,7,11,-1,-2
1528879555658206,-5,-12,-9,7,-14,-3,-3,-2
1528879555665184,-4,-1,17,0,24,-2,-3,-4
1528879555665184,-8,-3,-11,-1,-16,11,-5,-3
1528879555674186,-2,-3,-3,-1,3,-5,6,3
1528879555674186,-7,-20,-4,-4,-2,-6,-6,-5
1528879555680179,-1,-1,-1,8,16,-21,-1,1
1528879555680179,-5,-4,-10,-11,-27,2,-1,0
1528879555695151,-2,-4,3,4,19,16,-1,-3
1528879555695151,-3,4,-4,-7,-10,-15,-2,-3
1528879555703120,6,5,-6,-2,-1,-2,3,4
1528879555703120,3,7,9,7,24,16,8,2
1528879555718044,4,-12,-18,-16,-40,-7,-1,2
1528879555718044,-3,5,16,13,36,5,1,-2
1528879555725193,4,-10,-5,3,-32,0,2,2
1528879555725193,0,8,6,-3,-5,31,-1,3
1528879555734034,-3,-10,2,-8,-62,-9,-5,-6
1528879555734034,1,10,-9,-2,43,6,0,-3
1528879555740015,2,-2,4,7,1,19,1,-2
1528879555740015,6,21,3,-1,10,-37,-4,5
1528879555756098,-2,-16,-10,-8,-16,-7,-1,-2
1528879555756098,-2,-1,-6,-16,-21,-10,-14,-3
1528879555763321,-8,-10,-5,1,14,2,-5,-5
1528879555763321,0,-1,-7,-12,-8,7,3,0
1528879555778265,-6,-9,-7,4,-7,-33,-7,-4
1528879555778265,-3,-12,0,4,4,7,1,0
1528879555785072,1,-3,-5,-17,4,10,2,1
1528879555785072,-3,-13,-5,0,-20,1,1,3
1528879555793998,13,26,-2,-11,-7,21,5,5
1528879555793998,5,21,19,11,13,0,4,2
1528879555799983,-2,-2,4,5,4,-3,-2,-3
1528879555799983,-19,-8,-2,7,8,-14,-5,-9
1528879555815606,-3,5,4,5,16,15,-5,0
1528879555815606,7,21,11,14,28,16,-4,0
1528879555823363,-4,-3,0,-1,-16,-26,-3,-5
1528879555823363,-24,-29,-4,4,56,11,-13,-19
1528879555838169,-5,-1,0,-3,-26,-1,4,-2
1528879555838169,5,-6,5,1,-28,-4,0,5
1528879555845182,-13,1,-6,-2,18,-18,1,-3
1528879555845182,-2,-16,20,27,-3,14,3,-4
1528879555855184,7,18,1,-8,-2,-3,-2,1
1528879555855184,0,-12,2,6,6,9,5,5
1528879555861144,3,-12,-18,-11,-87,4,4,1
1528879555861144,-2,17,-18,-19,30,0,-4,-5
1528879555875156,-43,-71,-8,10,40,18,-5,-17
1528879555875156,1,38,11,-6,-41,-28,-2,-5
1528879555883082,17,46,18,13,46,20,6,5
1528879555883082,18,8,10,10,-25,1,5,10
1528879555898043,4,-21,-4,10,51,-12,0,3
1528879555898043,-34,-89,-28,-14,-63,-17,-4,-11
1528879555905378,-37,-68,-48,-25,23,-5,-12,-13
1528879555905378,21,32,0,-2,-7,56,9,6
1528879555914460,-3,26,21,7,1,-12,8,2
1528879555914460,10,6,-13,3,-4,1,-1,3
1528879555929016,23,24,50,30,17,9,1,10
1528879555929016,2,-42,-36,-23,-3,-15,1,4
1528879555935649,-4,-1,-5,3,-18,-2,3,5
1528879555935649,5,0,5,10,40,16,1,3
1528879555943627,2,6,-4,-9,1,-13,-4,1
1528879555943627,4,-40,-54,-40,-38,-19,-5,2
1528879555958667,-1,41,18,-1,13,3,-2,4
1528879555958667,41,77,20,17,37,14,21,15
1528879555966092,-6,0,30,34,34,14,-4,-3
1528879555966092,-13,-12,-7,-10,-30,-23,-10,-7
1528879555975122,15,-15,-31,-34,-34,9,-3,10
1528879555975122,-10,15,7,-7,-44,-25,-5,-8
1528879555988444,12,8,5,14,6,15,11,3
1528879555988444,-9,1,39,25,6,-13,2,1
1528879555995435,3,14,-15,-10,14,-26,-10,-9
1528879555995435,-3,-22,-24,-19,46,30,3,0
1528879556003413,-5,-7,-22,-15,-16,-10,-5,1
1528879556003413,-19,-18,27,18,-22,3,2,-9
1528879556018461,22,9,5,6,16,7,2,1
1528879556018461,-12,-46,-31,-27,-42,-57,-14,-6
1528879556025154,7,40,29,14,49,32,3,5
1528879556025154,7,2,2,3,15,13,9,8
1528879556034521,-18,-4,-3,-2,-21,25,-3,-12
1528879556034521,-12,-47,-13,2,17,3,-26,-11
1528879556049480,12,-29,-38,-27,-28,49,10,9
1528879556049480,0,27,11,-5,23,-45,-8,-7
1528879556055517,3,-6,-3,11,17,10,7,9
1528879556055517,2,43,26,-10,-46,-24,9,-3
1528879556063251,-3,4,-35,-40,-34,-17,2,3
1528879556063251,-7,-36,-67,-36,14,28,-28,-12
1528879556078117,-4,17,12,4,5,-88,-5,-7
1528879556078117,14,-2,-1,6,-7,35,15,10
1528879556085834,-1,33,25,25,31,-17,1,-2
1528879556085834,-10,-18,-8,-8,-55,-24,-1,-2
1528879556100104,11,4,-7,-10,6,2,-2,3
1528879556100104,-8,24,4,-11,-18,-13,2,-6
1528879556109080,17,67,61,53,24,9,-2,1
1528879556109080,12,32,23,2,13,-1,4,3
1528879556124039,-39,-26,15,18,-2,17,-21,-23
1528879556124039,-11,-19,1,-7,5,1,1,-1
1528879556124039,-29,-54,-52,-33,-49,-12,-13,-13
1528879556124039,-37,-4,16,17,25,3,-1,-18
1528879556146023,4,-7,-17,-12,-24,15,5,5
1528879556146023,-6,17,-24,-26,-27,-32,-11,-8
1528879556146978,-10,-19,3,3,5,28,8,-1
1528879556146978,6,1,5,14,19,-3,-4,2
1528879556159981,1,-50,-32,-18,-9,30,1,5
1528879556159981,-4,24,3,7,20,25,4,-3
1528879556168919,13,14,2,-6,-43,-23,5,4
1528879556168919,3,7,0,1,41,-12,-6,1
1528879556183880,-5,2,-9,-1,22,6,3,3
1528879556183880,1,-6,10,0,-42,-29,-19,-11
1528879556183880,-7,-9,-10,-4,25,9,-10,-6
1528879556183880,23,13,-13,-14,-28,-3,7,12
1528879556197842,-2,-13,8,9,-37,2,5,9
1528879556197842,2,10,29,28,37,7,2,2
1528879556205825,9,7,-9,-9,-13,-38,0,4
1528879556205825,4,14,-10,-10,-27,2,6,3
1528879556220780,2,3,-8,-1,33,13,-2,0
1528879556220780,16,17,-21,-15,-24,-4,5,8
1528879556228796,-14,4,34,32,39,-17,-1,-4
1528879556228796,16,18,24,17,4,-5,9,11
1528879556243721,9,88,55,29,24,15,2,-6
1528879556243721,7,-25,-1,15,26,25,10,11
1528879556244718,-23,-18,21,17,14,3,-6,-12
1528879556244718,17,20,-9,-8,-36,4,8,5
1528879556257683,7,-12,14,11,20,-17,2,5
1528879556257683,-17,-3,11,3,-12,17,-9,-7
1528879556265661,0,-28,-47,-50,-63,-24,-5,-2
1528879556265661,-4,12,-14,-14,-1,10,-1,-1
1528879556280621,17,12,25,25,18,16,6,7
1528879556280621,-1,1,0,-5,1,-6,-2,-1
1528879556288601,-16,-58,-37,-17,5,22,-7,-5
1528879556288601,-3,20,24,17,16,8,4,-2
1528879556303594,-15,-18,-27,-30,-76,-40,-14,-14
1528879556303594,21,-24,-32,-4,28,1,11,17
1528879556304558,21,28,62,41,16,11,7,10
1528879556304558,-13,-35,4,7,7,10,6,7
1528879556326529,10,28,-3,-1,1,-14,-9,-2
1528879556326529,-12,-14,-3,2,14,6,1,-1
1528879556326529,-27,-15,-28,-27,-27,-21,-11,-20
1528879556326529,-2,14,15,19,33,8,-4,-3
1528879556340516,3,-4,3,3,1,9,15,3
1528879556340516,3,48,22,0,-8,10,-7,-8
1528879556348493,14,15,-10,0,28,-26,-4,5
1528879556348493,-3,35,14,-2,9,-9,-15,-4
1528879556363455,-3,11,1,-10,-24,-1,4,1
1528879556363455,4,-11,9,16,7,37,6,0
1528879556364405,11,-6,-11,1,46,-2,9,6
1528879556364405,18,5,-1,6,-18,8,6,6
1528879556378415,6,-7,5,-1,6,5,2,6
1528879556378415,-7,-19,-6,-7,-15,-20,-1,-4
1528879556385400,-1,10,-19,-7,-1,-3,-7,-5
1528879556385400,-3,5,2,4,-17,12,1,-5
1528879556400301,-16,-24,-3,-3,-10,-13,2,1
1528879556400301,-9,0,10,1,-10,-1,-8,-8
1528879556408332,19,37,-1,-8,49,13,-3,6
1528879556408332,-6,-42,-14,-4,-70,-43,-2,1
1528879556423295,8,1,-9,-1,5,20,-4,0
1528879556423295,2,16,15,18,28,5,7,6
1528879556424238,8,-1,3,-1,-5,-3,4,3
1528879556424238,-7,-19,-9,-1,14,1,-7,-6
1528879556438254,-18,-37,-16,-13,-10,-8,-1,-5
1528879556438254,-9,-51,-11,-2,2,2,2,2
1528879556445236,8,-6,19,21,-7,12,2,5
1528879556445236,-6,2,20,12,37,-3,2,-5
1528879556460196,-1,-2,1,15,20,-4,1,-1
1528879556460196,-6,-6,-10,-3,-23,-1,0,-2
1528879556469162,3,12,3,7,27,13,8,4
1528879556469162,-2,-23,-29,-29,-58,-37,-11,-2
1528879556484103,17,38,24,-11,1,-17,-4,3
1528879556484103,-4,-7,8,8,21,16,-5,-8
1528879556484103,-20,-20,-5,-8,-14,-25,0,-2
1528879556484103,0,-15,-25,-22,-10,40,-1,-2
1528879556498095,-3,3,-2,0,23,-8,0,-3
1528879556498095,-4,-29,-22,-8,49,15,7,8
1528879556505078,0,22,14,4,-25,-17,-4,-2
1528879556505078,3,3,19,17,0,12,7,5
1528879556519983,2,-9,-11,-1,-8,-3,0,0
1528879556519983,9,-4,-30,-33,-9,-15,0,5
1528879556529210,-8,-15,8,22,32,36,9,3
1528879556529210,-8,0,33,15,-18,-21,2,3
1528879556544185,19,27,-1,-15,-9,5,0,-1
1528879556544185,-2,1,0,-4,14,-13,-2,-1
1528879556544916,-2,-6,-15,-10,11,4,-7,-3
1528879556544916,4,3,-2,-10,-36,-2,2,2
1528879556558165,-10,-22,1,17,30,15,5,-1
1528879556558165,12,35,8,6,-14,-7,-7,-3
1528879556566018,-11,-8,8,9,-17,-6,-2,-6
1528879556566018,-4,1,4,2,19,12,-1,1
1528879556581087,-8,-5,-17,-17,5,5,0,-2
1528879556581087,6,19,-5,-7,-7,-29,3,-1
1528879556589059,-4,-8,-2,-5,-21,5,-3,-2
1528879556589059,0,-2,-10,-14,49,15,1,-1
1528879556604018,2,5,4,-3,-2,-4,-5,-3
1528879556604018,-16,-37,5,7,-27,-3,1,0
1528879556605013,21,31,1,-10,-34,0,3,0
1528879556605013,7,10,-6,5,22,0,2,1
1528879556617720,0,-7,6,2,-9,-5,-7,-1
1528879556617720,-7,3,-2,-1,2,1,-3,-5
1528879556625962,-2,-4,-12,-9,3,-7,-5,-3
1528879556625962,7,8,-3,-11,-13,4,4,0
1528879556641281,0,-4,10,29,16,1,3,3
1528879556641281,5,14,12,-3,-19,-10,-2,-1
1528879556649303,-2,-8,-9,-6,-25,0,-6,-1
1528879556649303,-1,4,-4,-4,11,-27,-6,-4
1528879556663901,-5,-2,-9,-7,-13,36,6,-1
1528879556663901,-5,-8,-7,2,21,-23,-4,-3
1528879556663901,-3,-11,2,-7,-11,-12,3,0
1528879556663901,7,12,-7,1,59,7,-6,-5
1528879556678299,2,7,1,-10,-80,-4,0,3
1528879556678299,-4,-2,1,0,-12,3,-2,-1
1528879556685841,4,5,1,5,11,5,3,2
1528879556685841,-5,-12,4,0,17,4,4,1
1528879556701045,2,7,-8,-5,23,-10,-1,-1
1528879556701045,6,5,0,11,-9,17,8,2
1528879556709019,-4,7,0,-17,-25,-24,-14,-6
1528879556709019,-5,-12,-5,-3,5,9,3,0
1528879556723741,-4,8,1,4,8,-7,-4,-2
1528879556723741,-12,-6,-1,6,-8,-3,-3,-3
1528879556724738,-1,-7,-1,-3,0,10,4,2
1528879556724738,3,1,0,7,8,1,2,2
1528879556737703,-2,-8,-5,-11,-13,-11,-6,-5
1528879556737703,-5,-2,-3,-14,-15,13,5,0
1528879556745701,3,2,5,23,11,-17,-7,-3
1528879556745701,0,1,3,-2,-16,6,0,0
1528879556760889,6,8,2,3,-2,-1,4,0
1528879556760889,4,2,1,-3,6,-16,-5,0
1528879556768921,2,-2,-2,-3,-25,14,0,1
1528879556768921,-6,-9,-3,8,42,6,0,-1
1528879556783458,-5,-8,1,-2,-9,-4,-3,-3
1528879556783458,4,14,-2,16,8,12,9,1
1528879556784428,-3,-6,3,-14,-2,-24,-9,-1
1528879556784428,3,9,2,1,-27,-1,4,3
1528879556798704,-3,-8,-1,6,10,0,-3,1
1528879556798704,4,-3,-1,-7,3,9,4,1
1528879556805414,-6,0,-1,4,-3,-11,-18,-7
1528879556805414,-6,-17,-2,4,18,16,6,1
1528879556821679,-13,-29,-6,-10,-1,-20,-7,-4
1528879556821679,36,74,4,-3,0,-4,-4,-1
1528879556829024,-3,-15,-4,-5,1,13,10,2
1528879556829024,1,4,7,9,-21,-23,-8,-2
1528879556843041,0,0,4,10,17,14,5,1
1528879556843041,-6,-17,-1,-18,-14,-12,-9,-2
1528879556851981,-2,-2,-7,-6,19,10,5,1
1528879556851981,5,15,0,-4,-27,2,3,0
1528879556858324,-1,-2,0,8,-8,1,5,1
1528879556858324,-5,-12,-1,3,9,7,0,1
1528879556865383,4,5,1,-8,-7,-10,3,-1
1528879556865383,-4,-10,-4,-3,12,-15,-12,-6
1528879556881290,4,10,4,5,14,3,-2,0
1528879556881290,-2,-11,-2,4,-21,-8,-3,0
1528879556889485,-7,-13,2,5,12,16,6,3
1528879556889485,7,18,3,4,1,-5,-2,-3
1528879556903703,10,15,-8,-7,-10,1,1,0
1528879556903703,-13,-19,2,-15,-3,2,-2,1
1528879556911980,3,9,-5,2,-5,8,11,3
1528879556911980,-10,-12,0,0,-10,-4,-1,-1
1528879556917813,7,9,4,1,11,0,-3,0
1528879556917813,-9,-8,2,10,13,1,-3,-2
1528879556926133,-4,-7,-5,-5,9,5,-1,-2
1528879556926133,-3,3,1,7,-11,-6,-3,-1
1528879556941214,-6,-7,0,-2,0,9,2,1
1528879556941214,-14,0,-4,0,1,-1,-1,-2
1528879556949276,12,10,3,-4,-3,0,1,2
1528879556949276,-4,2,-3,-4,11,19,6,0
1528879556963426,5,-13,1,-5,0,0,9,1
1528879556963426,-12,-26,-2,2,-25,-18,-16,-6
1528879556971399,17,32,1,-6,2,4,-4,-1
1528879556971399,3,4,-4,-3,-10,-3,1,4
1528879556978366,-2,3,3,5,1,4,7,1
1528879556978366,7,-5,2,4,37,6,2,-1
1528879556985409,-7,-15,-4,-3,-12,-19,-9,-2
1528879556985409,-4,-13,-1,-5,3,7,-1,0
1528879557000369,10,43,-2,-5,2,-8,-5,-4
1528879557000369,7,-1,-4,-2,-9,-3,-2,0
1528879557008575,-11,5,1,12,13,9,6,2
1528879557008575,3,0,6,4,-14,-3,-3,0
1528879557023049,-23,-31,-5,-3,10,1,0,0
1528879557023049,23,28,4,5,18,13,7,4
1528879557031233,-12,-15,-1,-1,-15,-5,-4,-1
1528879557031233,10,6,4,13,9,-6,-7,-4
1528879557046216,-10,-8,3,5,9,6,-3,0
1528879557046216,-8,-8,-2,-2,-9,-8,0,-1
1528879557046952,-6,-28,-7,-9,18,15,5,2
1528879557046952,5,9,-5,-2,-11,0,2,0
1528879557061146,7,15,7,-1,8,-1,-5,-1
1528879557061146,12,10,-4,4,19,1,1,1
1528879557069154,-5,-6,-12,-18,-52,-10,-2,-5
1528879557069154,-8,-8,5,-7,45,9,-5,-3
1528879557082856,3,1,9,15,-49,-6,-3,0
1528879557082856,-1,-4,3,4,29,-1,6,-2
1528879557091426,8,1,-1,1,-17,-8,2,-1
1528879557091426,-9,-11,-16,-16,-15,-10,-12,0
1528879557106119,-12,-3,-9,-21,11,1,-10,-7
1528879557106119,13,13,13,19,15,0,-4,1
1528879557107120,15,-27,4,9,-16,-8,-2,-5
1528879557107120,-9,-7,-9,-12,27,-1,9,6
1528879557121188,-7,-14,-3,0,-5,4,3,1
1528879557121188,3,7,14,11,-39,-4,-1,0
1528879557136141,-8,-5,-2,-4,20,5,-2,0
1528879557136141,-2,-3,-8,-4,-29,1,-3,-2
1528879557143132,-1,-7,-14,-15,23,-3,-2,-1
1528879557143132,-9,-11,-8,-6,-15,-3,-4,-6
1528879557159114,8,24,14,9,-9,4,-1,0
1528879557159114,-4,-5,4,5,34,-2,6,3
1528879557166061,-13,-32,-7,0,-6,-5,0,-1
1528879557166061,18,30,-3,-8,-5,4,7,4
1528879557167069,6,7,1,7,-8,-1,-5,-1
1528879557167069,-4,-2,-6,-12,-17,-2,1,-1
1528879557180861,8,22,11,8,-26,-6,1,1
1528879557180861,-16,-34,-6,-3,15,3,1,0
1528879557189082,-8,-12,-12,-14,-16,-7,-3,-2
1528879557189082,13,10,8,16,-8,8,10,6
1528879557212314,6,13,-1,-4,11,2,-2,-1
1528879557212314,-15,-12,-8,-7,16,0,-3,-4
1528879557213234,-4,7,0,4,7,-5,-6,0
1528879557213234,-3,-3,9,12,20,6,6,1
1528879557234531,9,2,-1,3,-25,-4,-3,1
1528879557234531,-4,11,-4,-12,-14,-8,-4,-2
1528879557235267,-11,-14,1,3,12,13,13,3
1528879557235267,9,8,1,2,-20,-6,-3,1
1528879557240516,-5,0,-2,0,22,3,0,-3
1528879557240516,-3,-7,-8,-7,11,-7,-7,-4
1528879557249307,0,8,-1,-10,-21,-7,-6,1
1528879557249307,-5,-17,-3,0,9,3,-2,-5
1528879557263074,8,23,-1,-2,-24,-9,-5,1
1528879557263074,-9,-11,-2,0,19,5,0,3
1528879557271853,6,11,1,0,0,-2,4,1
1528879557271853,-1,7,3,3,-5,-12,-2,-4
1528879557286879,-9,-24,-2,-1,-12,-1,5,0
1528879557286879,-5,7,3,-1,-14,-11,-7,-3
1528879557286879,4,9,2,10,14,9,3,1
1528879557286879,2,-7,1,-10,30,1,-11,0
1528879557309810,7,31,-2,-6,-29,-13,-1,-2
1528879557309810,-4,-7,-8,-9,-34,4,-1,0
1528879557310820,-12,-8,-2,-2,8,-10,-2,-2
1528879557310820,5,28,-1,0,-1,-9,-9,-5
1528879557332691,-7,-19,-2,3,19,-6,-8,0
1528879557332691,3,-3,3,-1,-14,8,8,3
1528879557332691,3,2,-3,-3,-20,-3,1,0
1528879557332691,-9,-12,-9,-9,6,-1,4,-2
1528879557346451,-2,-9,3,7,26,9,2,1
1528879557346451,20,41,9,11,6,-4,-1,0
1528879557346451,-4,-13,5,1,-2,2,-4,-3
1528879557346451,-3,5,3,5,-26,-7,-5,-3
1528879557360726,3,-11,-3,-6,5,10,6,2
1528879557360726,-10,-21,-10,-12,-8,-9,-1,-2
1528879557368429,2,8,-3,1,17,6,4,3
1528879557368429,-1,2,-4,-10,-33,-1,-4,-2
1528879557383351,-5,-8,0,1,8,-1,-3,-5
1528879557383351,-5,-5,1,4,-9,1,-1,-2
1528879557391498,5,4,0,0,9,2,-1,-1
1528879557391498,-1,-9,-1,4,0,-8,-3,-4
1528879557406966,1,-2,-3,-1,28,5,3,3
1528879557406966,0,0,-4,-10,-20,0,1,-1
1528879557406966,-10,-7,0,0,6,3,-3,-4
1528879557406966,11,15,4,6,-5,7,5,2
1528879557420818,5,-6,5,2,-8,-2,1,0
1528879557420818,-1,-3,-1,2,21,-6,-1,0
1528879557428798,3,-14,-5,-5,-29,-4,1,2
1528879557428798,1,11,-3,-6,8,5,-6,-2
1528879557443586,-9,-3,-3,2,41,5,2,-4
1528879557443586,3,-4,-2,-4,-52,-2,1,1
1528879557459480,5,14,3,-2,26,-10,2,0
1528879557459480,-1,-13,3,14,5,4,2,1
1528879557466306,8,9,3,-2,-10,6,2,2
1528879557466306,-11,-20,-3,3,30,6,4,-1
1528879557467303,1,20,-3,-6,-20,-7,-5,-3
1528879557467303,-2,-1,1,1,7,6,4,3
1528879557480593,6,5,-1,-2,1,4,1,2
1528879557480593,-2,-5,-1,2,19,3,5,1
1528879557488844,-5,-9,-2,1,-19,-10,-7,-2
1528879557488844,4,2,-1,-5,-5,9,1,0
1528879557503777,-1,-1,-2,-3,-4,-5,-2,-3
1528879557503777,-1,0,3,3,2,-6,3,1
1528879557511865,2,2,0,1,17,10,4,2
1528879557511865,-5,-2,-1,1,1,-13,-2,-2
1528879557526636,3,-2,1,-5,-22,9,-8,-2
1528879557526636,1,6,2,4,4,-13,-7,-4
1528879557526636,-4,-6,-2,-2,11,-5,-6,-3
1528879557526636,-4,-11,-1,-3,-9,-2,2,0
1528879557540964,5,11,-3,-1,-16,-4,3,3
1528879557540964,-3,0,0,0,15,3,-4,-3
1528879557548897,-7,-12,-4,-2,-7,-4,0,-2
1528879557548897,5,5,-2,-5,-10,-4,-6,-2
1528879557563568,-6,-7,-1,5,20,-2,-7,-2
1528879557563568,0,-2,-4,-4,-20,7,4,2
1528879557571518,7,21,2,-1,5,1,3,0
1528879557571518,-1,-3,-1,1,3,-7,-3,2
1528879557585871,0,-4,2,-3,-16,4,4,0
1528879557585871,2,2,3,9,24,3,-7,-1
1528879557594499,-10,-9,-4,-4,-3,-8,1,0
1528879557594499,5,0,-1,-4,-13,-15,-3,-2
1528879557600450,-3,-8,-3,0,2,9,0,-2
1528879557600450,5,12,-1,-5,-13,1,3,2
1528879557609418,-3,-5,0,3,25,6,1,3
1528879557609418,-4,-4,-4,-3,4,4,3,-8
1528879557623651,-2,-7,-3,-3,-25,-24,0,2
1528879557623651,0,4,4,1,-10,8,2,0
1528879557632599,6,-5,-2,1,4,9,3,2
1528879557632599,-6,-2,-8,-9,-9,2,-2,-3
1528879557645576,-4,-3,-2,-3,37,-2,0,-2
1528879557645576,8,8,6,3,-55,-7,-2,3
1528879557654297,5,9,6,9,7,2,-1,-1
1528879557654297,-11,-21,-4,-1,-4,3,-2,-2
1528879557660281,9,17,-4,-6,-3,-7,0,-1
1528879557660281,-5,-10,-9,-10,16,0,1,2
1528879557669674,-1,-2,3,0,-2,1,-3,-4
1528879557669674,5,3,8,11,9,0,-3,-1
1528879557682656,-5,1,3,4,-7,-1,-3,-1
1528879557682656,1,-2,-1,3,15,-2,-2,0
1528879557691910,-4,-10,-8,-6,-4,2,-2,-1
1528879557691910,2,2,-1,-4,17,3,6,5
1528879557706194,-1,-3,0,4,-13,-4,-4,-2
1528879557706194,-5,-2,0,-3,-18,-6,-6,-5
1528879557714301,-4,-6,-2,-4,14,3,-2,-2
1528879557714301,3,3,-5,-4,5,0,1,3
1528879557721190,0,3,-4,-4,2,0,1,-1
1528879557721190,-5,-15,-5,3,12,3,-5,-3
1528879557730135,3,11,14,8,-12,2,2,0
1528879557730135,5,7,16,11,22,9,2,2
1528879557743245,1,0,-6,-7,-19,-5,-3,-1
1528879557743245,-6,-11,-8,-8,-3,-1,2,0
1528879557751948,1,7,-12,-3,-7,-1,1,0
1528879557751948,-1,-5,-3,2,-8,-5,-1,1
1528879557765981,8,8,9,6,8,0,-3,0
1528879557765981,0,4,3,7,6,5,2,0
1528879557774931,-4,-6,3,0,1,1,-2,-1
1528879557774931,-7,-5,-12,-12,-2,-4,1,-2
1528879557789206,-5,-6,-5,-5,-5,7,-1,-1
1528879557789206,1,7,5,0,11,-7,-5,-3
1528879557790893,0,-2,-3,0,-5,1,1,2
1528879557790893,-3,-3,-9,-7,-13,-6,-5,-3
1528879557803642,-1,-2,21,2,-4,-4,0,0
1528879557803642,0,3,7,-3,7,2,1,-1
1528879557811999,-2,-2,-8,-8,-4,0,-4,-3
1528879557811999,2,3,11,19,-3,-1,0,2
1528879557826048,-2,-5,-13,4,2,-2,0,0
1528879557826048,0,-2,-7,-13,-17,-3,0,0
1528879557834664,-4,-10,-25,-35,9,-4,-2,-3
1528879557834664,0,1,4,21,-4,0,0,-2
1528879557840892,2,11,34,30,4,3,3,3
1528879557840892,5,6,18,12,16,7,3,0
1528879557849628,1,-3,-3,-7,-2,-1,0,2
1528879557849628,-2,-12,-67,-38,-11,-2,-2,-2
1528879557863653,-7,-3,37,-2,0,7,3,-1
1528879557863653,2,6,-11,11,-2,-9,-5,-3
1528879557871804,1,-5,-8,-1,4,4,2,1
1528879557871804,-1,8,61,16,-5,-1,1,1
1528879557886034,-1,-4,-48,-41,-10,-10,-4,-2
1528879557886034,0,1,38,43,6,5,3,1
1528879557894330,1,1,-7,4,3,-2,-1,1
1528879557894330,-4,-13,-25,-17,-4,1,1,1
1528879557900276,-3,-3,-5,6,-1,0,-2,-2
1528879557900276,5,9,-8,-15,4,-2,-1,-1
1528879557909558,-4,-6,-1,5,-8,-5,2,-2
1528879557909558,-1,1,5,-1,-5,2,-3,-1
1528879557923271,-5,-8,-21,-23,-5,-4,0,-2
1528879557923271,-4,-8,-34,-15,2,3,0,0
1528879557931986,0,11,60,38,0,4,4,2
1528879557931986,4,5,9,0,1,-8,-1,0
1528879557946122,1,-1,-27,-5,1,1,0,0
1528879557946122,-6,-17,-58,-28,-3,5,4,0
1528879557954753,-2,16,87,32,-6,-5,-4,-3
1528879557954753,3,10,16,-4,-1,5,1,1
1528879557970033,4,8,5,6,4,-4,-1,2
1528879557970033,0,-14,-38,16,3,-2,0,0
1528879557971033,-2,-8,-34,-29,2,-2,-1,-2
1528879557971033,0,1,4,10,-2,-1,0,-2
1528879557983007,0,-8,-41,-32,-2,0,1,0
1528879557983007,-2,6,62,23,-3,-3,-5,-3
1528879557991977,2,4,-2,4,0,-5,-4,-1
1528879557991977,-2,-1,-2,-2,-1,4,2,1
1528879558005953,-1,-4,-16,-5,-2,-3,-2,-1
1528879558005953,-4,-1,-1,-12,0,-1,-4,-2
1528879558015120,-2,-2,-3,-3,-4,1,0,-1
1528879558015120,-2,-13,-68,-28,-5,-6,-3,-3
1528879558030000,-1,4,62,41,1,1,-2,-1
1528879558030000,2,14,33,12,6,1,2,1
1528879558030911,0,-14,-98,-26,-3,4,-2,-1
1528879558030911,-3,-4,55,-12,-3,3,1,1
1528879558043100,-1,9,2,35,3,1,-1,-3
1528879558043100,4,8,47,15,3,-3,1,1
1528879558052141,2,1,-8,-9,4,2,2,1
1528879558052141,-1,-8,-51,-14,-4,-2,0,0
1528879558065508,-6,-14,-21,-28,-9,-5,-4,-4
1528879558065508,-3,2,6,-18,-6,-6,-4,-3
1528879558074463,-1,2,1,13,3,-1,1,1
1528879558074463,4,15,52,40,7,3,1,1
1528879558089303,4,7,19,12,4,7,5,3
1528879558089303,-3,-14,-65,-33,-6,-7,-5,-3
1528879558091037,-4,-11,3,-26,-8,-6,-5,-4
1528879558091037,-2,4,27,34,1,-3,-2,-2
1528879558103574,1,5,13,-1,7,3,1,2
1528879558103574,0,-4,-22,6,3,3,2,1
1528879558112672,0,-1,-7,-5,-4,-4,-2,0
1528879558112672,-1,2,19,2,-2,-5,-1,-1
1528879558125941,-2,-3,-15,-11,-4,-3,-1,0
