timestamp,emg1,emg2,emg3,emg4,emg5,emg6,emg7,emg8
1528878465690637,-1,0,1,0,-1,1,-1,-1
1528878465690637,-1,-1,-2,0,-1,0,-1,-1
1528878465698616,-1,-2,1,-2,-1,-1,-1,-1
1528878465698616,0,-2,-1,-2,0,-1,-1,0
1528878465703603,-2,0,-2,0,-1,-1,0,0
1528878465703603,-1,1,-1,1,0,-2,-1,-1
1528878465711581,0,0,-1,-1,-1,1,0,0
1528878465711581,1,-3,-1,-2,-2,0,-2,0
1528878465727539,0,0,-2,-1,0,-1,0,-1
1528878465727539,-1,-2,0,-2,0,0,-1,0
1528878465733522,0,-1,-1,0,-1,-2,0,0
1528878465733522,-1,-1,-1,0,-2,0,0,0
1528878465748482,-1,-1,0,-2,0,-1,-1,-2
1528878465748482,1,-1,-2,-1,-1,1,0,-1
1528878465756461,-3,-1,-2,-2,-1,-2,-3,-2
1528878465756461,0,2,1,0,2,0,0,0
1528878465774413,1,1,4,6,1,1,2,2
1528878465774413,-1,-2,-2,0,1,-5,-3,-1
1528878465779400,-1,0,-3,-5,-11,1,1,1
1528878465779400,-2,0,-2,-2,3,0,-1,-1
1528878465793363,-2,-1,-2,-1,14,-2,-2,0
1528878465793363,1,0,1,-6,-49,-1,2,0
1528878465801342,-2,0,-2,3,6,1,-2,-1
1528878465801342,0,-1,-1,0,-6,0,-1,-1
1528878465809321,0,-2,-2,-3,-4,-2,-1,-1
1528878465809321,-3,0,-2,0,23,-1,-1,-1
1528878465819293,0,-1,1,-1,-10,0,0,-1
1528878465819293,0,0,0,2,-12,-5,-2,1
1528878465831261,1,-2,-1,-1,2,0,0,-1
1528878465831261,-2,-1,0,3,-4,-2,0,0
1528878465839240,6,3,-1,-3,7,1,0,-1
1528878465839240,1,3,4,9,14,6,2,1
1528878465854199,-1,-4,-3,-4,-10,-3,-3,-1
1528878465854199,-2,1,0,-1,5,1,-1,0
1528878465861185,-11,2,-1,-1,12,2,1,1
1528878465861185,15,3,-2,-8,-47,-1,0,-4
1528878465872153,5,7,-1,1,1,-3,-1,5
1528878465872153,-2,-2,0,0,4,4,2,0
1528878465876143,-1,-4,1,6,-6,0,-1,-1
1528878465876143,-9,-2,-3,-6,-5,-4,-1,-2
1528878465891102,-7,-4,0,2,21,4,-1,-2
1528878465891102,6,-1,-1,-3,-23,-7,-4,0
1528878465899081,4,2,1,1,12,-1,1,-2
1528878465899081,-1,-3,-1,3,54,4,1,-3
1528878465914057,-4,0,-4,-7,-61,-9,-2,-1
1528878465914057,-3,-2,1,1,13,2,0,0
1528878465923016,-3,-3,-1,-2,12,-5,-2,-3
1528878465923016,0,1,-2,1,3,-2,-1,-3
1528878465929000,-1,-1,-3,-5,5,3,0,-3
1528878465929000,-4,-2,-1,-2,3,-1,-3,-3
1528878465935981,2,-1,1,1,-19,-3,-2,0
1528878465935981,3,0,-1,-2,18,4,0,4
1528878465951948,-1,-5,1,2,12,7,1,-1
1528878465951948,5,0,-1,-1,8,-4,-2,5
1528878465958922,-25,0,0,2,11,1,-2,-13
1528878465958922,3,-6,1,0,4,-5,-4,3
1528878465974879,11,0,-9,-9,32,2,-4,-1
1528878465974879,-5,6,10,25,52,5,-3,-3
1528878465995823,9,1,-6,-19,-4,2,9,8
1528878465995823,-20,-5,4,19,5,-10,-7,-6
1528878466003839,9,-2,-3,-4,17,5,-2,1
1528878466003839,-4,1,-3,0,0,4,2,1
1528878466011782,-2,1,1,-7,-9,4,0,-1
1528878466011782,4,-1,-5,-13,3,-6,-2,0
1528878466026740,-3,-3,-4,-3,-60,-9,-5,-2
1528878466026740,3,4,3,3,5,8,3,3
1528878466033722,-4,-3,3,4,-1,-1,0,1
1528878466033722,-7,-8,-8,-15,26,1,-1,-3
1528878466048681,-1,3,1,5,2,0,2,0
1528878466048681,12,11,2,-4,-22,3,0,1
1528878466056661,-6,-5,-4,0,-2,-7,0,-4
1528878466056661,8,5,2,-5,-22,4,7,3
1528878466071621,10,0,-5,-12,-26,-12,-3,2
1528878466071621,11,9,8,12,33,-3,-3,2
1528878466086580,-10,-7,-6,-8,-30,-2,0,1
1528878466086580,-20,-8,-4,2,19,14,5,-6
1528878466093562,-8,-3,-3,-4,-1,-10,-2,-3
1528878466093562,-4,-5,-2,-5,-10,-3,-5,-2
1528878466108521,18,6,3,18,17,-2,-1,0
1528878466108521,-11,-13,-3,-16,2,-5,-4,-3
1528878466116499,10,10,6,3,-14,8,4,6
1528878466116499,-6,-5,-1,-8,-4,2,-1,-3
1528878466131459,-24,-7,3,4,-3,-4,-4,-7
1528878466131459,16,0,-8,-15,-67,-5,-1,1
1528878466146421,1,1,-2,-7,0,2,-2,-1
1528878466146421,-16,0,-3,4,18,-5,-2,-4
1528878466153402,28,-2,1,3,-3,-3,-2,8
1528878466153402,-35,0,-2,-3,-10,3,8,-3
1528878466168362,19,3,-1,-8,25,0,-1,4
1528878466168362,3,-5,2,5,-9,-3,-3,-4
1528878466176341,-6,9,0,0,25,10,-6,-4
1528878466176341,15,1,-1,7,9,-6,3,2
1528878466191300,-1,-6,-7,-11,-86,-12,-4,-7
1528878466191300,-9,-8,-6,-5,17,2,-5,-3
1528878466206260,0,4,13,-1,27,2,1,-4
1528878466206260,1,-2,-1,5,14,4,-2,-1
1528878466214238,-5,-2,-2,11,21,6,4,1
1528878466214238,0,1,1,8,23,2,-2,-4
1528878466229197,-4,-2,-3,-11,-32,-11,-5,-5
1528878466229197,-7,0,-2,0,4,-1,-1,3
1528878466236179,16,-4,0,-2,6,-4,1,4
1528878466236179,10,-1,2,-4,7,10,6,-3
1528878466251140,-5,6,0,7,45,2,12,5
1528878466251140,-2,1,-4,-15,-88,-25,0,0
1528878466266119,5,-7,-5,4,64,22,-14,-3
1528878466266119,-17,-18,-4,1,6,-8,37,0
1528878466274078,-16,-5,4,1,22,-11,-9,-9
1528878466274078,9,3,1,16,13,27,-9,1
1528878466289040,4,6,1,5,11,27,1,0
1528878466289040,-7,-5,-11,-23,17,5,5,-5
1528878466296022,-20,-1,22,35,-5,-11,-20,-3
1528878466296022,-4,3,13,22,-5,-31,3,-4
1528878466310979,5,-9,-17,-26,-10,6,16,6
1528878466310979,-9,8,1,-8,7,5,13,3
1528878466325939,7,0,-3,-2,-13,-15,-5,-3
1528878466325939,11,5,-1,-1,18,-8,-21,-1
1528878466333921,-37,-28,-5,1,9,8,-11,-14
1528878466333921,18,8,-7,-17,-70,-5,5,12
1528878466348882,13,1,-3,-2,44,1,11,-1
1528878466348882,-9,2,4,4,-36,-7,-6,-6
1528878466356861,14,6,4,5,14,7,-1,0
1528878466356861,-1,-11,0,8,44,3,-3,-6
1528878466370823,-2,5,1,-3,2,9,10,4
1528878466370823,-6,-7,-8,-13,26,-3,-6,-5
1528878466387027,18,-4,-4,-2,-2,-7,-11,-8
1528878466387027,-6,8,1,19,44,19,18,6
1528878466393758,12,14,4,-2,29,10,11,12
1528878466393758,-42,-11,-6,-12,-21,-5,-6,0
1528878466408983,14,10,2,7,-6,0,-1,-9
1528878466408983,14,0,-5,-6,-13,-1,10,6
1528878466416967,-4,-10,4,10,42,10,-3,-4
1528878466416967,26,3,0,-5,-55,-9,-3,1
1528878466430972,22,3,-11,-11,-8,-2,-3,-1
1528878466430972,3,-1,2,7,52,13,2,3
1528878466445907,-5,-8,-3,-5,-14,-19,-5,-4
1528878466445907,1,-7,-16,-10,-11,-8,-7,0
1528878466453884,16,21,19,9,8,5,1,2
1528878466453884,-7,0,4,-4,5,4,-6,-8
1528878466468888,27,8,0,6,3,11,21,23
1528878466468888,-32,-20,2,0,-6,-13,-23,-19
1528878466476074,-23,-72,-43,-26,3,-11,-12,-18
1528878466476074,25,37,-10,-2,3,-8,0,1
1528878466491783,-9,6,17,14,-70,-5,-12,-10
1528878466491783,-28,-51,-43,-2,33,0,8,-3
1528878466506743,-19,-25,0,-20,-30,-15,-15,-5
1528878466506743,15,10,-7,6,2,-4,8,1
1528878466513726,-8,11,5,-17,-17,-12,-8,-1
1528878466513726,2,1,10,21,26,6,-6,-4
1528878466528685,-9,-2,0,20,-4,-3,-5,-2
1528878466528685,0,-6,-20,-17,-2,2,-4,-1
1528878466536664,5,13,7,0,-12,-8,4,3
1528878466536664,2,5,6,-5,7,6,-2,2
1528878466551624,-10,-5,-17,0,-8,-3,7,3
1528878466551624,9,0,4,-7,-14,-9,-5,-2
1528878466566787,-22,-14,-2,3,14,5,-2,8
1528878466566787,-2,0,-13,-23,39,6,5,-7
1528878466573770,11,10,-15,-5,12,-8,-9,-9
1528878466573770,9,21,49,28,37,10,-4,10
1528878466588741,9,-10,-2,-8,-8,-10,-1,-1
1528878466588741,-8,-17,-24,-17,-2,-7,-10,-8
1528878466603986,-1,-9,-16,-5,6,4,-2,-4
1528878466603986,4,12,14,3,-22,-19,-11,-3
1528878466611670,-4,13,6,3,10,3,6,3
1528878466611670,0,-2,-1,-5,-14,0,-2,0
1528878466626632,-1,-1,-3,3,-4,-3,3,0
1528878466626632,0,-4,-9,-14,-5,4,0,-4
1528878466634649,3,2,0,10,-4,6,3,4
1528878466634649,1,3,11,-4,8,0,-1,-1
1528878466648875,2,6,12,24,14,3,6,4
1528878466648875,-6,-4,-18,-24,-1,4,4,-1
1528878466663835,-2,2,4,11,-7,-9,-2,-3
1528878466663835,2,-2,2,-9,-2,-2,-2,-2
1528878466671814,-1,3,-1,-4,3,4,2,2
1528878466671814,-3,0,0,4,-7,-1,-2,0
1528878466686796,1,-2,-4,-5,-9,0,-1,-2
1528878466686796,3,2,10,4,1,2,0,0
1528878466693755,-1,0,-7,-6,-4,0,1,-1
1528878466693755,-1,-2,3,-2,-15,-3,0,0
1528878466708977,0,2,5,13,5,0,-2,0
1528878466708977,1,0,-3,3,0,5,1,-1
1528878466716950,-1,5,2,1,-7,0,3,2
1528878466716950,1,-2,2,3,-3,0,2,-2
1528878466732078,0,0,-1,-6,14,3,1,1
1528878466732078,-7,-3,2,7,-8,-1,-1,-2
1528878466746554,3,-5,-3,-4,-11,-4,0,-1
1528878466746554,11,4,1,4,3,4,2,1
1528878466753992,-3,3,0,-4,-3,-4,-1,2
1528878466753992,-2,-8,0,8,5,2,-1,-1
1528878466768998,-3,6,-1,-6,-11,-4,-1,-3
1528878466768998,2,2,0,-5,-7,-1,-2,-2
1528878466776746,-1,-8,1,5,6,1,1,2
1528878466776746,17,25,0,0,2,-1,1,3
1528878466791706,24,17,-4,-4,-10,-4,-9,-9
1528878466791706,-19,-9,-1,-2,6,0,-1,7
1528878466806326,15,2,3,1,1,4,7,1
1528878466806326,0,-3,-3,-1,3,1,0,-1
1528878466813311,-17,-8,-4,-7,4,-4,0,1
1528878466813311,-2,-3,4,10,-1,1,-2,-2
1528878466829268,7,6,-2,-3,-9,-7,-7,-2
1528878466829268,-4,3,-2,2,6,3,3,0
1528878466836299,-1,-5,0,-5,-6,1,2,0
1528878466836299,6,2,-3,-1,2,-2,-4,-4
1528878466851210,6,1,-2,2,6,6,-1,1
1528878466851210,3,3,0,-3,-7,-7,0,0
1528878466866170,-4,-3,-2,-3,-2,4,3,1
1528878466866170,-6,-4,-2,1,2,4,1,-1
1528878466874162,6,3,-1,1,-6,-7,-6,-1
1528878466874162,-14,-6,-2,0,14,9,0,0
1528878466889109,10,-4,0,-1,-18,-6,-3,-2
1528878466889109,1,3,-3,-4,-7,-11,-4,-2
1528878466896090,-7,-5,0,-4,-9,-6,-3,-2
1528878466896090,8,-3,-2,-2,25,-6,-5,-3
1528878466911050,-1,2,4,3,2,3,2,0
1528878466911050,-2,-1,1,3,-3,7,2,1
1528878466926010,-1,2,-1,0,21,-4,-2,-1
1528878466926010,0,-6,-5,0,0,0,-3,-2
1528878466934021,2,9,0,-1,-6,1,3,0
1528878466934021,-3,0,-2,-1,-6,2,1,-4
1528878466949005,0,1,2,3,0,-4,0,2
1528878466949005,-1,-11,-3,-1,-4,1,-2,3
1528878466955932,5,1,-2,-2,8,3,-1,-1
1528878466955932,0,1,-2,-1,-10,-4,2,-2
1528878466970890,-13,-6,-1,1,-24,-8,1,-1
1528878466970890,-3,-3,-1,-2,5,-6,-9,-5
1528878466985901,-8,-5,-3,-5,-12,-19,-9,-3
1528878466985901,-3,-1,-2,0,5,4,-6,-12
1528878466993854,3,4,-3,-4,-6,0,0,10
1528878466993854,5,-12,-3,0,-15,5,20,7
1528878467008842,4,7,0,0,25,3,-3,-4
1528878467008842,-7,2,1,0,-16,-3,2,6
1528878467016767,-2,-5,-3,-1,3,-1,-3,-4
1528878467016767,-2,1,0,0,0,0,-1,-1
1528878467031805,18,4,0,-1,3,1,0,5
1528878467031805,-9,5,2,-1,1,-8,-12,-8
1528878467046755,5,3,1,3,24,4,5,4
1528878467046755,-9,2,3,-2,-33,-4,-1,-3
1528878467053723,0,-4,1,4,16,8,3,-4
1528878467053723,3,0,0,9,2,4,2,5
1528878467068679,-3,-7,-2,-4,-6,0,-6,-8
1528878467068679,-8,1,-4,-3,7,-12,3,1
1528878467076661,3,-2,1,-3,4,9,-8,-7
1528878467076661,6,8,3,-3,1,-3,13,-5
1528878467091618,-4,-4,-7,-5,11,-13,11,1
1528878467091618,-2,-1,0,3,-23,2,-2,-3
1528878467106582,3,4,3,5,8,2,-4,-4
1528878467106582,5,4,3,-5,-8,-2,1,0
1528878467115554,-8,0,3,2,3,10,-1,-1
1528878467115554,2,-8,-4,-4,4,-3,-7,-1
1528878467129506,-1,3,-4,-7,-12,1,2,1
1528878467129506,4,1,1,5,3,3,-1,3
1528878467136499,-19,-7,-2,0,-2,-1,0,-3
1528878467136499,3,1,0,-2,-1,-2,0,1
1528878467151462,-3,-3,-1,0,-8,-1,4,1
1528878467151462,0,-6,1,0,7,4,5,5
1528878467166419,1,10,1,3,19,-3,4,-2
1528878467166419,-19,-9,-6,-8,-40,-11,-6,-3
1528878467189305,9,0,0,1,7,0,-6,-3
1528878467189305,9,0,-1,-2,-3,2,1,0
1528878467204303,2,14,3,1,0,0,4,-2
1528878467204303,6,5,-3,1,12,8,-1,4
1528878467211253,-7,-14,-12,-8,-10,-5,2,-5
1528878467211253,-53,0,4,2,3,-1,-5,-13
1528878467226470,5,2,6,5,9,7,4,5
1528878467226470,1,-8,-7,-8,4,-7,-6,-2
1528878467249297,5,3,-1,-10,-11,7,3,0
1528878467249297,1,-5,-2,-2,-8,-18,-7,3
1528878467257006,-15,6,-2,-8,-21,-12,-18,-12
