timestamp,emg1,emg2,emg3,emg4,emg5,emg6,emg7,emg8
1529302646395678,-6,-5,-4,-5,0,7,-7,-15
1529302646395678,11,7,2,1,-6,-13,-12,12
1529302646401662,0,-1,4,6,9,5,-17,-7
1529302646401662,-6,-1,-6,1,7,-2,13,-7
1529302646409641,3,4,1,-2,-4,-10,-14,13
1529302646409641,-10,-7,-8,-10,-9,3,6,-12
1529302646416623,0,3,5,2,-7,-8,11,7
1529302646416623,2,0,0,1,3,22,12,-12
1529302646432579,15,3,-3,0,21,11,28,23
1529302646432579,-8,5,8,10,13,5,1,2
1529302646439561,-4,-8,2,-5,-12,-12,-34,-7
1529302646439561,-6,-2,-1,-1,-17,-10,11,17
1529302646454523,-3,-9,-11,-7,-7,-9,-2,-27
1529302646454523,18,8,2,-5,0,16,37,30
1529302646462500,-9,-6,-8,-4,12,0,-7,-14
1529302646462500,-3,1,1,1,0,-5,0,-2
1529302646477459,-18,-15,-2,1,5,6,-9,-12
1529302646477459,14,-3,0,2,0,-16,-10,7
1529302646484446,2,4,-6,-4,-10,29,11,-13
1529302646484446,8,10,0,-4,1,-7,-16,-9
1529302646499400,-1,3,2,-1,-14,-13,-28,5
1529302646499400,-16,-11,-11,-6,16,-4,7,-15
1529302646507380,4,-7,8,11,7,-1,-25,5
1529302646507380,4,2,5,5,-3,-3,2,6
1529302646525332,-1,9,10,-4,-26,-1,-6,2
1529302646525332,2,-3,-10,-5,9,0,-1,-4
1529302646529320,-7,-1,-9,-13,-7,-11,4,0
1529302646529320,-1,-4,-3,4,8,-3,-22,-6
1529302646544281,-2,0,-3,-2,4,15,0,-16
1529302646544281,-3,-4,-7,-8,-8,-3,21,9
1529302646559241,0,-4,-13,-4,12,2,11,8
1529302646559241,-2,-1,-2,-6,-15,2,-8,-17
1529302646570211,1,3,-1,-2,5,-6,6,6
1529302646570211,0,0,1,3,3,-7,-6,0
1529302646582180,-4,1,7,2,1,16,-33,-20
1529302646582180,-6,-2,-5,0,1,0,33,17
1529302646589162,3,0,11,-1,-21,-13,9,6
1529302646589162,-1,-2,-1,-7,-8,-11,-18,-7
1529302646604122,0,2,-8,-29,-20,-12,8,5
1529302646604122,-6,-9,18,34,15,11,4,-4
1529302646620078,1,0,18,10,2,-5,-4,1
1529302646620078,0,-1,9,-2,-17,-6,-7,-8
1529302646627059,-1,-7,-62,-20,8,0,-1,0
1529302646627059,3,2,17,-17,-16,-12,-6,5
1529302646642019,-7,0,-4,8,5,-4,-7,7
1529302646642019,0,0,5,-4,-14,-14,-28,-14
1529302646649999,-25,-20,-7,1,4,10,27,9
1529302646649999,-7,-7,-11,-17,-9,-16,-21,-24
1529302646679918,-3,-1,2,32,14,-1,-3,-5
1529302646679918,-2,-5,-18,-8,6,14,9,-1
1529302646686899,-5,-6,-10,6,-1,4,7,4
1529302646686899,-1,3,28,-2,-12,-2,2,-1
1529302646694878,3,13,6,-8,-12,-19,-23,-6
1529302646694878,0,-3,-3,6,17,29,37,16
1529302646701859,-3,-6,-38,-22,-14,4,53,2
1529302646701859,4,2,7,0,3,-8,-25,-1
1529302646709838,-8,-2,6,-5,-9,-11,-1,-5
1529302646709838,8,1,1,2,5,26,47,34
1529302646724799,-3,2,-12,-2,1,5,2,8
1529302646724799,3,24,9,6,5,-2,-15,-8
1529302646731816,-16,-24,7,-4,-9,2,2,-9
1529302646731816,3,-2,-5,0,-9,-29,-51,-18
1529302646746739,-3,-5,15,2,1,-23,-48,-15
1529302646746739,7,3,-31,2,10,12,33,18
1529302646754718,12,4,16,-6,-7,27,31,9
1529302646754718,-15,-10,-10,7,7,-28,-45,-29
1529302646761744,-12,0,8,2,-6,-13,-34,-10
1529302646761744,12,-4,-20,-13,-6,-8,5,11
1529302646769678,10,-8,-11,-9,-11,-15,2,3
1529302646769678,-19,10,8,-17,-16,-24,-27,-13
1529302646784639,1,9,11,28,12,9,12,0
1529302646784639,-8,-9,-2,0,-8,-2,4,-3
1529302646791619,-4,-6,-1,-5,12,5,-11,-4
1529302646791619,9,-1,4,3,5,3,37,9
1529302646806580,2,-1,-3,-18,-15,-26,-45,-14
1529302646806580,-7,-11,5,10,2,17,19,8
1529302646814558,2,4,3,7,3,7,9,8
1529302646814558,-2,-1,-10,2,6,1,-4,-5
1529302646822537,3,3,0,0,5,8,6,-3
1529302646822537,1,-3,3,3,1,-4,0,-2
1529302646829518,-8,2,-9,-18,-11,-18,-20,-4
1529302646829518,-2,-2,5,1,-8,-2,-9,-5
1529302646844480,7,0,3,9,5,13,26,13
1529302646844480,-5,-2,-3,-4,1,-6,-18,-17
1529302646852457,-3,-1,-7,-12,1,-9,-18,-15
1529302646852457,1,3,13,24,7,-1,0,0
1529302646867417,2,-4,-4,-24,-13,5,8,5
1529302646867417,2,0,0,4,-7,-2,-6,-5
1529302646874407,-14,-4,-11,7,22,12,5,2
1529302646874407,4,1,14,-22,-16,-4,1,0
1529302646882382,-7,-6,7,11,4,3,3,-1
1529302646882382,-5,-6,-2,-10,-7,-8,-9,-6
1529302646889358,8,3,-26,-11,-16,-6,2,1
1529302646889358,3,5,17,17,-1,1,-2,1
1529302646904322,1,7,20,-3,-1,-5,-6,-3
1529302646904322,-2,-2,-1,-22,-4,2,2,-4
1529302646912333,-3,-6,0,49,26,6,2,-3
1529302646912333,-1,-2,-21,-16,-13,-3,-2,-2
1529302646927307,2,1,-2,2,3,0,-3,-4
1529302646927307,0,-2,-2,-16,-12,-4,5,4
1529302646942247,0,0,2,2,3,3,5,1
1529302646942247,-4,-2,-11,-6,0,-8,-12,-5
1529302646957177,-1,0,11,-8,-7,3,4,6
1529302646957177,-2,-3,25,17,4,-2,-3,-3
1529302646964159,-5,-9,-20,-2,-9,-5,-6,-7
1529302646964159,-7,-9,-11,7,9,-1,-11,-7
1529302646980290,2,4,-5,-2,4,14,13,5
1529302646980290,8,1,-7,-9,-2,2,4,1
1529302646987097,3,1,3,-6,-2,0,1,1
1529302646987097,0,6,4,-2,-3,-2,-5,-4
1529302647002094,2,3,1,29,26,10,4,2
1529302647002094,3,4,3,-1,-5,2,5,4
1529302647017049,5,2,-1,-17,-2,2,2,0
1529302647017049,-6,-1,-5,3,-1,-2,-8,-8
1529302647025210,-2,-2,-3,-5,1,-2,-3,-1
1529302647025210,-5,-2,5,5,-2,-3,1,-6
1529302647039957,3,0,4,-2,-5,-2,2,9
1529302647039957,-4,-7,-9,-6,-3,-4,-4,-3
1529302647046939,-1,-5,-3,-5,-2,3,8,12
1529302647046939,2,3,6,6,3,-4,-3,-2
1529302647061897,10,-1,1,-2,-4,2,8,5
1529302647061897,-4,-5,-2,0,1,1,-6,-3
1529302647076857,1,1,-6,-18,-5,-3,0,-1
1529302647076857,-2,-3,4,15,2,-2,-1,1
1529302647084891,-2,6,15,-3,-8,-7,-15,-7
1529302647084891,1,1,-2,2,-1,3,9,4
1529302647099844,-5,-3,-6,0,7,0,-8,-10
1529302647099844,4,3,-2,-8,-4,7,15,10
1529302647107852,-3,-14,-15,-6,-1,1,3,7
1529302647107852,2,-3,8,5,0,-1,-4,-1
1529302647122448,-4,-6,-16,-6,-1,-3,0,1
1529302647122448,-3,1,8,6,4,8,2,-1
1529302647137046,4,6,9,2,-1,-6,-9,-3
1529302647137046,-3,-3,2,2,-3,-3,1,1
1529302647145028,4,5,-5,-11,-9,-7,-2,-1
1529302647145028,-8,-11,-12,3,8,9,7,-4
1529302647160033,0,2,-3,3,2,1,2,0
1529302647160033,0,0,8,7,4,5,9,8
1529302647166967,-5,-4,-10,-10,-7,-9,-13,-9
1529302647166967,3,0,-7,-3,-4,-3,0,-7
1529302647181925,3,7,11,12,12,8,8,1
1529302647181925,-5,-4,2,-3,-4,-10,-4,-2
1529302647196886,-2,-8,-20,-14,-8,-2,-4,-3
1529302647196886,-1,-2,-2,-14,-1,-4,-6,-5
1529302647204864,-2,1,-2,17,0,1,3,0
1529302647204864,-10,-14,8,1,-7,-5,0,0
1529302647219835,6,6,-3,-7,1,0,0,8
1529302647219835,2,-1,-1,6,7,1,-1,-3
1529302647226806,-6,-5,-6,-8,2,7,-6,-8
1529302647226806,2,0,-7,-2,4,-8,-13,0
1529302647242017,7,5,7,-3,-18,-18,-16,-5
1529302647242017,-12,1,-19,1,12,17,8,3
1529302647257763,1,3,22,9,7,3,5,3
1529302647257763,0,2,-10,-6,-11,-29,-36,-7
1529302647264949,3,-4,-1,-4,15,32,37,14
1529302647264949,-3,1,-5,-4,-5,-7,-4,-5
1529302647279903,6,-5,-10,-1,-10,-6,-7,14
1529302647279903,-8,2,12,10,2,14,16,9
1529302647287787,6,-11,-6,-11,-4,12,23,4
1529302647287787,-2,-7,-13,-15,-24,-20,-22,-11
1529302647302192,29,10,5,9,19,54,84,50
1529302647302192,-11,7,10,5,-1,-5,-5,3
1529302647317151,-15,-16,-16,-15,-23,-13,-2,-25
1529302647317151,5,2,-11,-15,-10,-22,1,7
1529302647324164,-12,-3,4,3,4,-23,-40,-18
1529302647324164,13,4,6,11,10,14,5,2
1529302647340189,-6,3,-5,-4,-5,2,2,4
1529302647340189,-3,0,-4,-4,1,0,7,-1
1529302647347316,-10,-3,2,-3,-14,-30,-32,-22
1529302647347316,5,1,4,0,-8,-3,15,9
1529302647362272,-4,1,-5,-10,-5,18,15,2
1529302647362272,1,-1,4,12,14,6,7,10
1529302647377236,4,0,-2,8,6,6,3,0
1529302647377236,-1,-1,1,-7,0,7,1,-2
1529302647385194,-10,-1,-6,-19,-19,-26,-17,-10
1529302647385194,1,2,3,10,7,3,-7,-8
1529302647399932,3,1,1,3,3,5,0,0
1529302647399932,-2,-4,-3,-3,-4,-9,1,4
1529302647407274,-7,-2,1,-1,-4,-24,-23,-14
1529302647407274,3,0,-1,-35,-3,-15,-3,-3
1529302647422911,-2,0,5,3,-4,-11,-12,-7
1529302647422911,0,-1,-7,-9,1,2,4,-2
1529302647437792,2,5,3,-23,-21,-5,0,-2
1529302647437792,-2,-4,-8,-3,0,3,3,-3
1529302647444960,-2,0,3,10,6,1,-4,-3
1529302647444960,-4,-6,-15,-17,-11,-2,-4,-3
1529302647460310,-3,0,12,-14,-8,-3,-4,-2
1529302647460310,2,-1,-6,16,11,6,-1,-1
1529302647466949,-1,2,2,-10,-7,0,-7,-3
1529302647466949,-2,1,8,7,-9,-1,-3,-2
1529302647481939,-5,-3,-8,-5,-4,0,-2,-2
1529302647481939,1,6,1,-6,-3,2,2,0
1529302647496869,-3,-4,-1,-13,-12,-5,0,0
1529302647496869,5,5,3,-11,-6,-2,2,4
1529302647504847,-9,-4,3,7,4,-1,-2,-8
1529302647504847,-3,-5,1,1,-6,-2,-3,-3
1529302647519808,-1,-2,-8,-6,-2,-2,-5,-4
1529302647519808,-2,-3,-3,-5,-2,0,-2,-2
1529302647526790,-2,2,9,1,-3,0,8,-2
1529302647526790,-2,-3,-3,9,7,3,0,-3
1529302647541805,3,10,37,14,7,4,6,12
1529302647541805,-1,-1,0,-7,3,2,1,0
1529302647556762,0,-2,-9,16,6,1,0,0
1529302647556762,1,-2,-19,-13,-8,-5,-3,1
1529302647564741,-1,-4,-16,-17,-1,-5,-8,-3
1529302647564741,-2,4,32,35,6,-1,-3,-2
1529302647579701,-5,-2,4,-14,-11,-5,-2,-1
1529302647579701,2,2,4,-1,7,5,1,-3
1529302647586681,1,-2,-2,13,-1,-7,-4,-2
1529302647586681,-6,-10,-26,-16,-3,3,4,-6
1529302647602586,-2,-3,1,-3,-3,-4,-7,-4
1529302647602586,1,-3,-8,2,-4,-5,-4,2
1529302647616549,0,3,6,2,0,-3,-5,0
1529302647616549,-1,1,-4,-5,-3,-4,-2,0
1529302647624579,-6,-5,-5,0,-5,-11,-19,-8
1529302647624579,4,4,25,9,2,7,7,5
1529302647639542,-1,-6,-19,-10,-2,1,4,3
1529302647639542,-4,-3,-4,2,-4,-1,1,3
1529302647647509,0,0,-12,-6,-1,-1,-3,-2
1529302647647509,-2,1,3,0,0,-5,-6,-5
1529302647662480,1,-2,-15,6,1,3,8,-1
1529302647662480,2,2,1,-11,-1,-1,3,4
1529302647677441,-2,7,-6,5,-2,0,-2,-5
1529302647677441,1,0,18,0,-4,-5,-6,0
1529302647684368,-2,-7,-17,-4,0,-1,-1,-2
1529302647684368,-1,-2,-8,0,3,0,0,3
1529302647699327,-2,-1,22,-2,-2,-1,7,-1
1529302647699327,2,6,1,5,3,-2,-2,1
1529302647707360,-1,-3,-6,-2,3,4,-1,1
1529302647707360,-1,-5,-3,-6,-7,-6,-6,-3
1529302647722266,-6,-5,-12,-6,-5,-7,-13,-5
1529302647722266,-1,0,11,7,1,7,10,2
1529302647729302,2,0,-3,-12,-5,-2,1,-3
1529302647729302,0,2,-8,-1,3,0,-5,1
1529302647744208,-4,-14,-2,-3,-3,0,-3,-4
1529302647744208,-1,1,30,9,-5,-7,-3,-4
1529302647752212,-1,0,-6,-2,1,0,-1,0
1529302647752212,0,-1,-4,-2,-3,-2,-5,-14
1529302647767198,-2,-2,5,5,3,3,0,-1
1529302647767198,-2,-3,-9,-5,-2,-2,0,-1
1529302647782159,0,0,-3,-5,-4,-1,1,-4
1529302647782159,-1,-6,-15,-4,-2,-6,-16,-3
1529302647789142,4,4,9,1,-2,0,2,8
1529302647789142,-1,-3,-14,-3,2,1,5,2
1529302647805044,1,0,28,5,-1,-2,-1,-4
1529302647805044,-4,-5,-47,-11,-4,-2,-9,-3
1529302647812026,-4,-3,-5,-1,0,-3,-3,-6
1529302647812026,-2,1,7,-1,-4,-4,-4,1
1529302647827034,-2,-1,5,1,0,2,4,7
1529302647827034,7,5,0,3,2,4,-1,1
1529302647842868,-3,-2,-9,-2,-7,-6,3,2
1529302647842868,-2,-3,1,-2,0,2,1,-1
1529302647849851,3,8,7,2,1,-2,-3,-5
1529302647849851,-5,-8,-3,-3,-3,-3,-4,-2
1529302647865322,-5,-4,-11,-3,-1,2,0,-6
1529302647865322,1,4,10,4,2,1,3,6
1529302647872178,-2,-4,-5,-5,-4,-4,-11,-4
1529302647872178,1,1,-4,-4,-1,2,11,4
1529302647887141,4,8,2,2,4,2,-1,-1
1529302647887141,-4,-5,-2,3,-2,-2,0,-1
1529302647902490,5,10,-2,-5,4,4,7,3
1529302647902490,-7,1,37,8,-1,-5,-17,-27
1529302647909655,0,-8,-19,-14,-4,-2,11,26
1529302647909655,5,5,9,8,2,-4,-9,-5
1529302647924614,6,4,5,4,0,-2,-1,5
1529302647924614,-1,2,10,2,1,0,-6,-7
1529302647931879,3,-3,-4,-3,0,0,10,4
1529302647931879,-3,0,-7,-5,-1,0,-6,12
1529302647947424,-7,-8,4,-3,-7,-8,-15,-19
1529302647947424,3,4,4,4,5,2,5,8
1529302647962966,4,4,6,6,3,4,11,6
1529302647962966,-9,-23,-61,-19,-10,-6,1,-2
1529302647970162,-4,1,5,4,1,2,-5,-6
1529302647970162,-2,-3,8,5,-4,-4,-4,-9
1529302647985386,-1,-5,-5,-5,-3,-3,-2,-2
1529302647985386,-11,-4,-12,-13,0,-2,-42,-28
1529302647992221,6,3,7,9,2,7,57,33
1529302647992221,-14,-10,7,2,-2,-3,1,-12
1529302648007170,1,-6,2,9,-1,-3,-24,-8
1529302648007170,-6,0,0,-5,-4,-3,2,-17
1529302648022799,-19,1,4,4,-2,-2,-10,-16
1529302648022799,15,12,5,8,4,4,6,8
1529302648030027,12,-10,-20,-16,-7,-2,6,8
1529302648030027,-38,1,2,-4,-3,-3,-6,-7
1529302648044990,-8,0,1,6,7,-1,-18,-13
1529302648044990,3,-4,-4,-6,-3,4,30,15
1529302648052721,1,7,22,18,5,2,-10,-9
1529302648052721,15,13,24,5,2,4,-1,1
1529302648066999,-16,-8,-26,-11,-7,-10,-11,-4
1529302648066999,6,-7,-6,-25,-24,-7,0,6
1529302648082463,5,5,14,13,15,9,8,7
1529302648082463,2,-8,-3,3,-17,-12,-4,-8
1529302648090227,-12,-7,-11,4,24,16,8,-3
1529302648090227,13,-1,-15,-8,-2,-2,-1,14
1529302648104373,2,17,25,-1,-31,-17,-2,4
1529302648104373,-3,-20,-16,-21,4,1,-4,0
1529302648112792,0,25,24,5,4,-4,-16,-22
1529302648112792,-1,-11,-22,2,7,6,3,2
1529302648127829,-4,-12,-1,-4,-2,1,6,2
1529302648127829,6,13,14,5,-1,4,22,12
1529302648135167,9,2,-18,-3,-14,-14,-29,13
1529302648135167,10,-10,7,14,12,5,24,2
1529302648149214,-14,-25,-23,-17,-8,-2,-16,-21
1529302648149214,11,14,17,11,-3,-7,-2,9
1529302648165294,7,4,-15,-8,4,-2,2,3
1529302648165294,-8,-25,-6,-4,-2,-2,-4,-2
1529302648172369,1,6,2,-22,-10,-1,8,-4
1529302648172369,-4,1,5,12,5,-3,-13,-5
1529302648187642,-7,-14,-4,2,-5,-6,-6,-5
1529302648187642,0,4,1,-13,-4,3,4,8
1529302648202123,1,-5,1,4,4,2,3,-1
1529302648202123,-3,0,-3,1,1,-4,-31,-26
1529302648209839,-4,1,8,-1,-6,2,36,15
1529302648209839,4,-2,-8,-3,-1,-2,-6,4
1529302648224830,-1,6,14,9,6,0,7,0
1529302648224830,-2,-5,-14,-6,-7,-5,-5,3
1529302648232308,-2,7,15,6,4,3,1,-9
1529302648232308,1,-3,-42,-10,-1,-3,-6,-6
1529302648247019,-12,-8,12,2,-6,-5,-7,4
1529302648247019,-1,7,16,3,4,0,1,3
1529302648255254,5,-9,-1,15,2,2,0,16
1529302648255254,2,5,0,-3,-2,-1,3,6
1529302648270229,-10,-10,-15,-11,-1,-1,-8,-12
1529302648270229,-6,-5,3,2,3,4,-4,-10
1529302648285200,-1,-4,-2,-5,-3,-4,-1,3
1529302648285200,-4,-2,-16,-6,-1,-3,-3,-2
1529302648292161,-1,-3,0,2,-7,-6,-4,-9
1529302648292161,1,5,6,-4,-5,-3,-22,-10
1529302648307183,-4,-14,-25,-16,-2,3,16,-5
1529302648307183,0,-3,15,7,5,5,5,2
1529302648315268,15,9,27,14,-1,-4,-5,3
1529302648315268,-16,-1,1,-1,-2,-4,-6,-14
1529302648329948,6,-3,-12,-17,-2,0,-3,-4
1529302648329948,0,-6,0,17,0,3,5,2
1529302648345353,-6,-4,-5,-9,-3,-1,-4,-3
1529302648345353,-10,-6,-7,2,-5,-7,-2,-12
1529302648352813,9,3,-2,-14,3,5,2,2
1529302648352813,3,9,13,2,5,-1,2,11
1529302648367777,2,-1,-4,0,2,5,14,8
1529302648367777,-3,-8,8,12,-4,-4,-4,-3
1529302648375406,-19,-16,-13,-15,-10,-5,-4,-15
1529302648375406,2,-7,-18,-10,-3,-2,2,-2
1529302648390116,0,-6,-14,-8,-10,-5,-1,0
1529302648390116,-14,-16,17,19,-2,-9,-9,-11
1529302648405064,6,8,7,-14,-8,-2,-10,-4
1529302648405064,10,19,10,7,-6,-7,0,5
1529302648412302,-1,-2,-10,4,13,8,-1,-1
1529302648412302,7,8,4,-2,3,6,8,5
1529302648427002,5,9,7,4,9,-2,-12,-2
1529302648427002,2,-3,-3,-8,-4,8,6,7
1529302648434981,5,12,7,-1,-8,-3,8,10
1529302648434981,-3,-5,-12,-11,0,5,3,-6
1529302648449940,-7,8,9,4,1,-2,-8,-15
1529302648449940,6,-5,23,7,-1,-5,4,10
1529302648465235,-2,-4,-21,-26,-8,-4,-6,-4
1529302648465235,-6,-1,17,18,9,1,-7,-9
1529302648471882,-5,3,-2,-3,-3,-3,-7,-7
1529302648471882,0,11,3,1,-8,-4,2,2
1529302648486841,4,-3,-14,-11,6,6,4,1
1529302648486841,-5,0,6,3,-1,-5,-10,-5
1529302648494821,4,10,-17,7,3,7,-3,3
1529302648494821,10,8,7,-4,-1,5,18,12
1529302648509767,6,-1,-11,-10,-4,-3,9,7
1529302648509767,-17,-12,-9,-3,-2,-4,-11,-10
1529302648525000,0,4,15,10,1,-3,-18,-8
1529302648525000,15,11,19,-1,3,0,31,17
1529302648532000,-12,3,14,2,-2,0,5,9
1529302648532000,16,-10,-34,-7,2,3,-8,-21
1529302648546941,-31,-10,4,10,-3,3,29,30
1529302648546941,12,1,-5,-17,-9,-7,-33,-25
1529302648554920,0,-4,20,9,4,-2,-2,0
1529302648554920,-3,2,-8,-7,-1,-2,-6,0
1529302648570123,-4,0,-27,-3,-1,-3,-10,-5
1529302648570123,-3,-12,-16,-9,-3,-2,-6,-2
1529302648585225,15,-2,-15,-10,-4,-1,2,1
1529302648585225,-6,10,4,3,0,2,1,3
1529302648592360,1,-15,-1,-2,-4,-5,-7,-10
1529302648592360,-8,-2,-3,-3,1,2,10,8
1529302648607562,8,16,15,11,-1,-3,-8,-5
1529302648607562,-10,-14,-25,-15,-2,2,10,-1
1529302648615116,9,12,27,16,-1,-4,-6,0
1529302648615116,-11,-1,0,-5,0,-1,-8,-7
1529302648629816,2,0,-18,-10,-1,-2,-6,1
1529302648629816,1,6,36,3,-1,-4,7,5
1529302648644777,-5,-12,-9,6,2,0,-11,-18
1529302648644777,-6,-9,-19,-16,-5,3,19,23
1529302648651754,-1,8,18,11,4,3,5,0
1529302648651754,12,-2,-17,-3,-4,-6,-21,-5
1529302648667183,-8,-1,7,-1,-1,-1,7,-5
1529302648667183,4,5,-2,0,1,0,-1,2
1529302648675187,0,-4,-7,-6,1,3,8,6
1529302648675187,-10,-4,8,8,-2,-4,-9,-6
1529302648690121,-3,-3,11,5,6,5,2,0
1529302648690121,-5,-1,-7,-5,2,5,5,1
1529302648704799,7,2,-19,3,3,2,2,0
1529302648704799,-8,-14,-13,-12,-6,-6,-4,-4
1529302648712786,-1,0,-1,2,-1,-3,-1,-2
1529302648712786,1,4,0,0,-3,-1,2,0
1529302648727300,-1,-1,13,3,-2,-1,4,-2
1529302648727300,-1,8,5,4,4,1,-9,-6
1529302648735365,-7,-14,-5,-1,-5,-4,-3,-2
1529302648735365,0,2,-1,-7,-4,-2,4,0
1529302648749988,1,12,11,-1,0,-4,-2,-1
1529302648749988,-7,-14,-34,-10,-9,-2,0,-1
1529302648765254,-1,2,10,-1,-1,-1,-2,-1
1529302648765254,-2,-7,-1,-6,0,2,1,0
1529302648771935,0,-1,-2,0,-2,1,1,-3
1529302648771935,-4,-4,0,-2,-2,-4,-4,-2
1529302648787181,2,5,3,-10,-8,-6,1,3
1529302648787181,-2,3,-1,16,14,5,2,-1
1529302648795152,-4,-5,17,18,11,4,-3,-3
1529302648795152,-4,-8,-9,-1,-1,0,0,-3
1529302648810143,0,-3,-8,-6,-2,-2,0,0
1529302648810143,0,0,2,-1,-1,-2,-1,0
1529302648824964,-1,-4,-6,-2,0,0,1,0
1529302648824964,0,4,-5,-5,-4,-2,-7,-3
1529302648831596,0,0,-2,0,-5,-2,3,4
1529302648831596,2,6,6,2,3,1,0,-1
1529302648847553,-1,-2,5,3,1,-2,-4,-4
1529302648847553,-2,-3,-7,-7,-6,-4,-3,0
1529302648854535,0,1,2,-3,1,1,0,-1
1529302648854535,-1,-3,-2,6,3,0,2,0
1529302648869534,-1,-1,-19,-8,3,3,-3,-4
1529302648869534,3,2,3,-3,-2,0,0,1
1529302648884496,-1,2,2,2,-4,-3,-6,-1
1529302648884496,0,1,-1,-3,-2,-2,2,1
1529302648892434,-4,-4,-3,-5,-5,-4,0,-1
1529302648892434,-1,-2,2,1,-8,-3,-1,0
1529302648907393,-1,-3,-2,-1,8,2,1,-1
1529302648907393,3,4,0,1,2,2,6,1
1529302648914376,-4,-7,-2,1,-2,-4,-13,-12
1529302648914376,1,-1,-3,-4,-1,0,4,2
1529302648929382,0,1,1,-1,-1,-1,1,2
1529302648929382,-2,-2,-2,-4,-1,-3,-8,-6
1529302648944295,-2,-3,-2,-1,-1,-1,-2,-8
1529302648944295,0,0,-2,-1,1,0,5,5
1529302648952279,0,0,-1,-1,-3,-3,-4,-2
1529302648952279,0,3,4,1,3,2,1,2
1529302648967862,0,-1,-1,1,0,2,2,0
1529302648967862,-1,1,-2,2,-1,-2,-3,-5
1529302648974961,0,-1,1,-3,-5,-2,3,3
1529302648974961,1,1,1,0,3,0,1,2
1529302648989569,1,0,-3,-3,-2,0,3,1
1529302648989569,-1,0,1,-1,0,0,0,-2
1529302649005090,-3,1,0,0,-1,-1,-2,-2
1529302649005090,0,-4,-2,-5,-4,-1,-1,1
1529302649012399,-3,-1,-2,1,0,-1,-1,-1
1529302649012399,1,7,3,-1,2,0,-1,0
1529302649027353,5,-2,-2,-1,-2,1,8,9
1529302649027353,-1,2,-3,-5,-3,-2,-4,-7
1529302649035269,-11,-7,-3,4,3,-1,-12,-10
1529302649035269,-2,-1,-1,-5,2,-2,-6,-3
1529302649049074,1,5,-2,-2,-6,-7,-3,-2
1529302649049074,-5,-6,-2,-2,2,2,-7,-9
1529302649065220,-3,1,-3,-9,-7,-3,1,0
1529302649065220,1,-2,0,0,1,0,3,8
1529302649071987,5,-2,0,-1,-5,-2,10,8
1529302649071987,0,0,-1,-3,-5,-2,-2,-1
1529302649087826,12,5,0,0,0,-1,-4,-5
1529302649087826,-17,-7,-4,-2,-1,-2,-6,-9
1529302649094658,-6,-13,-2,-3,0,-2,0,-3
1529302649094658,0,-1,-1,2,1,-1,-1,-1
1529302649109638,3,6,1,-2,3,2,2,2
1529302649109638,-2,-7,-2,2,3,1,1,3
1529302649124590,-4,1,1,3,-2,2,3,-1
1529302649124590,4,1,-2,-4,-2,-4,-1,-7
1529302649131875,-1,-1,-1,-4,-2,-2,-4,-2
1529302649131875,0,2,-2,-1,0,-1,1,-1
1529302649147239,-10,-1,-1,-2,1,-1,-2,-1
1529302649147239,2,0,-2,-4,-6,-3,0,2
1529302649155360,3,1,0,-2,1,2,5,3
1529302649155360,-1,2,-2,1,-5,-4,0,0
1529302649169969,1,2,0,2,1,7,-1,-1
1529302649169969,-3,-2,-1,-4,-3,0,-3,-1
1529302649184925,-1,-4,-1,-2,-3,0,-2,-6
1529302649184925,1,-1,-2,-7,-5,-5,-6,-3
1529302649192788,-1,-1,0,-1,-2,-3,-2,-1
1529302649192788,-3,-2,-1,1,-4,0,2,-2
1529302649207791,-3,-3,-3,-1,1,-2,-4,-2
1529302649207791,1,2,-1,-1,0,-2,2,0
1529302649215241,-2,-1,-1,-1,-3,-2,1,-1
1529302649215241,0,1,0,-1,-1,0,1,0
1529302649229659,1,-2,-1,-1,-3,0,-3,-1
1529302649229659,1,0,-2,-3,-2,1,2,2
1529302649237638,-4,-2,-1,-3,-2,0,-1,-1
1529302649237638,0,0,1,0,1,-1,-1,0
1529302649252371,0,-2,-1,2,-1,-2,-1,-2
1529302649252371,-1,-1,-4,1,-4,-5,-2,0
1529302649266615,-2,-2,-4,-6,2,1,0,-1
1529302649266615,0,2,0,-5,-6,-1,-1,1
1529302649274829,0,-4,-1,1,-3,-1,-2,-2
1529302649274829,0,-2,1,9,4,1,1,-1
1529302649290396,-3,-2,0,5,-1,-3,-3,-5
1529302649290396,-1,-2,-3,-10,-5,-4,-3,-4
1529302649297176,-1,3,-2,-6,-2,-3,-2,1
1529302649297176,-5,-1,-2,-6,-2,-1,-1,-1
1529302649312755,1,0,-1,-5,-7,-3,-3,-3
1529302649312755,0,-1,-1,-17,-2,0,1,1
1529302649327748,-3,-2,1,12,6,3,0,0
1529302649327748,-2,0,0,-6,-6,-4,-2,-2
1529302649334961,-3,0,0,1,3,4,0,-2
1529302649334961,0,0,-2,2,-1,-2,-2,-2
1529302649349664,0,-1,-1,-7,-6,-2,-1,1
1529302649349664,-3,-4,-1,-2,-3,-3,-2,-1
1529302649357203,0,0,-1,6,6,1,0,1
1529302649357203,2,1,-3,-2,-1,1,-1,1
1529302649372625,1,-1,-1,-3,-4,-1,-2,2
1529302649372625,-2,-1,-2,0,-3,-1,0,-5
1529302649387225,-1,-2,-2,-1,0,-2,0,-1
1529302649387225,0,-2,-3,1,1,-1,0,-1
1529302649394177,-3,-1,-1,-7,-6,-4,-2,-2
1529302649394177,3,-1,1,3,2,0,1,1
1529302649410280,-1,-2,-1,10,9,1,-2,-1
1529302649410280,-2,-2,-1,-1,0,0,1,-1
1529302649417264,-2,0,-2,0,-3,-1,-1,-2
1529302649417264,-2,-2,-1,-5,-1,-1,0,-2
1529302649432387,-2,-2,-2,-4,-3,-3,-1,-3
1529302649432387,-2,-1,0,0,-1,-2,-1,-1
1529302649447402,-1,0,-2,-3,-4,-1,-1,1
1529302649447402,-1,-1,0,-2,0,-1,0,0
1529302649454669,0,-1,-3,0,0,-2,1,-2
1529302649454669,-1,-1,-1,3,0,-1,-1,-1
1529302649469638,-1,0,1,-4,-1,2,0,2
1529302649469638,-1,-2,-3,-2,-6,-1,-1,-2
1529302649477651,1,0,1,2,3,-2,-1,-1
1529302649477651,-3,-2,-2,0,-2,-4,-2,-2
1529302649491616,-1,-1,-1,-1,0,-1,-3,-2
1529302649491616,-1,-3,-2,-2,0,1,0,0
1529302649507481,-1,0,-3,0,0,-2,-2,-1
1529302649507481,-1,0,0,-2,-1,0,-2,-1
1529302649522061,1,0,-1,0,0,0,-1,-1
1529302649522061,0,-2,0,-2,-2,-1,-1,-2
1529302649530274,-2,-2,-1,1,0,-2,-1,-2
1529302649530274,-1,1,-2,-2,-3,-2,0,0
1529302649537249,-2,-2,-2,-2,-1,-1,-2,-3
1529302649537249,1,0,-1,0,-1,-1,1,2
1529302649545238,-2,-1,0,-1,0,-2,1,-1
1529302649545238,-1,-1,-2,-3,-2,-2,-2,-1
1529302649560182,-1,-1,-2,-2,0,-2,0,-1
1529302649560182,-1,-1,-1,-3,-1,-1,-1,-2
1529302649566965,0,-2,-1,-2,-1,-2,-2,-1
1529302649566965,0,-1,-1,-1,-1,0,-1,-1
1529302649582348,-2,0,0,0,-2,0,0,-1
1529302649582348,-2,-1,0,-1,1,0,0,1
1529302649590260,-1,-1,0,0,-1,-2,-1,-2
1529302649590260,-2,-1,0,-2,-2,-2,0,0
1529302649597153,-1,-1,-2,-1,-4,-1,-1,1
1529302649597153,-3,-1,-2,-2,-2,-2,-2,-3
1529302649604865,0,-1,0,1,0,0,-2,-1
1529302649604865,-2,-1,0,-2,-1,0,-2,-1
1529302649620088,-2,0,-1,0,-1,0,1,-1
1529302649620088,1,-1,0,-1,-1,-1,-1,2
1529302649627109,0,1,-2,0,-2,-1,-2,-2
1529302649627109,-3,-1,-1,-1,0,-3,-1,-2
1529302649642648,-1,-1,0,-1,1,0,0,-2
1529302649642648,-1,0,0,3,4,4,-1,-3
1529302649649632,-1,-2,-1,-5,-3,-2,-2,0
1529302649649632,1,-2,0,-6,-5,0,-1,-1
1529302649657796,-1,-2,-1,3,-3,-2,-2,-1
1529302649657796,-2,0,0,2,-1,-1,-1,-1
1529302649664623,-1,-1,-1,0,-3,-1,-2,-1
1529302649664623,-1,-1,-2,1,-2,1,1,0
1529302649680122,-2,0,-1,-8,-3,-3,-1,-1
1529302649680122,-1,-2,0,-5,-4,-1,-1,-1
1529302649686837,0,-1,0,4,2,-1,-2,0
1529302649686837,-1,0,-2,-1,-2,-1,-2,-1
1529302649701796,1,0,0,1,-1,1,0,0
1529302649701796,0,-1,-1,0,-1,-3,-2,0
1529302649709774,0,-1,-1,-4,0,0,1,-2
1529302649709774,2,0,0,0,1,-1,0,-1
1529302649717796,0,-1,-1,3,7,2,0,-2
1529302649717796,-3,-1,0,-2,-3,-3,0,-2
1529302649724983,-1,0,-2,-3,-4,0,0,0
1529302649724983,-2,-1,-1,-3,-3,-2,-1,-2
1529302649740265,-2,0,-1,0,-1,1,-2,-2
1529302649740265,-1,-1,-1,0,0,-1,0,-2
1529302649747252,-3,-2,-2,0,-2,-1,-1,-3
1529302649747252,0,-2,0,1,0,-1,1,-1
1529302649762199,-1,-1,-2,-2,-1,-1,-1,-1
1529302649762199,-3,-2,-2,-1,1,0,-1,-1
1529302649770292,-1,-1,1,-1,-1,-2,0,0
1529302649770292,-1,0,-1,-2,0,-2,-2,0
1529302649777165,-2,-2,-2,-2,-2,-2,-1,-1
1529302649777165,-1,-1,-2,0,-2,-1,-2,-1
1529302649785157,-1,0,-1,-4,0,-1,1,-1
1529302649785157,-1,-3,-1,-1,0,2,-1,-1
1529302649799186,-1,-1,1,2,2,0,-1,-2
1529302649799186,0,0,0,-3,-4,-1,-1,0
1529302649807394,1,-2,-1,-1,-1,-1,-2,-1
1529302649807394,0,-2,-3,-2,-3,-2,-2,-2
1529302649822699,-2,-1,0,-2,-3,-2,2,1
1529302649822699,1,-1,-3,-3,-2,0,0,-2
1529302649830034,-1,0,-2,0,-3,-1,-1,-3
1529302649830034,-1,-1,0,0,2,-1,0,0
1529302649845265,-1,-3,-2,-1,-1,-1,-2,0
1529302649845265,-1,0,-1,-3,2,2,2,-1
1529302649859957,-2,-2,-2,-2,-2,-1,-1,0
1529302649859957,-1,0,0,1,-3,-2,-2,-1
1529302649882252,1,-2,-1,5,2,-1,-1,0
1529302649882252,0,-1,-1,-4,-3,-2,-4,-1
1529302649889185,0,-1,-1,-1,-1,-1,-3,-2
1529302649889185,-2,0,-1,-3,-4,-3,-1,-2
1529302649905197,0,-1,-1,-3,-1,0,-1,0
1529302649905197,-1,-2,0,4,2,-1,-1,-1
1529302649912124,-1,0,-1,-1,-3,-1,0,-1
1529302649912124,-2,0,-2,-3,-2,-2,-1,-1
1529302649920228,1,-1,-1,-5,0,0,-2,-1
1529302649920228,0,-2,-1,-1,-1,-1,0,-2
1529302649927323,-1,0,0,-1,-4,-3,1,1
1529302649927323,0,-1,0,0,-1,-1,-1,-1
1529302649942284,-1,-1,0,-1,-2,-1,-2,-1
1529302649942284,0,-3,0,-3,0,0,-1,-2
1529302649949333,0,-1,-2,0,0,-2,-1,0
1529302649949333,0,-1,-1,1,-2,0,-1,-1
1529302649957315,-1,0,0,-5,-7,-1,-2,-1
1529302649957315,0,-1,-1,0,-2,-2,-1,0
1529302649964572,-1,-1,-1,2,-2,-1,1,-1
1529302649964572,-1,-1,0,-2,-2,-1,-2,-1
1529302649980330,-2,-1,-3,-1,0,1,1,0
1529302649980330,-1,0,-1,-1,0,-2,0,-2
1529302649987548,0,-1,-1,-2,-2,-1,-2,-1
1529302649987548,-1,-2,0,-4,1,-1,-1,0
1529302650002589,0,-2,0,2,-1,-1,-2,0
1529302650002589,0,0,0,6,2,1,-2,-1
1529302650009612,-1,0,-1,-2,-2,-1,-1,-2
1529302650009612,-1,0,-2,2,-1,-1,-2,-1
1529302650017704,-1,0,-1,-7,2,2,-1,0
1529302650017704,-2,0,-1,-4,-3,-1,0,-1
1529302650024772,0,-2,1,1,1,-2,0,-1
1529302650024772,0,-2,-1,-2,-1,0,0,-1
1529302650039730,-2,-1,0,0,-2,-3,0,-3
1529302650039730,-1,0,0,-3,-4,-3,-2,-1
1529302650046964,-2,-1,-1,1,4,1,0,-1
1529302650046964,-1,-1,-1,-2,-1,-1,-2,-1
