timestamp,emg1,emg2,emg3,emg4,emg5,emg6,emg7,emg8
1528874375663816,-1,-2,-1,-1,-1,-2,0,-1
1528874375663816,0,-1,0,-1,-1,-1,0,1
1528874375671781,0,-1,-2,0,0,-1,0,-2
1528874375671781,-2,-2,-1,-1,-1,0,-1,-2
1528874375678763,-1,0,-4,-1,-1,-1,-3,0
1528874375678763,-2,-1,-2,0,-1,-1,-1,-1
1528874375686742,-1,-1,-1,-2,0,0,-1,-1
1528874375686742,-2,0,0,0,-1,-2,-2,-1
1528874375701704,-1,0,-1,0,-2,0,-1,-2
1528874375701704,-1,-1,-1,1,-1,0,-1,0
1528874375723643,1,0,0,0,-3,0,0,-1
1528874375723643,0,1,2,6,2,0,0,-1
1528874375738603,-2,-4,-3,-8,-3,-2,-1,0
1528874375738603,-1,-1,-2,1,-2,0,-1,-1
1528874375749574,-1,-1,-1,-1,-1,0,0,0
1528874375749574,0,-1,-1,0,3,-1,-1,-1
1528874375761553,0,0,1,1,-4,1,-1,-1
1528874375761553,-3,1,-3,-10,-3,-1,-3,-1
1528874375768523,-2,-2,-3,0,5,2,-1,-2
1528874375768523,0,1,3,0,-3,1,-2,-1
1528874375777499,0,0,1,1,-5,-2,-2,-2
1528874375777499,0,-3,-5,-2,-9,-2,0,-2
1528874375791461,-3,0,6,-1,-1,-3,-2,-2
1528874375791461,-1,-1,-7,-4,-2,0,0,0
1528874375800439,-1,0,-1,-7,1,-2,-1,-1
1528874375800439,-3,-2,3,5,3,0,1,-1
1528874375814453,-1,-3,-3,-5,-5,0,-2,-2
1528874375814453,-2,0,1,6,0,-1,-1,-1
1528874375821458,-2,-1,-2,-5,0,0,-2,-2
1528874375821458,-1,-2,3,-1,-3,-2,0,1
1528874375839391,-1,-2,-2,1,-2,-1,-1,-1
1528874375839391,1,-1,-7,-12,-4,-3,-2,-2
1528874375851302,-1,-1,1,7,6,0,-4,-3
1528874375851302,-1,-3,1,-1,-3,-1,1,-1
1528874375859282,0,0,4,5,2,1,4,0
1528874375859282,1,3,-3,-5,-1,-2,-11,0
1528874375874241,0,1,2,-1,0,1,9,2
1528874375874241,-1,-1,-5,-6,-8,-1,9,2
1528874375883257,0,-2,0,2,4,-3,-18,-4
1528874375883257,-2,-1,-3,-4,-1,0,14,0
1528874375896217,1,0,-4,-6,-7,-2,4,2
1528874375896217,0,-3,-2,0,0,-3,-9,-3
1528874375911183,0,3,11,14,0,0,-2,1
1528874375911183,-2,-5,-5,-4,-2,-1,-1,-3
1528874375919137,-3,-3,-12,-13,-5,-1,-3,-1
1528874375919137,-2,1,3,0,-2,0,-4,-1
1528874375934081,0,-2,-1,5,-1,-1,2,0
1528874375934081,0,2,6,-3,2,-1,-4,0
1528874375956024,0,-2,1,4,-2,-3,-1,-2
1528874375956024,0,0,-1,-2,0,0,1,-1
1528874375964001,0,-2,-3,-5,-1,-1,-9,-2
1528874375964001,1,0,0,0,0,0,13,2
1528874375970984,-1,0,0,-2,-3,-4,-22,-4
1528874375970984,-1,-1,3,5,1,2,20,8
1528874375978963,0,1,0,-2,-1,0,7,0
1528874375978963,-1,0,0,-2,-1,-2,-15,-6
1528874376008881,-2,-2,-1,0,-3,-1,-2,-4
1528874376008881,1,1,3,1,-2,-2,-8,-1
1528874376016860,0,0,3,6,5,1,0,-1
1528874376016860,-1,-4,-5,-7,-4,-1,-6,-3
1528874376031865,0,1,4,1,0,0,4,-2
1528874376031865,-1,-4,-8,-4,-1,-3,-8,-3
1528874376038802,-2,4,2,4,3,0,-5,-2
1528874376038802,-1,1,-2,-7,-2,-3,6,0
1528874376046781,0,-3,-1,3,0,0,7,2
1528874376046781,-3,-7,-7,-6,-9,-6,-6,-5
1528874376053763,0,3,2,-3,-1,-1,-1,0
1528874376053763,0,3,7,3,1,-1,-9,-5
1528874376061739,-1,-3,-3,-1,-2,-2,6,-2
1528874376061739,-2,1,-1,-1,-2,-4,-24,-8
1528874376076702,-2,-5,-9,-7,-4,-1,10,-2
1528874376076702,-1,1,2,4,3,0,-4,1
1528874376083709,-3,-3,-5,-7,-4,-3,-3,0
1528874376083709,1,-1,-1,-3,-1,-2,-12,-2
1528874376098682,-1,-3,2,4,0,-1,7,-1
1528874376098682,-2,-4,-7,-3,-2,-4,-21,-4
1528874376106621,1,2,6,0,1,8,35,4
1528874376106621,-1,-2,-1,-2,-1,-2,-8,3
1528874376113638,2,3,4,5,1,0,9,6
1528874376113638,-3,-5,1,3,2,-1,-2,-4
1528874376121616,-4,-6,-18,-16,-5,-3,-3,-2
1528874376121616,1,-4,4,5,-2,2,8,0
1528874376136585,-5,1,-7,-6,-4,-1,-6,-3
1528874376136585,1,7,7,3,0,-2,-6,-1
1528874376143522,-2,-7,-6,-1,-1,-1,0,-2
1528874376143522,-3,-2,-6,-3,-1,-1,-2,-7
1528874376166467,-1,-2,-3,-2,-1,-1,0,3
1528874376166467,1,3,1,0,2,0,8,2
1528874376173441,-1,-4,-3,1,-2,-2,-13,-3
1528874376173441,0,-1,1,2,0,0,-1,-3
1528874376181433,1,0,6,6,1,-4,-7,-2
1528874376181433,-3,-8,-12,-8,-4,2,8,2
1528874376188401,-1,1,1,-2,-3,-2,7,7
1528874376188401,-4,1,-2,3,0,-2,-6,-2
1528874376211367,2,-2,-3,0,5,3,10,4
1528874376211367,-1,-8,-6,-1,-3,-1,0,3
1528874376226300,-2,-7,-3,-3,-4,-4,-18,-6
1528874376226300,3,12,11,0,1,2,10,5
1528874376234360,-3,-2,-4,-1,1,-7,-27,-13
1528874376234360,-2,-3,0,0,-1,2,30,5
1528874376241313,-4,-5,-2,-3,-4,-4,-9,-8
1528874376241313,-1,3,2,1,2,1,7,-5
1528874376256219,5,6,5,2,-2,-2,-11,-8
1528874376256219,-2,10,8,3,-1,-4,-18,-7
1528874376264198,-7,-11,-10,-7,-6,-5,-8,-2
1528874376264198,-2,-8,-6,-1,-1,1,5,-4
1528874376271179,-1,4,7,7,2,6,34,5
1528874376271179,-2,-7,-15,-14,-6,-5,-7,0
1528874376286178,0,1,5,3,-2,1,-7,-3
1528874376286178,-1,1,-9,-2,-2,-4,-9,-2
1528874376294118,-2,-6,5,2,1,2,-6,2
1528874376294118,0,-2,-12,1,-4,-3,1,1
1528874376301101,2,5,9,3,4,-6,-18,-4
1528874376301101,-2,-5,-5,6,5,2,10,5
1528874376309098,-2,-1,-7,-8,-7,-1,-24,-2
1528874376309098,-1,-5,-3,-1,0,-2,1,1
1528874376316112,5,12,10,2,-4,4,27,7
1528874376316112,0,-3,-1,-5,-5,1,21,6
1528874376324039,-3,-2,8,8,6,-1,-9,-3
1528874376324039,-2,-1,4,2,-1,-1,-4,-4
1528874376338999,-1,1,-6,-5,-2,-8,-49,-3
1528874376338999,3,2,6,-3,2,6,37,8
1528874376346008,-4,-9,-11,-5,-3,-3,2,-6
1528874376346008,3,-1,2,3,-3,-5,-15,-1
1528874376353959,-4,-5,-3,-5,-2,-2,-6,0
1528874376353959,2,6,2,-2,-5,-2,-16,-2
1528874376360940,-2,0,-3,-3,0,-4,-31,-13
1528874376360940,4,3,2,3,0,10,64,23
1528874376375900,-1,-4,-7,0,2,5,19,6
1528874376375900,-2,-2,1,0,-5,0,12,1
1528874376383879,-1,-1,-3,-9,-5,-6,1,-5
1528874376383879,-3,-2,2,2,1,-8,-53,-17
1528874376398896,0,-3,-2,-1,-6,0,8,1
1528874376398896,4,-2,-6,-4,3,1,6,8
1528874376406838,-1,1,1,5,2,1,-4,2
1528874376406838,-4,-2,-3,-5,1,1,0,-4
1528874376413799,-3,0,-1,2,1,-1,3,-4
1528874376413799,-1,-4,0,-1,-3,-5,-27,-9
1528874376421777,2,-1,-2,-1,-3,-1,14,9
1528874376421777,2,1,2,-1,1,3,10,3
1528874376436738,-2,1,2,1,0,0,8,-6
1528874376436738,-5,-2,2,-7,-10,-12,-43,-11
1528874376443725,-1,-3,-3,3,11,10,42,0
1528874376443725,1,1,1,-3,-4,1,-10,0
1528874376458713,8,15,13,-2,-5,2,10,13
1528874376458713,-5,0,15,5,3,-3,-14,-8
1528874376466658,-5,-1,-10,-3,-2,2,4,7
1528874376466658,4,1,8,-1,-2,-7,-26,5
1528874376473638,-3,-16,-5,0,2,-4,-8,-15
1528874376473638,1,5,-2,-3,-1,1,13,-1
1528874376481654,-11,-1,-4,-4,-5,-5,-27,-6
1528874376481654,0,1,-5,-2,3,4,18,-3
1528874376496605,0,2,-7,-2,-3,-6,-30,-3
1528874376496605,2,-8,-8,1,3,5,23,7
1528874376503593,2,-3,14,6,-6,-10,-23,-5
1528874376503593,-2,-3,-8,-2,-2,-2,-19,-7
1528874376518547,-9,-2,-27,-18,1,-5,-79,-22
1528874376518547,8,1,3,3,8,14,83,29
1528874376526497,2,0,-15,-2,0,6,69,17
1528874376526497,-1,-4,9,7,7,-1,-5,0
1528874376533479,2,10,12,11,6,9,-4,2
1528874376533479,-1,-1,-15,-5,-3,-1,-34,-15
1528874376541459,4,4,7,0,-4,-10,-37,2
1528874376541459,2,8,4,-6,-5,0,-5,-8
1528874376556419,-9,-14,-15,-9,-4,-2,63,-2
1528874376556419,-7,-1,10,-2,-8,-10,-12,-10
1528874376563399,1,-3,1,-4,-3,-12,-20,4
1528874376563399,1,-1,-3,-7,-3,18,100,28
1528874376586338,5,1,8,9,13,45,37,4
1528874376586338,1,0,1,4,12,3,-32,0
1528874376594317,3,6,4,5,5,0,-1,-7
1528874376594317,-9,-6,-9,-2,0,-18,-45,-9
1528874376601351,-9,-12,2,3,-5,-18,-4,3
1528874376601351,-1,-5,-12,-24,-18,-4,2,-1
1528874376609277,1,3,19,11,-1,-1,-29,-4
1528874376609277,0,-1,-17,2,16,6,12,7
1528874376631221,-3,-7,2,2,4,-4,-11,-5
1528874376631221,4,9,0,7,9,-1,-17,-7
1528874376646178,5,5,-3,1,3,0,4,8
1528874376646178,-4,-1,-2,-1,-5,1,25,6
1528874376654214,-4,-9,-19,-9,-5,3,8,-10
1528874376654214,3,0,4,1,1,-3,-33,-9
1528874376661138,2,3,-4,-11,-9,-9,-7,-6
1528874376661138,-5,-15,-8,-4,-6,-8,-10,-8
1528874376669173,-5,-9,-1,3,0,4,5,-1
1528874376669173,-1,-6,-18,-11,-9,-8,-31,-4
1528874376676098,1,0,3,2,-7,-12,-12,-1
1528874376676098,-5,-13,-4,3,0,1,-19,-9
1528874376684122,-3,-13,8,4,6,9,28,8
1528874376684122,0,6,3,-3,-9,-1,5,-3
1528874376699037,-2,-4,-12,-4,-4,-3,10,-1
1528874376699037,-6,-4,-2,2,6,-6,-41,-7
1528874376706147,6,4,-9,-9,-2,7,29,4
1528874376706147,-10,-23,-4,4,-1,-7,-11,-10
1528874376714366,4,13,6,6,-3,-6,-6,2
1528874376714366,-6,-5,-4,9,6,0,10,-3
1528874376721332,-6,-1,1,0,5,0,-19,-12
1528874376721332,-1,-1,2,2,-2,-3,-4,-1
1528874376736274,1,3,4,0,-2,-1,4,-5
1528874376736274,-1,5,3,-2,-5,-3,-2,-3
1528874376744121,2,4,0,-4,-4,0,-5,0
1528874376744121,0,3,5,5,1,0,7,-1
1528874376758578,-3,-9,-2,-6,-8,-3,-6,0
1528874376758578,-3,2,-4,-3,-3,-7,-24,-5
1528874376766603,3,5,5,5,5,1,20,8
1528874376766603,1,3,-1,-12,-8,7,19,1
1528874376773784,-1,1,6,0,4,-3,-1,5
1528874376773784,1,4,1,5,-3,-1,-5,-1
1528874376781926,0,-4,-13,-9,-1,0,4,3
1528874376781926,-3,-6,-5,2,0,-4,-18,-11
1528874376796883,0,-5,-4,-7,-3,-2,0,2
1528874376796883,6,12,16,4,-2,7,33,11
1528874376811686,-4,-2,-5,2,6,0,3,0
1528874376811686,0,11,6,2,-2,-7,-14,-7
1528874376818698,-4,-5,0,-6,2,0,-3,-6
1528874376818698,-4,-10,-26,-13,-1,-3,-5,2
1528874376833807,1,3,2,9,8,7,23,0
1528874376833807,1,0,-1,-4,-3,-3,-11,-2
1528874376848905,-1,-4,2,1,-5,1,5,7
1528874376848905,0,-1,-7,-11,-3,-6,-18,-7
1528874376856969,2,-1,-7,2,6,1,2,-4
1528874376856969,-5,-2,1,3,2,-3,-23,-2
1528874376871940,-3,-5,-6,-4,-5,4,22,-3
1528874376871940,-6,-8,11,7,7,4,-2,0
1528874376879031,1,-4,-11,-10,-5,0,17,10
1528874376879031,3,6,5,-1,-2,0,6,-4
1528874376894174,-4,2,-1,-1,-1,-4,-19,-8
1528874376894174,-3,-6,-5,-5,-7,-6,-15,-8
1528874376909106,0,-3,-8,-3,4,5,47,12
1528874376909106,-4,-4,-3,2,-2,-11,-50,-12
1528874376916948,1,11,9,2,-4,12,41,8
1528874376916948,4,3,9,3,-2,-5,-16,6
1528874376931907,3,12,-2,-10,-3,-4,-11,2
1528874376931907,-5,-6,-9,-6,-9,-10,-38,-12
1528874376939045,1,-11,-1,-6,-6,3,36,14
1528874376939045,-5,-3,-9,10,11,15,12,-2
1528874376954005,-2,3,3,-2,6,5,8,-2
1528874376954005,9,10,11,12,7,13,42,9
1528874376961971,-8,-7,1,0,-3,-10,-20,-2
1528874376961971,-4,-7,-3,-11,-10,-10,-17,-6
1528874376976135,-3,-13,-6,-6,-9,-9,-30,-7
1528874376976135,-1,-1,1,7,8,-1,-2,3
1528874376984113,-2,-9,-11,-14,-11,-10,-55,-16
1528874376984113,1,-3,-5,0,5,6,50,10
1528874376999367,0,0,2,9,9,3,-6,-1
1528874376999367,-3,1,3,-2,-8,5,3,-2
1528874377013716,1,3,5,11,16,4,-4,-2
1528874377013716,1,-2,-2,-3,-2,-3,12,0
1528874377021694,-2,-1,-5,0,-7,-9,-6,-2
1528874377021694,0,7,1,-8,-11,-10,-12,-2
1528874377036640,-3,-3,2,2,-8,-7,-7,-9
1528874377036640,1,3,-1,2,2,2,-2,4
1528874377043481,-4,-5,-9,-4,-3,-2,-4,-2
1528874377043481,0,-1,2,4,0,-4,-4,-4
1528874377058480,-1,0,1,5,1,0,-4,-2
1528874377058480,1,1,5,-2,1,1,6,0
1528874377074417,-1,9,11,9,3,-2,-5,-2
1528874377074417,0,2,-5,-6,-4,1,13,1
1528874377081519,-1,-6,-3,-3,1,0,-8,2
1528874377081519,-1,0,2,3,3,3,9,1
1528874377096520,-1,-3,-1,0,-3,-1,-5,-1
1528874377096520,-3,-3,-5,-3,-5,-4,-10,-3
1528874377104512,-1,1,1,-3,-4,-4,-4,-2
1528874377104512,-2,-3,-5,-2,0,-1,0,0
1528874377119509,1,1,3,0,-1,-1,2,-2
1528874377119509,-1,-6,-4,-3,-2,-2,-5,-3
1528874377134485,-1,-3,-3,0,-2,-2,-3,-3
1528874377134485,-2,-2,-3,-1,-1,2,16,0
1528874377143472,-1,-4,-5,2,9,4,-5,-1
1528874377143472,2,4,-1,-4,-1,0,-1,2
1528874377156416,-2,-2,0,4,0,2,10,-1
1528874377156416,1,-4,-4,-4,-3,-1,3,2
1528874377164395,0,2,3,1,-4,0,-3,-1
1528874377164395,-2,-4,-7,0,-2,-3,-11,-2
1528874377178592,-1,3,4,2,-1,-2,0,-2
1528874377178592,0,-2,2,-2,-1,-1,-3,-3
1528874377195702,0,3,2,-5,-1,1,1,0
1528874377195702,1,1,3,3,0,-1,-1,-1
1528874377208656,0,0,2,-2,-2,-1,0,-1
1528874377208656,1,0,1,4,0,-1,1,-2
1528874377216968,-4,-5,-7,-5,-3,-3,-2,-1
1528874377216968,-3,-1,2,1,-2,-5,-13,-5
1528874377238892,1,-3,-2,0,1,1,1,0
1528874377238892,-1,-2,3,1,-2,-1,2,0
1528874377245904,2,3,-1,2,0,1,13,1
1528874377245904,-1,-1,-2,-5,1,1,7,0
1528874377260869,0,-2,1,-10,-6,-2,-4,0
1528874377260869,-1,2,4,9,3,3,3,1
1528874377275986,-1,0,-1,8,0,-3,2,1
1528874377275986,-1,-2,-9,-17,-1,0,5,-1
1528874377291163,2,6,9,5,0,2,1,3
1528874377291163,1,0,3,10,1,2,-1,0
1528874377299112,-1,1,1,-6,1,1,-9,-3
1528874377299112,1,2,0,0,-3,-2,12,2
1528874377321151,-1,1,7,11,0,-1,-7,-3
1528874377321151,-1,-4,-10,-3,-1,1,10,2
1528874377336266,-1,1,-1,-5,-1,0,0,2
1528874377336266,-2,-3,-1,-6,-6,-2,-2,-2
1528874377344149,0,-2,1,5,1,-1,-1,-1
1528874377344149,-1,0,1,-4,-4,-3,-10,-2
1528874377367028,-2,-3,-5,-5,-1,-1,-1,-2
1528874377367028,-2,-1,-16,-3,1,2,0,1
1528874377374169,-1,1,5,3,-3,-1,-1,-1
1528874377374169,-3,-2,2,12,0,1,0,-2
1528874377381131,0,-4,-5,-4,0,-3,4,0
1528874377381131,0,0,1,3,1,-1,-5,-1
1528874377396948,-2,-4,-7,1,-1,0,-1,-2
1528874377396948,-2,-1,-2,0,-1,-2,0,0
1528874377404069,-3,-2,-6,-3,-1,-1,-2,-2
1528874377404069,0,0,13,10,-1,0,0,0
1528874377418889,2,0,0,-1,-1,-2,1,0
1528874377418889,-1,-3,0,3,1,-2,-4,-1
1528874377433853,-1,-1,1,1,-3,-1,0,-1
1528874377433853,1,2,-3,-8,-2,0,-5,-2
1528874377448810,-1,-2,-5,-3,-2,-3,0,0
1528874377448810,0,-1,2,1,0,-1,0,-2
1528874377456788,-1,2,0,-1,1,-1,1,0
1528874377456788,-2,-3,-3,-2,-1,-2,1,-2
1528874377471955,0,-1,0,3,-2,-2,-4,-3
1528874377471955,0,0,-3,-1,-1,0,-1,0
1528874377479020,-3,-2,0,0,-1,-1,0,-2
1528874377479020,-1,0,-4,-6,-2,-2,-4,-2
1528874377493859,0,0,-5,-1,0,0,1,1
1528874377493859,0,-2,-2,-5,0,-1,-3,-2
1528874377508821,-2,-3,1,3,-1,-3,-2,1
1528874377508821,2,7,6,9,0,-1,2,1
1528874377516797,0,0,0,-10,-3,-4,-5,-1
1528874377516797,-2,0,0,-1,-3,-2,-3,-1
1528874377538738,-2,0,3,6,0,-3,-2,-2
1528874377538738,-3,-2,-4,-6,1,0,-3,-4
1528874377547714,0,-2,-2,-1,-5,0,1,-1
1528874377547714,-1,1,-1,-1,2,-2,-1,0
1528874377561680,-1,0,-5,-6,-1,0,1,0
1528874377561680,-2,-4,-4,-2,-5,0,-1,-3
1528874377576637,-2,0,-2,0,-1,0,-2,-3
1528874377576637,-1,-2,-2,-4,1,-1,-2,-1
1528874377583623,-3,-2,0,2,0,-1,-2,0
1528874377583623,-2,-3,-6,-3,-2,-3,-1,-1
1528874377598713,1,0,-2,-1,0,-1,-1,-1
1528874377598713,1,-1,0,-2,0,0,-2,0
1528874377613541,-1,-2,-4,-3,-2,-1,-1,-1
1528874377613541,-2,-1,0,0,-1,0,-1,-1
1528874377629516,-1,-2,-4,-2,-3,0,-1,-2
1528874377629516,0,-3,-2,-1,-1,-1,-1,-1
1528874377636656,-2,-1,-1,0,-1,-1,-2,-1
1528874377636656,-1,-1,0,1,1,-2,-2,-4
1528874377651611,-2,-2,-3,-5,-2,-2,1,-1
1528874377651611,-1,0,-2,-1,-2,-1,-1,0
1528874377658608,-2,-3,-2,2,0,1,0,-2
1528874377658608,1,1,-1,-2,-3,-1,-3,-1
1528874377673555,-2,-1,-1,-2,0,0,0,-3
1528874377673555,-1,0,-1,-2,0,-1,-1,0
1528874377688513,-1,-1,1,1,1,-2,0,-1
1528874377688513,-2,-2,-3,-4,-2,-1,-2,-1
1528874377696492,-1,-2,-2,0,-1,-3,-1,0
1528874377696492,-1,-1,-1,-1,-1,-2,0,0
1528874377711452,0,-1,-1,-1,-2,-1,0,-1
1528874377711452,0,-2,-1,-1,-1,-2,-1,-1
1528874377718433,-1,-1,-2,0,-1,-1,-1,-1
1528874377718433,-2,-1,-2,-4,-3,-1,-1,-1
1528874377733439,0,-1,-1,0,-1,-2,-1,-2
1528874377733439,0,-1,-2,-2,-1,-3,-1,0
1528874377749350,0,0,-1,-1,-1,-1,-2,-1
1528874377749350,-2,0,0,0,-1,-1,-2,-2
1528874377756377,-2,-2,-2,0,-1,-1,0,-2
1528874377756377,-1,0,-3,0,-1,-1,1,-1
1528874377771338,0,0,0,-1,-1,-2,0,-1
1528874377771338,0,0,0,0,-1,-3,-2,-1
1528874377779312,0,0,-1,-1,-1,-1,-1,-1
1528874377779312,-3,0,0,-2,-1,-1,-1,-1
1528874377794241,-2,-2,-1,0,-1,-1,-3,0
1528874377794241,-2,-4,-3,-1,-1,1,1,-2
1528874377809218,-1,-1,-2,0,-2,-2,0,-1
1528874377809218,-1,-1,-2,-2,0,1,1,0
1528874377824185,-2,-1,-1,-1,0,-1,-2,-1
1528874377824185,-1,-2,-2,0,0,-2,0,-1
1528874377839116,-1,-1,-2,-2,-1,-3,-2,0
1528874377839116,-1,-2,0,-1,-1,0,-1,0
1528874377846144,-1,1,-1,0,-2,-1,-1,-1
1528874377846144,-1,-1,0,0,-3,-1,-3,-3
1528874377861090,-1,-2,-1,-1,-1,0,1,1
1528874377861090,-1,2,-2,0,-1,-2,-1,0
1528874377876012,0,-2,-2,-2,-1,-1,-2,-1
1528874377876012,0,-3,-1,-2,0,-1,-1,-1
1528874377891024,0,0,-1,-2,0,1,-2,-1
1528874377891024,0,-2,0,-1,-1,0,0,0
1528874377899002,-2,-1,-1,0,-1,-1,-1,-1
1528874377899002,-1,0,0,0,-2,-2,-1,0
1528874377913965,-1,0,-1,-1,0,-1,0,-2
1528874377913965,-2,-1,-1,-1,-1,-1,-1,0
1528874377928925,-2,-2,-1,0,-1,0,-1,-1
1528874377928925,0,-2,0,0,-1,-2,-1,0
1528874377936849,-1,-2,-3,-2,0,-1,0,0
1528874377936849,-1,-1,-1,-1,0,0,-2,-1
1528874377951855,0,1,-1,-2,0,-3,-1,0
1528874377951855,-2,2,0,-2,-1,-1,-2,-2
1528874377958838,0,-1,0,-2,-1,-2,-1,0
1528874377958838,-1,-1,-2,-1,0,-1,-2,-1
1528874377981787,-1,-2,-1,0,-2,1,-1,-1
1528874377981787,-3,0,-4,-1,-1,1,0,-3
1528874377988711,-1,-1,0,0,0,-2,-1,-1
1528874377988711,0,-1,-2,-1,-2,0,0,0
