timestamp,emg1,emg2,emg3,emg4,emg5,emg6,emg7,emg8
1528874384319525,0,-1,-2,-1,1,-1,-1,-1
1528874384319525,-1,-1,-2,-1,-2,-2,-2,-2
1528874384327505,-3,-1,-1,-2,-2,-1,-2,-1
1528874384327505,-2,0,-2,1,-1,-1,-2,-1
1528874384336482,-2,-2,-2,-1,-1,-2,0,-2
1528874384336482,-2,-1,-2,-1,0,0,-1,0
1528874384349447,0,-1,-1,-2,-1,-1,-2,-2
1528874384349447,-1,0,0,-2,-2,-1,0,-1
1528874384357425,0,0,-2,-1,-2,0,-1,-2
1528874384357425,2,-1,-1,-2,0,-2,-2,-2
1528874384371386,-1,-1,0,0,-2,0,-1,-2
1528874384371386,-1,-2,-3,-1,-2,0,-1,-3
1528874384379366,-1,0,-1,-1,-2,-1,-2,-2
1528874384379366,-2,-2,0,-1,-2,0,1,1
1528874384394325,-1,0,-1,0,0,-2,0,-2
1528874384394325,-1,1,-1,-2,-2,0,-1,-3
1528874384404300,0,-1,1,-2,-1,-2,-1,-1
1528874384404300,-1,-6,1,1,-1,0,0,0
1528874384418263,1,-1,-1,-1,-1,-1,0,0
1528874384418263,-1,-1,-1,-2,-1,0,-1,-1
1528874384424246,-1,0,-1,0,0,-2,-1,-1
1528874384424246,-1,0,-3,-2,-1,-2,-2,-2
1528874384439208,-2,-2,-3,-1,-1,-2,-2,-1
1528874384439208,-3,-4,-3,0,-2,-1,0,-1
1528874384447185,-3,-2,-4,-1,-3,-3,-2,-1
1528874384447185,-2,0,0,-1,-1,0,-2,-2
1528874384461147,-3,-2,-2,0,2,2,1,0
1528874384461147,-1,-3,-3,-2,-1,-2,-2,0
1528874384469126,-1,-3,0,-2,-2,-1,-2,-3
1528874384469126,0,0,-2,-3,-2,-2,-2,-2
1528874384484087,-1,-2,0,-2,-4,-2,-2,-1
1528874384484087,0,-1,-1,-1,0,0,0,0
1528874384491068,-2,-2,-2,-1,0,-1,0,0
1528874384491068,-1,0,0,-2,-2,-2,-2,-1
1528874384509021,0,0,-2,-1,-1,-2,-2,-1
1528874384509021,-1,-1,0,-1,-1,-3,-2,-3
1528874384520987,0,0,-1,0,0,-1,-1,-1
1528874384520987,-1,0,-1,-1,-2,-1,0,0
1528874384528966,-4,-1,-3,-1,-1,-1,-1,-1
1528874384528966,-2,-2,-4,-1,-1,-2,-1,-1
1528874384543925,-3,-7,2,0,0,-1,-2,-2
1528874384543925,-1,-2,-1,-3,-1,-2,-2,-1
1528874384550906,-1,1,0,0,-2,-1,-2,-2
1528874384550906,-1,-2,-1,-1,-1,0,-1,0
1528874384566864,1,0,-3,-1,-2,-3,0,-2
1528874384566864,0,-3,0,-1,0,-1,0,-2
1528874384581825,-1,0,-2,-2,-2,0,2,2
1528874384581825,-2,-2,-1,1,-2,-3,-1,1
1528874384588805,0,-1,-1,-2,-1,1,3,2
1528874384588805,-1,0,-1,2,1,-1,-2,-2
1528874384604764,0,-1,-1,-1,-1,-1,-1,-2
1528874384604764,-1,-1,-1,-1,1,0,0,-1
1528874384611745,-1,-2,1,-1,1,0,-2,-1
1528874384611745,0,-3,-3,-2,-1,-1,-1,-1
1528874384633685,0,0,-3,-3,-2,-4,-1,-1
1528874384633685,-2,0,0,-2,0,0,-1,-1
1528874384641664,0,-1,-2,0,0,-1,-1,-1
1528874384641664,-1,-2,-1,0,-2,-1,-1,-1
1528874384648645,-2,-1,0,0,-3,-1,-1,0
1528874384648645,-1,0,-2,-3,-1,-1,-1,-1
1528874384663605,-1,-3,-1,1,0,-1,-1,-2
1528874384663605,-1,-2,-2,1,-2,-4,-1,-2
1528874384671585,1,-1,-1,-1,-6,-2,-1,-1
1528874384671585,-1,0,-2,-1,2,2,-1,-2
1528874384686545,-1,-2,-1,-1,-3,-3,1,2
1528874384686545,0,-3,-1,-2,1,1,0,1
1528874384701505,-1,0,1,-1,1,1,2,1
1528874384701505,-1,2,2,1,1,1,1,0
1528874384708487,0,0,0,-1,0,-1,-1,0
1528874384708487,1,4,0,0,1,0,1,0
1528874384723446,2,1,0,-1,0,1,-1,1
1528874384723446,-1,-4,-1,-2,-1,0,-1,-1
1528874384731426,1,0,-2,-2,-3,0,-2,-1
1528874384731426,-1,1,0,-2,-1,-1,-1,0
1528874384746384,-3,-1,0,-1,-1,-1,0,-1
1528874384746384,0,-3,-2,0,-2,-1,0,-1
1528874384761345,-1,-1,-1,-2,-1,-2,-1,-1
1528874384761345,0,-2,0,2,1,-5,-1,-1
1528874384768325,-2,-2,0,1,2,0,-2,-2
1528874384768325,-1,-2,1,-1,-2,-1,-1,-2
1528874384784283,-2,-2,-5,-5,-3,-1,-1,-2
1528874384784283,-1,0,-1,2,-2,0,0,1
1528874384791265,0,0,-2,3,-1,-2,-1,-2
1528874384791265,-2,-1,1,-2,-1,1,-1,-1
1528874384806228,-2,-1,0,2,-1,0,0,-2
1528874384806228,-1,0,-1,-2,-2,1,-1,-2
1528874384814246,-3,0,-2,0,-1,1,-2,0
1528874384814246,-1,-2,-1,0,-3,-2,-2,-2
1528874384829200,-1,-1,-1,-2,0,-2,1,-2
1528874384829200,-2,1,-4,-9,-5,-2,0,0
1528874384844176,0,-1,1,0,0,0,0,-1
1528874384844176,-2,-1,1,5,-1,0,-1,-3
1528874384851108,0,0,3,1,0,0,-2,0
1528874384851108,0,-2,-4,-1,1,-1,-2,-2
1528874384866066,0,0,2,2,-1,-3,-6,-3
1528874384866066,0,-1,3,3,-1,0,8,2
1528874384874045,-3,-3,-12,-10,-1,0,-2,-4
1528874384874045,-2,-1,-5,-17,-3,-1,0,0
1528874384889035,0,1,0,-13,-6,-2,-1,0
1528874384889035,1,-2,3,-3,-1,-2,-3,-1
1528874384903996,-2,-2,-2,-10,-3,-2,-2,-1
1528874384903996,-2,0,4,12,0,-1,-1,-1
1528874384910938,-2,-1,-10,-4,0,0,2,-1
1528874384910938,-2,-1,-4,5,-1,-1,-1,-1
1528874384925904,1,0,-1,-2,-1,0,-8,-1
1528874384925904,-2,-4,1,1,-1,-2,2,-3
1528874384933914,1,1,3,-4,-3,0,-1,-1
1528874384933914,0,-2,5,8,-3,-1,-4,-2
1528874384948879,-1,-1,3,3,0,-2,0,-2
1528874384948879,-3,-7,-12,0,-1,-1,4,0
1528874384963798,0,0,4,1,-1,-3,-3,-1
1528874384963798,-3,-3,-7,-8,-1,-1,-6,-2
1528874384971776,-1,-1,3,5,-1,1,1,0
1528874384971776,-1,2,0,3,0,0,-1,1
1528874384986736,-2,-1,-1,-1,-2,0,1,-1
1528874384986736,-1,-5,-8,-8,-3,-1,0,0
1528874384993717,0,1,2,2,-1,-2,-2,-1
1528874384993717,-1,-2,-1,3,-1,0,-4,1
1528874385008681,-2,-3,-6,3,-1,-2,-2,-1
1528874385008681,-1,3,0,-3,-2,-3,-2,-1
1528874385023638,-1,0,0,-1,0,0,3,-2
1528874385023638,-1,0,-1,-2,-3,-1,-1,1
1528874385031616,0,-1,0,0,-1,1,-1,-1
1528874385031616,1,5,9,3,3,0,0,-1
1528874385053588,-1,2,-1,-4,-2,0,1,1
1528874385053588,-1,3,5,2,1,-2,-7,-3
1528874385061582,-1,0,2,0,-1,-8,-24,-5
1528874385061582,-3,-7,-6,-3,-1,2,32,7
1528874385083507,-4,-8,-8,1,-1,0,-12,-4
1528874385083507,0,2,1,-2,-2,-5,-16,-1
1528874385099484,2,1,1,4,2,1,11,4
1528874385099484,-1,1,2,-2,-3,-1,6,1
1528874385106464,-1,2,2,1,-1,0,-6,-6
1528874385106464,-2,-5,-6,-4,0,-1,-12,-5
1528874385121421,-7,-7,-3,-8,-5,0,11,1
1528874385121421,4,1,2,-2,-2,1,-2,-3
1528874385136382,4,-1,4,4,4,4,15,14
1528874385136382,-2,1,-9,-7,-6,-4,2,-2
1528874385151326,-7,-3,1,6,2,-2,-11,-4
1528874385151326,-6,-12,-13,-4,3,5,0,1
1528874385166283,2,-1,1,1,0,-1,-2,0
1528874385166283,-11,-1,-2,-4,-6,-5,-12,-4
1528874385174271,17,4,1,-7,0,3,13,2
1528874385174271,6,3,10,6,1,-2,1,-1
1528874385189221,-5,-1,-2,2,1,-4,-19,-9
1528874385189221,-3,3,0,-1,-6,-3,-2,-4
1528874385204155,1,0,3,2,3,2,-14,-1
1528874385204155,1,2,-2,-7,-2,-2,14,-5
1528874385211138,-3,7,9,5,-3,-3,5,1
1528874385211138,0,0,-6,1,-1,0,4,1
1528874385226097,-4,-5,-9,-6,-3,-3,-11,-2
1528874385226097,4,7,16,4,0,-2,2,0
1528874385234076,-2,-5,-21,-12,-2,-5,-14,-1
1528874385234076,7,6,5,0,2,5,9,6
1528874385249178,-1,3,3,0,0,5,2,-1
1528874385249178,-1,-2,-1,3,0,-3,1,6
1528874385264153,-5,-3,4,3,-3,-10,-50,-9
1528874385264153,1,-8,-13,-4,0,8,65,17
1528874385272016,-4,-2,8,4,-1,0,15,0
1528874385272016,-5,-5,-11,-10,-5,-5,-25,-9
1528874385286972,5,1,-1,-1,-3,-4,-6,-6
1528874385286972,-7,0,6,5,4,0,-2,-6
1528874385294098,6,4,10,5,2,3,-5,3
1528874385294098,-5,-3,-21,-13,-5,-2,2,-3
1528874385309075,-2,-3,-8,-3,-4,-5,7,-2
1528874385309075,-2,4,18,7,2,-5,-16,-6
1528874385324017,-6,-5,-2,-4,1,1,16,-4
1528874385324017,2,2,-9,-3,-3,-1,-19,0
1528874385331020,-3,-4,10,1,-1,-6,-9,3
1528874385331020,-1,4,4,-6,-7,-2,9,1
1528874385346011,2,5,-5,0,2,-2,-11,0
1528874385346011,-2,2,-3,5,1,2,2,0
1528874385354089,-5,-14,5,1,-3,-7,-16,-9
1528874385354089,-4,-8,-5,-1,7,1,9,2
1528874385368943,-1,15,0,-4,-4,1,17,-6
1528874385368943,8,2,-3,0,-4,-2,3,2
1528874385384003,-4,-10,-2,-1,-4,3,4,1
1528874385384003,0,-5,5,7,7,4,0,11
1528874385391173,-7,-12,-5,-5,-5,-8,-14,-17
1528874385391173,0,18,22,5,0,0,-10,-6
1528874385406291,0,1,-12,-6,3,3,15,7
1528874385406291,1,-2,-2,-1,-5,-1,-13,-1
1528874385414124,-2,-1,-3,3,8,4,5,2
1528874385414124,-3,-12,1,5,3,1,-18,0
1528874385429232,4,7,-7,-3,19,11,-2,10
1528874385429232,-8,-8,2,4,4,-3,-10,-8
1528874385444190,-3,0,5,1,5,-6,-41,-11
1528874385444190,10,9,9,4,7,10,43,11
1528874385451015,1,-5,-7,-7,-12,-9,-19,-8
1528874385451015,-3,-7,0,2,2,3,23,-2
1528874385466143,1,6,-3,-6,-11,-2,-12,-1
1528874385466143,-5,-7,-25,-15,-5,-6,-20,-12
1528874385474116,-5,-11,-5,0,0,-13,-66,-9
1528874385474116,2,-6,-2,1,-1,8,55,19
1528874385489286,3,16,5,5,-2,1,13,4
1528874385489286,-6,-10,2,-1,-4,-14,-43,-12
1528874385504240,1,-7,-25,-8,0,3,-7,-1
1528874385504240,6,6,-10,-7,1,9,33,15
1528874385511225,-5,-4,-1,-10,-15,-9,-8,-10
1528874385511225,0,6,11,7,8,5,25,-3
1528874385526026,-3,2,7,6,1,-5,-14,2
1528874385526026,-5,-7,-5,5,6,-8,-27,-7
1528874385534318,3,-1,-2,-4,-2,13,63,21
1528874385534318,-1,2,-3,-6,-11,-3,-28,-7
1528874385549137,1,-1,0,-4,1,-3,-2,6
1528874385549137,4,2,9,3,2,3,8,7
1528874385556257,-7,4,-5,-4,-6,-2,26,1
1528874385556257,-2,-17,-7,1,-2,-1,-16,-3
1528874385571234,4,8,9,7,2,3,-30,-2
1528874385571234,6,9,-8,-2,-4,4,44,11
1528874385586174,-12,-14,-3,-16,-14,-3,27,-4
1528874385586174,3,0,6,1,-6,-22,-28,-6
1528874385594153,-4,-6,-16,-8,6,16,-28,-14
1528874385594153,-1,6,-5,13,19,13,12,10
1528874385608977,5,-3,-26,-23,-7,8,15,10
1528874385608977,-8,-10,6,12,7,-2,6,-2
1528874385616997,5,2,-6,3,-5,-3,21,10
1528874385616997,-3,-7,3,-9,-14,-16,-30,-9
1528874385631948,-1,3,5,1,-2,-2,-1,3
1528874385631948,-1,0,-7,-4,-3,4,14,-5
1528874385639033,0,-5,4,1,-4,-8,-30,-3
1528874385639033,-1,6,-13,-2,4,9,36,2
1528874385654032,0,-1,2,3,-5,-2,13,6
1528874385654032,0,-3,-9,-14,-6,-10,-20,-6
1528874385669110,-5,0,-8,7,8,10,8,1
1528874385669110,0,4,4,-1,-3,-7,-30,-5
1528874385676998,1,9,8,2,5,4,21,4
1528874385676998,0,5,-9,-3,0,0,-30,-7
1528874385691341,1,-1,4,6,4,4,10,5
1528874385691341,-6,-8,-13,-3,1,-4,-27,-5
1528874385706302,1,-2,27,7,0,-3,17,0
1528874385706302,-3,5,-2,-6,-6,-1,10,1
1528874385721141,-2,-4,-5,-3,-2,-5,-13,3
1528874385721141,0,-15,-3,3,2,4,24,0
1528874385744108,1,6,4,5,2,1,-8,6
1528874385744108,-1,4,3,-4,-9,-7,-19,-9
1528874385751207,-2,-4,-7,-5,-2,0,-4,-6
1528874385751207,-2,2,6,7,2,0,7,2
1528874385766048,-2,-4,-9,-15,-7,0,17,-1
1528874385766048,2,23,-15,-15,-2,0,8,-1
1528874385781012,-2,-5,-16,-2,9,2,3,-1
1528874385781012,-3,0,-2,-4,-7,-8,-31,-5
1528874385796938,3,2,-4,4,-9,-5,-7,-6
1528874385796938,-8,-23,9,-4,1,-5,-28,-11
1528874385810959,2,-1,-4,4,3,2,14,5
1528874385810959,-7,-8,-6,-2,-4,1,-8,3
1528874385818938,0,11,-10,-10,-9,-5,-2,2
1528874385818938,-4,-2,8,13,7,-5,-18,-2
1528874385833894,-10,-10,4,-4,-3,0,-6,-10
1528874385833894,-1,-4,-4,-4,-1,-13,-88,-25
1528874385848852,0,1,-7,3,1,12,81,26
1528874385848852,2,-5,-8,-3,-2,8,32,2
1528874385856831,4,4,-1,1,0,-3,-1,1
1528874385856831,2,-1,4,6,-4,-3,8,4
1528874385871738,-3,-2,3,-16,-7,-2,-40,-12
1528874385871738,-1,1,0,-9,-5,-3,-3,-1
1528874385878719,-5,-12,-16,-4,2,2,6,2
1528874385878719,4,13,-2,2,-3,-2,6,0
1528874385893679,16,15,16,6,4,3,11,10
1528874385893679,-8,-12,-18,-9,-6,-2,14,14
1528874385908639,-12,-12,-12,-3,1,-12,-51,-15
1528874385908639,-12,-6,-1,-2,-4,-10,-16,-16
1528874385916618,-7,-10,-3,0,0,2,8,-10
1528874385916618,6,6,5,1,-8,3,24,9
1528874385931578,-2,-5,-1,5,10,-2,-7,-1
1528874385931578,-1,0,8,-1,5,-7,-25,-5
1528874385938559,-3,-5,-10,-7,-4,-6,-19,0
1528874385938559,4,0,-16,-9,-15,2,19,-1
1528874385953519,1,-5,-14,-5,8,5,30,1
1528874385953519,-3,0,15,8,14,26,105,26
1528874385968486,-10,-1,-1,1,-5,-9,-39,-4
1528874385968486,17,25,13,2,-16,11,105,-3
1528874385976495,-6,-3,3,-1,-7,-8,-19,7
1528874385976495,0,-3,6,-4,-7,-16,-67,-14
1528874385991420,3,4,2,-2,-6,-5,1,3
1528874385991420,-6,-6,-13,-4,-7,-5,-10,1
1528874385998452,-7,-6,-3,-7,-6,-12,-37,-17
1528874385998452,-4,-1,3,-7,-3,1,13,-10
1528874386021393,3,1,6,3,-2,10,-12,8
1528874386021393,2,-5,-10,-5,1,5,13,3
1528874386029355,6,9,9,12,8,0,-22,-3
1528874386029355,-2,-5,2,3,-8,-6,-5,4
1528874386044313,5,11,4,6,9,-2,-16,-7
1528874386044313,1,1,11,4,10,7,6,21
1528874386059237,-6,-10,-7,-6,-12,-10,-19,-13
1528874386059237,-3,-3,0,-2,-8,-4,-11,3
1528874386066229,-1,4,5,0,-1,1,20,5
1528874386066229,-1,-6,-3,1,-3,-6,-29,-12
1528874386074197,0,-1,-5,-9,-5,-5,4,1
1528874386074197,-1,1,-2,-4,-3,-7,-28,-8
1528874386081322,-3,0,7,8,0,8,21,2
1528874386081322,1,3,-2,1,5,0,-10,-3
1528874386096238,-2,-7,-4,-5,-1,-3,-10,-2
1528874386096238,1,-2,-2,2,-2,-3,-3,0
1528874386111234,4,4,2,4,6,2,6,-2
1528874386111234,-3,-2,-8,-6,-8,-10,-31,-4
1528874386119213,0,-6,-5,-2,-4,3,18,6
1528874386119213,1,5,5,-2,1,-1,-7,-8
1528874386141021,-2,-8,-11,-3,0,-3,-11,-2
1528874386141021,1,4,2,4,1,-2,-5,-1
1528874386148998,0,-2,-2,-7,-4,1,22,9
1528874386148998,-2,-4,-6,-4,-4,-7,-18,-10
1528874386164161,-2,-3,0,1,-1,-4,-17,-6
1528874386164161,-2,-1,0,0,0,-1,-1,-1
1528874386179092,-1,1,-1,-2,-2,1,15,2
1528874386179092,-1,0,0,0,-3,-1,-1,2
1528874386186163,0,-4,0,-1,-2,-2,-1,0
1528874386186163,-1,0,0,1,1,0,2,-2
1528874386194198,-3,-3,-3,-3,-1,0,5,1
1528874386194198,-2,1,-1,-3,-3,-3,-13,-7
1528874386201036,-4,-1,-3,-2,-3,-1,-2,-1
1528874386201036,0,2,1,0,-1,-1,-1,-1
1528874386209012,-1,-3,-2,0,1,-2,-1,-2
1528874386209012,-1,-3,-4,-3,-2,-2,-12,-4
1528874386223975,0,-2,0,-2,-2,1,12,1
1528874386223975,-2,0,-4,-1,0,-4,-17,-8
1528874386231950,2,1,3,1,1,-1,10,6
1528874386231950,-2,-5,-1,8,-1,3,-2,-3
1528874386245916,-2,-6,-11,-18,-1,1,19,7
1528874386245916,0,-3,-3,-6,0,0,-1,-2
1528874386254447,-2,1,2,-3,-1,-3,-12,-5
1528874386254447,2,-1,0,7,2,1,-1,2
1528874386261587,-2,-2,7,6,0,-7,-14,-5
1528874386261587,-3,-3,-4,16,6,4,9,3
1528874386269441,0,0,0,-9,-4,1,3,0
1528874386269441,-1,-1,-4,-12,-7,-5,-8,-2
1528874386291351,-1,-1,2,10,1,-1,-4,-2
1528874386291351,-2,0,-1,-9,-5,-1,3,3
1528874386299432,0,-1,3,7,3,0,0,0
1528874386299432,0,0,1,1,1,-2,0,-1
1528874386313635,0,-1,-5,-10,-1,0,-3,-2
1528874386313635,0,2,6,12,0,-1,3,0
1528874386322457,-1,-1,-3,-11,-4,-4,-10,-4
1528874386322457,0,1,4,4,-2,3,12,1
1528874386329467,-1,1,-27,-30,-1,0,0,0
1528874386329467,-3,-4,3,7,-2,-4,-8,-5
1528874386344399,-4,-6,12,15,-5,-2,9,-2
1528874386344399,2,1,-11,-29,-2,-1,3,0
1528874386351381,-2,-3,0,-2,0,-1,-4,0
1528874386351381,0,-1,-7,-7,-1,-1,10,1
1528874386368336,0,2,5,13,2,1,-8,-2
1528874386368336,-1,-2,-4,-9,-1,1,1,-2
1528874386374317,-2,0,5,5,0,-1,-3,-4
1528874386374317,-3,-2,-2,-1,-2,-1,-3,-1
1528874386381300,-1,-3,2,1,-1,-1,-2,-2
1528874386381300,-2,-7,-6,4,0,0,3,1
1528874386389276,-2,-12,-1,-1,-3,-1,-4,-1
1528874386389276,0,4,0,5,-1,0,-3,-2
1528874386404376,0,-6,-4,-3,-3,-1,-6,-1
1528874386404376,1,4,-18,-7,-2,-3,-8,-2
1528874386419210,-5,6,27,13,2,-1,-1,-3
1528874386419210,-1,-18,31,10,6,4,1,3
1528874386434156,-2,12,9,22,0,-4,-3,-2
1528874386434156,-2,-6,5,-21,-6,-3,-3,-2
1528874386449119,5,7,21,10,4,2,-1,3
1528874386449119,0,-1,-11,-6,-2,0,3,0
1528874386456100,-1,5,-4,3,2,-2,-5,-2
1528874386456100,-2,-2,8,22,5,1,3,1
1528874386471242,-3,-13,-31,-30,-6,-2,-5,-2
1528874386471242,-3,-2,10,5,-1,-2,3,-2
1528874386486202,-2,-8,4,1,3,1,3,2
1528874386486202,-1,-2,-6,-9,0,-2,-6,-4
1528874386501162,2,5,3,8,0,0,1,0
1528874386501162,0,-1,4,1,1,-1,3,0
1528874386509296,-2,-8,-7,-5,-3,0,-4,-1
1528874386509296,-3,-2,-3,-6,0,0,-2,0
1528874386524430,-1,-2,-1,-2,-3,-2,1,1
1528874386524430,-4,4,-5,1,-1,-2,-1,-1
1528874386539433,-1,-4,6,-10,-5,0,0,0
1528874386539433,2,5,0,-9,0,0,0,-1
1528874386546372,-2,-9,4,8,2,1,0,-1
1528874386546372,-1,5,13,1,0,-1,1,0
1528874386561493,1,-1,-13,-6,-2,-1,0,-2
1528874386561493,0,1,2,1,-2,-2,-2,-3
1528874386576293,0,2,-6,-4,-2,-2,-3,-3
1528874386576293,-1,1,2,-1,0,-1,0,-1
1528874386591252,-2,-3,-1,3,0,-1,-4,-1
1528874386591252,-1,-1,-4,-6,-2,-2,1,2
1528874386606352,-3,1,-3,1,-1,-3,2,-3
1528874386606352,-1,-2,-3,0,1,1,4,0
1528874386614220,-2,-4,-6,-5,0,-2,-4,0
1528874386614220,0,-2,1,-1,-2,1,1,-2
1528874386629311,0,5,4,5,0,1,3,-2
1528874386629311,0,-3,5,-10,-5,-1,-2,1
1528874386644111,-1,-1,-1,3,0,2,0,0
1528874386644111,-1,-14,-15,-7,-3,-1,0,-3
1528874386659070,-2,-1,-2,-1,0,0,1,0
1528874386659070,0,-1,1,1,-1,-1,-1,-1
1528874386666051,1,0,-7,-6,-2,-2,-3,-1
1528874386666051,-3,-8,-6,-1,-2,1,0,-1
1528874386681168,-1,-2,1,1,0,-2,1,-3
1528874386681168,-2,2,-4,-4,-2,0,-3,-2
1528874386689147,1,-5,3,-3,-1,-1,0,-3
1528874386689147,0,1,1,2,0,-1,0,0
1528874386703951,-2,-1,-5,-1,-3,0,-3,-1
1528874386703951,0,5,5,0,0,0,-1,0
1528874386719285,-1,-1,0,-1,-2,-2,-1,-2
1528874386719285,-2,0,2,-1,-2,-2,-1,-1
1528874386726118,-2,-1,-3,-3,-2,-1,-1,0
1528874386726118,-1,1,-2,2,-1,0,-1,0
1528874386741219,-1,-1,-3,-1,1,1,-1,1
1528874386741219,-1,-2,-1,-1,-2,-1,-1,-2
1528874386749047,0,3,-3,-5,-1,-1,-1,-2
1528874386749047,-2,-6,-8,1,-2,-3,-1,-1
1528874386765024,1,-1,-5,-4,-3,-3,-1,-2
1528874386765024,0,3,2,-1,0,-1,-2,-1
1528874386778357,-1,-1,3,-3,-3,-1,-1,-1
1528874386778357,-3,-7,1,1,0,0,0,-1
1528874386786479,-1,1,1,0,-2,-1,-1,0
1528874386786479,0,1,0,-3,-1,0,1,-1
1528874386801347,0,-1,1,3,1,-1,-1,1
1528874386801347,-1,1,-2,0,-1,-1,-3,-1
1528874386809279,0,0,-3,-3,-1,0,1,-1
1528874386809279,-1,0,-1,-1,-1,-3,-1,-1
1528874386824233,-2,-2,0,1,-2,-2,-1,0
1528874386824233,-2,-5,-5,-2,-2,-1,0,-2
1528874386839350,0,0,0,0,0,-1,-1,-1
1528874386839350,-1,0,0,-1,-3,-2,-2,-2
1528874386846332,-3,-3,1,2,-2,-2,-1,-2
1528874386846332,0,2,0,-4,-1,-1,-2,-1
1528874386861359,-1,-1,-2,-1,-1,-1,0,0
1528874386861359,-1,-4,0,1,1,-1,0,2
1528874386869509,-1,-1,-3,-2,0,0,0,-1
1528874386869509,-1,-4,-1,-1,0,0,0,0
1528874386883836,1,0,0,0,0,-1,-1,0
1528874386883836,0,1,-2,-2,-1,-1,-2,-1
1528874386898847,-2,-2,-3,-2,-2,0,-1,-1
1528874386898847,-2,0,-1,0,-2,-3,-1,0
1528874386906034,-1,3,2,-3,-1,-2,-1,0
1528874386906034,-2,-2,-3,-1,-1,-1,-1,-1
