timestamp,emg1,emg2,emg3,emg4,emg5,emg6,emg7,emg8
1528882199558729,16,4,7,-20,-56,-37,-13,1
1528882199558729,-34,0,-6,3,8,7,3,-3
1528882199573689,19,7,36,45,37,1,0,3
1528882199573689,-2,-5,27,10,12,29,11,3
1528882199575685,2,-6,-90,-22,8,1,-3,-3
1528882199575685,0,-6,23,-5,-37,-24,-3,-1
1528882199587663,-7,-1,9,-49,-30,-22,-11,-1
1528882199587663,-1,1,4,22,12,9,5,-1
1528882199596630,2,2,19,4,-7,3,-2,1
1528882199596630,-5,-5,-15,1,17,-3,9,3
1528882199611588,7,6,-14,2,6,13,-4,-1
1528882199611588,-8,-6,5,-15,-22,-27,-2,-4
1528882199612586,0,1,7,4,14,37,7,6
1528882199612586,-3,2,-13,24,15,19,5,1
1528882199633529,13,4,12,13,-7,-20,5,2
1528882199633529,-4,-3,-8,-3,5,-16,-6,-2
1528882199635524,-20,-11,11,-20,27,-10,-2,-7
1528882199635524,7,13,-6,14,-62,-16,-10,-4
1528882199647492,0,-2,29,-16,29,28,6,-4
1528882199647492,-1,6,-11,8,-48,-18,2,3
1528882199656475,0,-24,-4,-7,27,18,5,4
1528882199656475,-2,-14,-13,24,3,-15,-7,-4
1528882199671429,-15,5,-29,-53,-7,1,-3,-7
1528882199671429,5,-2,14,16,20,-24,-2,-4
1528882199672426,3,0,33,17,26,56,-9,2
1528882199672426,3,-3,-10,-41,-43,-33,-3,0
1528882199693370,-2,1,3,14,-25,-25,-2,-1
1528882199693370,-4,-12,22,-22,56,58,20,0
1528882199695364,1,4,-23,32,-22,-2,-3,-8
1528882199695364,4,3,9,-64,-11,-5,-14,-4
1528882199707332,-9,-2,-19,23,-75,-18,3,4
1528882199707332,5,1,-20,-7,-42,-55,-13,5
1528882199716308,11,20,43,-24,77,26,-1,3
1528882199716308,0,-11,16,87,82,22,9,1
1528882199731282,-2,-4,-15,-33,-1,10,1,2
1528882199731282,-4,-8,-4,-12,-2,20,-5,-2
1528882199732267,5,4,-26,-10,-78,-52,0,-1
1528882199732267,-6,0,14,-54,-18,-24,-8,-3
1528882199753210,-3,20,-38,-3,-2,-10,-17,-6
1528882199753210,7,-25,37,17,-9,42,11,1
1528882199755204,-9,65,7,8,18,-19,16,7
1528882199755204,-13,-68,-3,-5,13,38,-18,-18
1528882199767185,4,-1,4,24,17,-12,0,3
1528882199767185,2,24,-14,-10,-12,-12,-24,-1
1528882199776149,1,-30,23,13,-2,-44,-25,-4
1528882199776149,6,21,-17,1,7,53,57,6
1528882199791109,-1,-1,-6,5,-3,-4,-2,-3
1528882199791109,-14,-14,28,-19,-10,-4,-4,-6
1528882199793106,8,-4,-19,10,0,-26,-6,4
1528882199793106,0,14,-6,1,-6,-7,-23,2
1528882199814048,-2,-20,9,-1,6,13,4,-2
1528882199814048,-4,14,27,8,13,23,9,-1
1528882199815045,-5,-20,-42,-7,-20,-35,-32,-15
1528882199815045,6,7,-45,-14,-3,-13,18,3
1528882199827030,-10,-4,37,9,10,16,-1,12
1528882199827030,-15,6,-48,0,-5,-18,0,-2
1528882199835989,-5,-7,3,7,-11,4,-5,-1
1528882199835989,10,-3,-6,-8,-3,-10,4,3
1528882199852945,11,22,10,7,10,-10,-4,2
1528882199852945,-2,-20,-12,-2,-5,3,11,15
1528882199854939,0,15,-2,-2,-8,-3,5,-33
1528882199854939,-1,-16,9,-6,-1,-16,-34,-20
1528882199873888,1,4,-22,3,1,9,9,-4
1528882199873888,8,5,7,-6,-7,-23,-13,-3
1528882199874885,-20,9,24,14,1,-25,-2,8
1528882199874885,0,7,24,5,3,74,13,5
1528882199886852,0,-4,-19,-16,-9,6,9,-7
1528882199886852,1,-2,-38,-9,-4,-5,-6,-7
1528882199895830,7,-20,3,29,19,0,-2,9
1528882199895830,-4,14,1,-1,-5,-26,-1,1
1528882199910791,3,-20,0,0,-3,-3,-4,-1
1528882199910791,1,7,7,-11,-5,-2,-3,-1
1528882199912783,-7,-6,-1,-15,-1,26,14,1
1528882199912783,2,2,5,15,4,-25,-9,5
1528882199933727,5,-6,-7,-7,-8,5,3,0
1528882199933727,-3,11,1,-6,-2,-4,-4,-8
1528882199934725,4,-7,27,-4,-11,16,4,0
1528882199934725,10,13,6,-13,1,-3,5,8
1528882199947691,-2,-12,-42,40,18,-28,-11,-3
1528882199947691,-16,16,4,1,-3,-9,-30,-10
1528882199956674,-18,-60,-52,-24,-13,22,29,-4
1528882199956674,2,-1,25,-4,6,47,33,11
1528882199970628,3,9,24,-4,-7,-5,-2,2
1528882199970628,20,-10,-13,-1,1,-7,-8,-1
1528882199972637,-5,7,27,9,6,-25,-12,-11
1528882199972637,-19,24,1,-5,-6,-5,-7,-11
1528882199993567,0,-24,-4,1,4,14,11,20
1528882199993567,-2,15,13,14,8,12,10,-10
1528882199995562,1,-6,-10,-19,-21,-40,-24,5
1528882199995562,10,-8,-1,10,11,-5,-16,-3
1528882200007537,-30,7,-16,-6,0,49,36,0
1528882200007537,30,-3,-3,2,3,-3,7,-20
1528882200016507,13,3,0,1,1,45,25,20
1528882200016507,-23,-15,3,-8,-16,-32,-20,-19
1528882200031467,3,14,1,12,7,-36,-27,4
1528882200031467,-17,-21,2,-3,-5,-30,-16,-4
1528882200032464,33,21,10,10,3,67,47,21
1528882200032464,-7,-6,-12,-14,-8,-32,-12,33
1528882200054404,13,24,4,-31,-15,5,0,-21
1528882200054404,-30,-12,21,-3,-21,-9,-29,-40
1528882200055402,2,-14,-40,46,39,-20,-18,-17
1528882200055402,6,2,0,8,6,9,2,12
1528882200067370,-10,14,19,14,17,-94,-83,-16
1528882200067370,47,9,-29,-25,-21,-14,15,50
1528882200076346,-55,7,19,-13,-12,91,69,-27
1528882200076346,13,-23,-39,-2,-8,-32,-51,-32
1528882200090310,-10,-12,-8,-14,-17,-30,-17,-32
1528882200090310,1,10,20,9,6,-16,-3,12
1528882200097291,18,10,-9,-14,-12,-40,-40,11
1528882200097291,-14,5,9,10,8,6,29,3
1528882200113299,5,-4,14,-31,-16,11,5,11
1528882200113299,-5,-17,-18,21,1,2,-10,-4
1528882200115242,0,4,16,-9,-31,-1,2,-3
1528882200115242,6,6,-12,67,77,17,13,2
1528882200127244,0,-9,4,-5,-5,6,5,6
1528882200127244,-11,-1,-24,4,6,37,31,4
1528882200136201,-3,1,-14,-23,-5,-18,-17,-3
1528882200136201,8,6,19,-24,-30,-24,-11,1
1528882200150149,0,9,19,-14,-10,19,12,-1
1528882200150149,3,-16,30,67,21,14,10,4
1528882200157130,-14,-56,-29,-58,-13,-30,-24,-3
1528882200157130,-6,14,-9,64,5,4,-4,-6
1528882200173124,-1,-25,17,-40,11,21,22,4
1528882200173124,-2,-1,-39,-35,-12,11,5,-2
1528882200175083,2,10,-23,7,-15,-16,-16,1
1528882200175083,3,-2,-29,-33,0,8,14,1
1528882200187105,7,19,42,83,20,31,13,7
1528882200187105,-6,4,-36,5,25,-1,0,2
1528882200196056,-1,-12,101,-14,-13,-10,-7,-4
1528882200196056,-9,-33,-17,-48,-16,-7,-2,-5
1528882200209993,-1,13,-40,-25,-37,-18,-7,-3
1528882200209993,-3,-12,14,-2,10,5,0,-2
1528882200216971,5,24,-30,7,13,5,1,0
1528882200216971,4,11,65,3,-12,0,-1,-2
1528882200233979,-10,-24,-61,-21,0,-11,-4,-4
1528882200233979,-6,10,98,-17,-13,10,5,-2
1528882200234949,4,5,10,21,11,-10,-3,3
1528882200234949,3,8,41,11,-9,-15,-13,2
1528882200246930,-1,-10,-22,4,10,23,16,-1
1528882200246930,-1,14,-36,0,11,13,12,3
1528882200255881,-1,-1,-77,-13,-12,-25,-21,-2
1528882200255881,-4,9,11,-2,-4,18,26,1
1528882200270880,1,6,14,14,15,5,-9,2
1528882200270880,-17,-22,-7,-11,-15,1,6,-20
1528882200276810,12,-14,-20,0,7,-8,-23,17
1528882200276810,-4,4,43,-2,-5,-20,-28,-22
1528882200293765,2,-13,-103,-8,1,2,3,0
1528882200293765,-3,11,50,0,1,3,-1,-2
1528882200294792,-11,14,74,29,9,-3,4,-8
1528882200294792,-30,7,-63,-27,-12,-2,12,-2
1528882200315707,8,-41,-27,-4,-6,9,-3,2
1528882200315707,-13,-1,20,3,2,-16,-19,-4
1528882200317702,4,9,-38,11,11,-1,28,4
1528882200317702,7,3,38,-4,-5,22,4,1
1528882200338657,1,13,64,12,0,15,4,-1
1528882200338657,-1,-9,-105,-15,-2,-1,8,9
1528882200340749,2,2,-14,-2,3,-5,-1,-3
1528882200340749,5,5,50,16,1,-2,-5,5
1528882200353605,-5,3,-70,-20,-4,-22,-3,-9
1528882200353605,1,-35,-11,-13,-8,-2,-19,-8
1528882200355600,-15,24,30,7,0,7,-6,14
1528882200355600,11,-10,-47,-12,0,-31,1,5
1528882200375910,4,18,45,13,2,33,15,1
1528882200375910,-6,5,17,5,3,0,7,-4
1528882200377907,5,-13,18,0,-3,6,4,-10
1528882200377907,-7,-4,-56,-10,-3,-8,-17,3
1528882200391141,1,10,30,-10,-7,-11,8,8
1528882200391141,-8,-6,25,3,0,-19,-12,7
1528882200397110,17,0,-6,4,1,25,9,-25
1528882200397110,2,-13,-30,-9,-1,-4,-5,21
1528882200413115,0,-4,57,9,-1,-7,-6,-7
1528882200413115,1,-11,-54,-8,-3,0,3,4
1528882200415114,-2,-2,-47,-9,1,-1,-5,5
1528882200415114,-3,11,78,22,1,-1,-11,-13
1528882200436771,-4,4,-17,1,2,-13,5,0
1528882200436771,8,5,5,5,-1,-34,-8,-3
1528882200438521,-5,-4,-72,-16,-4,47,17,16
1528882200438521,-11,-12,-13,-9,-1,12,11,-19
1528882200450222,2,-20,-33,-6,-3,-6,-14,-9
1528882200450222,10,18,34,9,0,-8,-2,9
1528882200458813,-4,0,31,3,0,-9,-9,-5
1528882200458813,-6,8,-8,-1,3,4,7,-3
1528882200471777,-1,-9,12,1,-4,-10,-5,6
1528882200471777,-7,-28,-9,-24,-9,13,3,-7
1528882200480759,-6,19,22,14,0,-12,-3,-3
1528882200480759,10,16,-10,-6,7,12,2,7
1528882200496100,-13,-8,30,16,5,-5,-20,-17
1528882200496100,25,28,17,3,2,4,15,6
1528882200498095,-18,-10,-35,-27,-8,11,5,-3
1528882200498095,-1,-35,59,25,-1,-15,-1,-8
1528882200519074,0,70,8,-5,-2,-45,-36,7
1528882200519074,-16,8,-7,7,5,104,20,38
1528882200520043,6,11,27,8,3,-41,-8,-15
1528882200520043,7,-13,-65,-34,-12,5,10,-15
1528882200532004,0,-33,3,-9,-4,-7,2,9
1528882200532004,35,19,26,4,-10,-66,-57,-18
1528882200540984,-18,23,23,14,10,8,30,21
1528882200540984,-6,-9,-26,-1,0,47,-20,-26
1528882200555940,-17,-23,-8,-24,-10,-8,-3,-11
1528882200555940,-5,-5,-26,-35,-28,-16,-4,-3
1528882200557934,10,12,3,33,29,11,-7,-11
1528882200557934,39,-23,-14,11,6,-123,-84,6
1528882200578877,24,39,27,30,27,127,119,36
1528882200578877,-71,-68,-7,-13,-3,-6,24,-37
1528882200579875,13,-2,20,-19,-18,-38,-50,-4
1528882200579875,-14,35,20,2,-6,-11,-10,9
1528882200591843,-13,-78,-56,-24,-15,-40,-34,6
1528882200591843,13,46,-13,5,0,7,2,2
1528882200608801,-26,15,29,7,2,-6,-29,-71
1528882200608801,6,97,-16,2,8,-36,-29,57
1528882200615170,10,-62,-4,-4,2,91,84,-12
1528882200615170,6,6,19,7,-4,-1,32,11
1528882200622347,-7,-32,-27,-20,-21,-17,-13,15
1528882200622347,12,-14,8,-1,-8,-34,-48,-79
1528882200639294,-20,26,17,8,2,-53,-38,-11
1528882200639294,18,-8,15,1,1,0,-10,6
1528882200640035,18,52,-1,2,4,7,16,15
1528882200640035,-14,-27,-24,-4,-1,20,31,29
1528882200652816,10,77,29,7,-2,-4,-11,8
1528882200652816,-1,-9,-20,13,18,3,2,-14
1528882200661821,-2,-29,25,7,-5,-37,-32,22
1528882200661821,-15,-10,-12,-8,-6,12,5,-1
1528882200676204,24,13,-22,-4,-4,68,58,-18
1528882200676204,-31,18,58,13,12,3,-10,8
1528882200682992,14,11,-5,-2,0,-16,-3,7
1528882200682992,-8,-49,-30,-7,-4,31,14,-18
1528882200698783,11,30,-1,0,-4,-117,-74,59
1528882200698783,8,2,0,-2,-6,58,24,-16
1528882200699761,-15,-38,-8,-12,-7,4,34,-3
1528882200699761,5,-6,7,1,-1,6,12,2
1528882200711780,-27,-27,-8,-1,-1,-16,0,-46
1528882200711780,29,21,-8,5,0,-62,-27,49
1528882200721709,-33,-21,-1,-8,-2,60,27,-26
1528882200721709,-3,8,-3,-12,-6,5,18,20
1528882200735686,-8,-10,8,2,-3,-9,7,-13
1528882200735686,13,-12,-25,-10,-5,-7,-22,-4
1528882200742714,11,-11,27,26,13,1,-2,0
1528882200742714,2,1,0,0,3,20,35,7
1528882200758654,-4,-10,-2,0,4,5,-19,1
1528882200758654,-16,-16,-1,-9,-6,-10,-6,-21
1528882200760651,22,-3,-33,-10,-7,-8,-6,21
1528882200760651,-8,-9,10,22,17,14,7,-1
1528882200772619,-7,8,-8,-2,-7,-16,-23,-9
1528882200772619,0,1,-10,-7,1,13,7,-1
1528882200781542,1,-7,1,-15,-11,-10,-4,-2
1528882200781542,3,2,2,2,-2,3,13,4
1528882200795773,-1,-5,9,-8,-5,1,-6,-4
1528882200795773,5,3,-15,10,-1,-12,-2,-4
1528882200802755,-7,-5,6,-3,-1,1,2,2
1528882200802755,-9,2,27,-38,-10,11,7,-7
1528882200819030,5,9,6,63,24,10,-5,4
1528882200819030,-5,-21,26,16,16,0,-3,-5
1528882200820772,2,-4,-37,0,-10,-7,-2,0
1528882200820772,2,12,-8,22,14,3,5,2
1528882200841424,-8,-11,-35,-37,2,-6,-10,-5
1528882200841424,2,9,14,-23,-7,1,4,-2
1528882200843088,-1,-10,-25,35,8,2,2,-3
1528882200843088,5,1,-18,-54,-28,-8,2,3
1528882200856332,0,5,83,98,30,3,-5,-1
1528882200856332,-8,-11,-8,10,22,-3,-1,-4
1528882200862300,2,-2,8,-36,-15,-6,-4,3
1528882200862300,-2,-10,-49,-4,-11,-1,-1,-4
1528882200878031,-2,0,1,-98,-48,-8,-7,-2
1528882200878031,0,10,41,48,15,2,2,-1
1528882200884986,-2,-16,-6,-25,-4,2,1,0
1528882200884986,3,7,7,-71,-21,-5,1,2
1528882200900934,-5,-18,-32,69,39,7,-2,-4
1528882200900934,2,10,59,-5,-23,-8,-4,-1
1528882200902926,2,-4,-31,-6,-4,-3,-2,0
1528882200902926,-3,-2,-20,9,3,-1,1,-2
1528882200914894,-2,-5,2,-32,-21,-9,-6,-3
1528882200914894,-2,0,-34,-19,-7,-2,1,-3
1528882200923870,2,3,30,12,6,1,-2,-2
1528882200923870,-4,-4,8,5,-4,1,0,0
1528882200939194,1,1,1,8,9,0,-2,-1
1528882200939194,1,-10,-27,-5,-4,-5,-2,0
1528882200940859,-5,3,5,-9,2,4,3,-2
1528882200940859,8,7,16,23,3,0,-1,0
1528882200961827,-1,3,-6,-33,-17,-7,-2,-1
1528882200961827,-9,-6,-28,24,18,7,3,-2
1528882200962766,0,1,21,20,0,-2,-1,0
1528882200962766,-7,-4,4,9,16,4,2,-1
1528882200974995,6,4,-9,-4,-7,-4,-4,1
1528882200974995,5,6,-2,-28,-16,-5,-2,1
1528882200984412,-7,-7,6,-2,-3,0,0,-2
1528882200984412,0,-4,17,31,8,0,-1,-3
1528882200998887,-4,-4,-20,-20,-6,0,0,-1
1528882200998887,-2,-3,-12,-3,-3,-2,-2,-1
1528882201000626,3,3,12,12,3,0,0,2
1528882201000626,-4,-2,-4,-6,-6,-1,-1,1
1528882201022848,-3,0,5,-4,-1,-1,1,-1
1528882201022848,-2,-6,-10,-4,-5,-3,-2,-1
1528882201024563,3,3,4,-5,4,-1,-2,0
1528882201024563,-3,-3,-5,2,-3,1,-1,-2
1528882201034566,-1,-3,-4,1,-4,-3,-4,1
1528882201034566,0,-1,-7,-4,-2,-1,0,-1
1528882201043787,2,1,-4,-6,0,2,0,-1
1528882201043787,-2,0,3,5,0,0,0,-1
1528882201057749,-1,0,3,1,-2,-2,-2,1
1528882201057749,-3,-2,-12,-8,-4,0,0,-3
1528882201058756,0,1,7,-1,-1,-3,-1,1
1528882201058756,-1,-1,1,6,0,0,0,-1
1528882201080688,-2,-4,-3,-4,-3,0,-1,-3
1528882201080688,-2,-3,-8,-5,1,1,2,0
1528882201081686,0,2,1,-3,-4,0,-1,-1
1528882201081686,0,2,6,10,8,-3,0,1
1528882201102911,-3,-3,-5,2,-4,-1,-2,-3
1528882201102911,-1,1,-3,-7,-5,-1,-1,-1
1528882201103920,0,0,-1,2,-4,-7,-4,-2
1528882201103920,2,-4,0,-4,-12,-6,-8,-1
1528882201118414,-5,-4,2,-2,4,8,1,0
1528882201118414,2,11,0,3,5,2,0,4
1528882201119361,-1,3,1,3,4,4,2,-4
1528882201119361,-2,-1,0,-1,-5,-12,-10,-25
1528882201141220,5,0,3,-7,-5,0,-1,20
1528882201141220,1,-6,-4,-2,-2,-2,0,-1
1528882201141220,7,6,-6,4,7,3,3,7
1528882201141220,14,1,2,0,-4,1,4,3
1528882201164047,-15,-2,-3,1,2,-5,-4,-18
1528882201164047,-4,-1,-1,0,-1,-8,-6,2
1528882201164047,6,-7,1,-3,-2,-2,-11,19
1528882201164047,0,4,0,3,1,2,10,1
1528882201178273,-8,-20,-1,-4,-4,-1,0,1
1528882201178273,-4,7,-9,-5,-6,-8,-4,-6
1528882201179270,-3,-3,-1,0,1,0,2,-8
1528882201179270,-5,3,2,-2,-2,4,-1,4
1528882201200731,7,3,-3,-2,5,-4,2,11
1528882201200731,0,-5,-5,2,2,5,2,-1
1528882201201723,-5,0,2,-3,-5,-8,-5,-8
1528882201201723,0,-5,-4,-5,-6,-2,-2,3
1528882201223671,-1,2,2,2,-3,4,3,-14
1528882201223671,1,-4,-1,-5,-6,-7,-4,0
1528882201224406,1,4,3,12,20,17,7,-3
1528882201224406,-8,-2,1,2,0,-2,-3,3
1528882201238637,1,0,-2,0,-2,-9,-4,-4
1528882201238637,-2,-3,-1,-4,-8,5,-4,-7
1528882201238637,-1,1,1,-5,-8,-10,-3,1
1528882201238637,-5,-6,-11,-1,0,2,2,-1
1528882201260310,2,7,8,0,-2,3,0,-1
1528882201260310,-1,-8,-14,-5,-2,-3,0,1
1528882201261308,-3,3,8,-1,-3,-6,-2,-1
1528882201261308,-2,-7,-6,0,6,2,-2,-1
1528882201283815,0,0,-3,-4,-4,-3,-4,-3
1528882201283815,1,-1,2,1,0,-1,0,1
1528882201284555,-1,7,3,-2,-3,-1,-2,-4
1528882201284555,-3,-7,-5,-1,-3,-1,-1,-3
1528882201298629,0,2,-4,1,4,3,1,3
1528882201298629,-1,0,7,-1,2,2,1,-1
1528882201298629,-4,-3,13,-1,-2,-2,0,-3
1528882201298629,0,3,3,3,2,-1,-1,2
1528882201320543,-1,-5,-44,-7,-3,-4,-3,0
1528882201320543,0,2,19,5,0,1,-1,-3
1528882201321567,-2,-7,-29,-8,-7,-1,-1,-1
1528882201321567,-1,-2,0,-3,0,0,-1,-1
1528882201343482,-1,-2,28,1,-2,-3,-1,-2
1528882201343482,0,2,-8,1,0,-1,0,-1
1528882201344479,-1,-2,2,1,-1,-1,1,1
1528882201344479,-1,0,-8,0,1,-2,-2,1
1528882201357443,-1,-1,-11,-4,-2,0,0,-2
1528882201357443,-1,-5,4,-3,-3,-1,-2,-2
1528882201358441,1,1,5,0,-1,-2,1,-1
1528882201358441,-3,2,17,2,-1,-5,-4,-3
1528882201388417,-1,-7,-14,-2,1,2,3,-1
1528882201388417,-4,-10,-19,-1,-2,-1,-1,-2
1528882201389372,-1,-1,-13,0,-1,-1,-1,-3
1528882201389372,-1,4,27,-1,-1,-2,0,-1
1528882201394400,2,6,13,6,0,-2,-2,-1
1528882201394400,0,-2,6,2,0,-1,1,1
1528882201403397,-4,-9,-4,-5,-3,1,-2,-3
1528882201403397,-2,0,-3,0,-3,0,2,-1
1528882201418339,0,-1,1,-1,0,1,-2,-1
1528882201418339,-3,-2,-10,-1,0,-1,-2,-2
1528882201418339,1,-1,3,-3,-3,-3,-1,-2
1528882201418339,0,4,18,3,0,0,0,-1
1528882201441278,-2,-3,-21,-1,-1,-2,-2,-2
1528882201441278,-1,-2,-20,-3,-3,-4,-3,9
1528882201441278,0,2,27,2,1,-1,-1,-1
1528882201441278,0,-6,-21,-6,-1,0,2,12
1528882201455225,-5,1,6,-3,-3,-5,-5,-20
