timestamp,emg1,emg2,emg3,emg4,emg5,emg6,emg7,emg8
1528448374649662,-1,1,1,-1,0,-1,-1,0
1528448374649662,0,-1,1,-2,0,-1,0,0
1528448374657642,-1,-1,-1,0,0,1,-2,1
1528448374657642,0,0,-2,-1,0,0,-2,0
1528448374663625,-1,0,-2,-1,-1,-1,0,1
1528448374663625,-1,-1,-1,0,0,0,-1,-1
1528448374670607,0,-2,-2,-1,-1,0,1,-1
1528448374670607,-1,0,1,-2,-1,-1,-2,-1
1528448374708506,-1,-2,0,1,0,0,1,-1
1528448374708506,-1,1,0,-1,-1,-2,-1,-1
1528448374715486,-1,0,0,-2,0,-1,-2,-2
1528448374715486,0,-2,0,1,-1,-1,0,0
1528448374730448,0,-1,0,-1,-2,-1,0,-1
1528448374730448,-1,-2,2,-1,-2,0,-1,-1
1528448374738426,-2,1,0,0,1,-1,0,-1
1528448374738426,-1,-1,-1,0,-2,-1,-1,-2
1528448374761365,-1,-1,-1,-1,-1,-2,-2,-1
1528448374761365,0,0,1,-1,-1,-1,0,-1
1528448374775327,1,1,-1,-1,0,0,-1,-1
1528448374775327,-1,-1,0,-1,0,-1,-2,0
1528448374791284,-1,-2,-1,-2,1,1,0,0
1528448374791284,-2,1,0,0,0,-1,-2,-2
1528448374798265,-1,-2,-1,0,-1,-2,0,0
1528448374798265,-1,1,-2,-2,-1,-1,0,-1
1528448374813226,1,-1,-2,0,-2,-1,-2,-1
1528448374813226,-1,0,0,-2,-2,0,-2,0
1528448374821203,-1,0,0,0,-1,-2,1,-1
1528448374821203,-1,-3,1,0,0,0,-1,-1
1528448374836163,0,0,-1,0,0,-1,-1,-1
1528448374836163,-1,-2,0,-1,0,0,0,0
1528448374851125,0,0,0,-1,-1,-1,0,-1
1528448374851125,0,-2,0,-1,-2,0,-1,-1
1528448374861097,-2,-2,1,-2,0,-1,-2,-1
1528448374861097,-1,-1,-2,0,-2,1,0,-2
1528448374873065,0,-1,-1,0,0,-1,0,-1
1528448374873065,-1,-1,-1,0,1,0,-1,-1
1528448374881045,0,-2,0,1,0,-1,-1,0
1528448374881045,0,0,-1,-1,-1,0,0,-1
1528448374896005,-1,-1,-1,0,-1,-1,-1,-1
1528448374896005,-1,0,-3,0,0,0,-2,0
1528448374910965,-1,-3,1,0,-1,0,-1,-2
1528448374910965,0,0,-1,-1,-2,-1,-1,-2
1528448374917944,0,1,0,0,-1,0,-1,-1
1528448374917944,0,-1,0,-1,0,-1,-1,-1
1528448374932905,0,2,-4,-1,-2,0,0,0
1528448374932905,0,0,-1,-1,0,0,-1,1
1528448374940885,0,-2,-1,0,-1,-2,-1,0
1528448374940885,0,-1,0,0,1,-1,2,-1
1528448374970805,0,-1,-1,0,-2,-1,-2,-1
1528448374970805,0,-1,1,-1,-1,-1,-2,-1
1528448374977785,-2,-1,0,-1,-1,0,-1,-1
1528448374977785,0,-1,0,-1,-2,0,0,-1
1528448374985766,1,-1,0,-1,-2,-2,-1,-1
1528448374985766,-2,-1,-1,1,-1,-1,1,1
1528448374993744,-1,0,-1,0,-1,-1,-1,-2
1528448374993744,1,1,-1,-1,-2,0,-3,-1
1528448375000725,0,-2,-1,0,-2,0,1,-2
1528448375000725,-1,-2,-1,1,-2,-1,0,-1
1528448375015686,-1,0,-1,-3,0,0,-1,2
1528448375015686,-3,-1,-1,0,1,-1,-1,0
1528448375023664,-1,0,0,-1,0,0,0,1
1528448375023664,0,-2,-2,-2,0,-1,0,0
1528448375038623,-1,-1,-1,0,-1,0,0,-2
1528448375038623,0,-1,-2,-2,0,-1,1,-1
1528448375045604,-1,-1,-1,-2,0,1,0,-1
1528448375045604,-1,1,0,-2,-1,-3,-1,0
1528448375053585,0,-1,-2,-1,0,-1,-1,1
1528448375053585,-2,-2,-2,0,1,-1,1,0
1528448375060564,-2,-1,-1,-1,-1,-1,-2,-1
1528448375060564,0,0,-1,-2,0,0,-1,0
1528448375075525,0,-1,-1,0,-1,0,0,-1
1528448375075525,-1,0,-1,1,-1,-1,0,-2
1528448375083504,-1,1,0,-1,1,-2,0,0
1528448375083504,0,-1,0,0,0,0,-1,0
1528448375098463,1,0,1,-2,-1,-1,-1,0
1528448375098463,0,-2,0,-1,0,0,0,1
1528448375105445,-1,0,-1,0,-2,1,-2,-1
1528448375105445,-1,0,-1,1,-2,1,-2,-2
1528448375113423,0,-1,0,0,0,-1,0,1
1528448375113423,0,0,-2,-1,0,0,-2,0
1528448375128383,0,-1,0,-1,-2,0,-1,1
1528448375128383,-2,-1,-1,-1,-1,1,0,-2
1528448375143344,0,-1,-1,1,-1,-2,-1,-2
1528448375143344,0,0,1,-1,-1,-1,0,-1
1528448375150326,-1,-1,-2,-1,0,-1,-2,-1
1528448375150326,0,0,-1,-2,-1,0,-1,-2
1528448375165286,0,-1,-1,-1,-1,0,0,-2
1528448375165286,-1,-3,-1,-1,-1,-1,1,0
1528448375173265,0,0,-2,-1,0,-1,0,-1
1528448375173265,-1,-1,-1,0,0,-1,-2,-1
1528448375181242,0,1,-1,-1,0,0,0,0
1528448375181242,-1,-2,-3,-1,0,0,0,0
1528448375196220,-2,-1,0,0,-1,0,0,-1
1528448375196220,1,0,0,0,-2,-1,-2,0
1528448375203184,0,-2,0,0,-1,0,0,0
1528448375203184,-1,1,0,0,0,-1,1,0
1528448375226128,-1,-3,0,-2,-1,1,0,1
1528448375226128,0,1,-1,-1,0,-1,-1,-1
1528448375233103,-1,-2,-2,-1,-3,-1,0,-1
1528448375233103,0,-2,0,-1,0,-1,-1,0
1528448375241085,1,0,-1,1,-1,-1,-1,0
1528448375241085,1,0,0,-1,-1,-2,0,-1
1528448375248065,1,-1,-1,0,1,0,-1,0
1528448375248065,-1,-1,-1,0,-1,0,-2,0
1528448375263025,-2,-2,0,-2,-1,-1,-1,0
1528448375263025,-1,-2,-1,1,0,-1,-2,-3
1528448375271001,0,0,-1,-1,1,-1,0,0
1528448375271001,1,-1,1,0,-1,0,-1,0
1528448375277984,0,-1,0,0,2,-2,-1,-1
1528448375277984,-1,0,-2,-1,-1,0,0,0
1528448375285963,-2,-2,-1,0,0,0,-1,0
1528448375285963,0,0,-2,1,-1,0,0,-1
1528448375292945,0,-1,-1,-1,-1,1,-1,-3
1528448375292945,-1,0,-1,0,0,-1,-1,1
1528448375300924,-1,-1,0,-1,0,-1,-1,0
1528448375300924,-2,0,-1,-1,0,-2,0,-1
1528448375315883,0,0,0,0,-1,0,2,-1
1528448375315883,0,-2,-1,0,-1,-1,0,0
1528448375322864,0,0,-1,-1,-1,-2,1,0
1528448375322864,0,0,-1,0,0,-1,0,0
1528448375337824,-1,0,0,-1,1,1,-1,-1
1528448375337824,-1,-1,1,0,-1,0,-2,0
1528448375345801,0,1,0,-1,1,-1,1,-1
1528448375345801,0,-2,1,-1,0,-2,0,-1
1528448375353781,-1,0,0,-1,-1,0,-2,-1
1528448375353781,0,-1,0,-1,-2,-1,1,-1
1528448375360765,1,0,-2,0,-1,1,0,-1
1528448375360765,0,0,-2,-1,0,0,0,0
1528448375375723,-2,-2,-2,0,-1,-2,-2,0
1528448375375723,-1,-1,-1,-1,-2,0,-1,-1
1528448375383700,0,-1,-1,0,-1,0,-1,-1
1528448375383700,-1,-1,-1,-1,-1,0,0,1
1528448375397921,-1,-2,1,0,1,-1,-1,0
1528448375397921,0,2,1,-1,1,-2,-3,1
1528448375405899,0,0,-2,0,0,-1,0,-1
1528448375405899,1,0,0,-1,0,-1,-2,-1
1528448375412883,-1,-1,0,-1,-2,-1,3,2
1528448375412883,0,-1,-3,0,-2,0,-2,-4
1528448375420890,0,1,-1,0,-2,1,-2,-2
1528448375420890,-2,-1,0,-1,-1,-2,0,-2
1528448375435819,-1,1,-2,0,0,0,-1,0
1528448375435819,-1,-1,-2,-2,0,1,1,1
1528448375442800,-1,0,0,-1,-2,-1,1,0
1528448375442800,-1,-1,0,-1,-2,1,0,1
1528448375458763,-1,1,-1,2,-1,-1,-2,0
1528448375458763,0,1,-1,-1,0,-1,1,-1
1528448375465739,-1,-1,0,0,-1,1,-1,1
1528448375465739,0,-1,1,-2,-2,2,-1,-1
1528448375473767,0,-1,-1,-2,-1,1,-2,-2
1528448375473767,0,0,-1,1,-1,0,-1,0
1528448375480713,-1,0,-1,-2,0,-2,1,0
1528448375480713,-1,-1,-1,0,0,-1,0,0
1528448375495658,0,-1,-1,0,-1,-2,1,0
1528448375495658,-1,0,0,-1,0,0,0,0
1528448375503685,-1,-1,1,0,1,0,-1,0
1528448375503685,-1,0,0,-1,0,0,-2,0
1528448375525909,-1,1,-1,1,-1,-1,-2,-3
1528448375525909,0,-1,-2,-1,-1,0,-2,-2
1528448375533663,1,-1,0,0,-1,-2,-1,0
1528448375533663,-1,-1,-1,-1,-1,-1,-1,0
1528448375541172,1,0,0,-1,-1,1,0,0
1528448375541172,-3,1,1,-3,-2,-1,1,-2
1528448375548446,-1,-1,-1,-1,-3,-2,-1,0
1528448375548446,-1,-1,-1,0,0,-1,1,-1
1528448375563749,0,0,-1,-2,-2,-2,0,0
1528448375563749,0,0,0,-1,0,-1,0,1
1528448375570714,-2,0,-1,0,0,-1,0,-1
1528448375570714,-1,0,-1,-1,-1,-1,-1,-1
1528448375578706,-2,-1,-1,-1,-1,-2,1,-1
1528448375578706,1,0,1,-1,-1,1,0,1
1528448375586626,0,-2,-1,0,-1,-1,-2,-2
1528448375586626,0,-1,-2,0,-1,-1,-1,-1
1528448375593571,1,0,-1,-2,-1,-2,0,-1
1528448375593571,-1,-2,-1,0,1,0,1,0
1528448375601336,0,1,0,0,-1,-2,-1,0
1528448375601336,0,0,-1,1,-1,0,-2,0
1528448375615542,-1,0,0,-2,0,0,-1,-1
1528448375615542,-1,-2,0,0,0,-1,0,0
1528448375623962,-3,-1,-1,0,0,0,0,-2
1528448375623962,0,0,-2,0,0,-1,1,0
1528448375638746,-1,-2,-1,1,1,-1,-1,-2
1528448375638746,-1,0,-1,0,0,0,-1,-1
1528448375645844,-1,-1,0,-1,-1,1,-2,-1
1528448375645844,0,-1,1,-2,-2,0,0,0
1528448375660553,0,-2,0,-1,-2,1,-1,1
1528448375660553,0,1,-1,-1,-1,-1,-1,-1
1528448375668532,1,-1,0,-1,0,-2,-1,1
1528448375668532,-1,-1,-2,-3,-1,-1,0,-1
1528448375675513,0,0,-1,0,1,0,1,-2
1528448375675513,0,-1,-1,1,1,-1,-1,-2
1528448375683492,-1,-1,-1,0,0,0,0,0
1528448375683492,-3,0,-2,0,-1,1,-2,0
1528448375698451,1,1,0,0,0,-1,-1,-1
1528448375698451,0,-2,0,-1,-1,0,-1,-1
1528448375713449,-1,0,-1,-2,0,0,-1,0
1528448375713449,-1,0,0,-2,0,0,0,-1
1528448375728642,1,-1,-1,-1,-1,-1,1,1
1528448375728642,0,-1,-1,-2,1,-2,0,0
1528448375736432,-1,-1,-1,0,0,-1,-2,-1
1528448375736432,0,-1,0,1,-1,-2,-1,1
1528448375743956,0,1,-1,-1,-1,0,-1,0
1528448375743956,0,-2,-2,0,0,-1,-1,1
1528448375751351,-1,0,-1,-1,-1,0,0,-1
1528448375751351,0,1,-1,1,1,-1,0,0
1528448375759185,-2,0,0,0,-1,0,-1,0
1528448375759185,-1,0,0,0,0,1,1,-1
1528448375766622,-1,0,-1,-1,-1,-1,1,-1
1528448375766622,0,-1,0,0,0,1,1,-1
1528448375781159,0,1,-1,-1,0,0,-1,-2
1528448375781159,-1,0,-1,0,-2,-1,-1,-1
1528448375788373,-1,0,-1,-1,0,-2,-1,1
1528448375788373,0,-1,-1,-1,-1,-1,0,-2
1528448375796353,-1,-2,0,-1,0,0,-1,0
1528448375796353,0,0,0,-1,-2,-2,-2,0
1528448375803335,0,-1,-1,0,-2,1,-1,0
1528448375803335,-2,1,-2,-2,0,-3,-2,-1
1528448375826278,0,-2,-1,-2,-3,1,-1,0
1528448375826278,0,-1,-2,0,-1,-1,0,-1
1528448375833296,0,-1,0,0,0,-1,1,1
1528448375833296,-1,-1,0,-2,-1,-1,1,-1
1528448375848287,0,-2,-2,-1,1,-1,0,-1
1528448375848287,-1,0,1,0,-1,0,0,0
1528448375856234,0,0,-1,-1,-1,-1,1,-1
1528448375856234,2,-3,1,0,0,1,0,-1
1528448375863721,0,1,0,0,-1,-1,-2,-1
1528448375863721,0,0,-2,0,0,-1,-2,-1
1528448375870456,-1,-1,-1,0,0,-1,-3,0
1528448375870456,1,0,0,-1,-1,-2,-1,0
1528448375878662,0,1,-1,-1,-1,-1,-2,1
1528448375878662,-1,-1,1,0,0,-1,0,0
1528448375885652,0,-1,0,-1,-1,1,-1,-1
1528448375885652,-2,0,0,1,0,-1,-2,0
1528448375901493,1,0,-1,0,-1,1,1,1
1528448375901493,-1,-1,1,-1,-1,0,0,0
1528448375908874,0,-1,-1,-1,0,-1,0,0
1528448375908874,1,-1,-2,0,0,0,-1,-1
1528448375916216,-1,-1,-1,-2,1,-1,1,-2
1528448375916216,-1,-1,-1,-1,1,0,-1,-1
1528448375923463,1,-1,0,-1,-3,0,-1,-1
1528448375923463,-3,1,-1,0,0,0,1,-1
1528448375938717,0,-1,-1,2,0,-2,-1,1
1528448375938717,-2,-2,0,-1,-3,-1,0,0
1528448375946544,0,-1,0,-1,-1,-1,-1,0
1528448375946544,-1,-1,-1,-2,-2,1,-1,0
1528448375961491,-1,-2,1,-1,-1,0,-2,0
1528448375961491,-1,0,-1,0,1,1,-1,-1
1528448375968386,-2,0,1,-1,0,1,-1,-2
1528448375968386,-1,0,-2,-1,-2,0,-1,0
1528448375983630,0,-2,0,-1,-1,0,0,-2
1528448375983630,-1,-1,-1,-3,0,-1,-1,-2
1528448375990868,-1,0,-2,-1,-1,-1,0,-1
1528448375990868,0,-3,0,-1,0,-1,0,-1
1528448376005983,-2,-1,-1,-1,-2,0,-1,-1
1528448376005983,-2,0,-1,-1,0,-1,1,0
1528448376013794,0,-1,-1,-1,-1,-2,0,0
1528448376013794,0,-2,-1,-1,0,-1,0,-1
1528448376036099,1,-2,-1,-3,-1,1,-1,-1
1528448376036099,0,0,-2,0,1,-1,-2,-1
1528448376044083,-1,1,0,0,0,-2,-2,-1
1528448376044083,0,1,0,-1,-1,-1,-2,0
1528448376058454,-1,1,-1,0,0,0,-2,0
1528448376058454,0,-2,2,0,-2,0,0,1
1528448376066565,0,-1,0,-1,0,2,-2,0
1528448376066565,-1,-1,0,1,-1,0,-1,0
1528448376080392,-1,0,-1,-1,-2,-2,0,0
1528448376080392,0,0,-1,0,0,0,0,1
1528448376096489,-1,-3,-1,0,0,-2,-2,1
1528448376096489,0,0,1,0,-1,-2,-1,0
1528448376119082,0,-1,0,-2,-1,0,-1,0
1528448376119082,-1,0,-1,-2,0,0,-1,0
1528448376126173,0,0,0,-1,-2,0,1,-1
1528448376126173,-1,-1,-3,-1,0,-1,-2,0
1528448376141149,-3,2,0,0,-1,1,0,-2
1528448376141149,-1,1,0,-1,0,0,-2,0
1528448376148888,-1,-1,-3,0,0,0,2,0
1528448376148888,-1,-1,-1,0,1,2,-1,0
1528448376163970,-1,0,-1,-1,-1,-1,-2,-1
1528448376163970,0,0,-1,-1,-1,-1,0,-2
1528448376178672,-1,0,-1,0,-1,-1,0,0
1528448376178672,-1,-3,-2,0,1,-1,-1,0
1528448376193726,0,-2,-1,0,-1,-1,0,0
1528448376193726,-2,0,0,1,-1,0,0,0
1528448376201110,-1,-1,0,-1,0,-2,-1,-1
1528448376201110,-1,0,1,0,0,-2,1,0
1528448376215751,-1,0,-1,-1,-1,-1,-1,-1
1528448376215751,0,1,0,-1,-1,1,-1,-1
1528448376230677,-1,-2,0,-2,-2,-1,1,-1
1528448376230677,-1,-1,-1,-1,-1,-1,-1,-2
1528448376238652,1,0,0,0,-1,-1,0,0
1528448376238652,0,0,0,-1,-2,0,-1,-2
1528448376253610,-1,-2,0,0,-1,0,0,-2
1528448376253610,-2,-1,1,-1,-1,1,-1,0
1528448376260627,-1,-2,0,0,0,-2,-1,-2
1528448376260627,0,0,1,0,0,-2,0,-1
1528448376275552,-1,-1,-1,-1,0,-3,-1,0
1528448376275552,-1,-1,-1,-1,-1,-2,-2,1
1528448376290513,-1,0,-3,0,-1,0,0,0
1528448376290513,0,-1,0,-1,-1,0,0,0
1528448376298525,-3,0,-1,0,-1,0,-1,0
1528448376298525,0,0,0,0,-3,0,1,-2
1528448376313502,0,0,-1,-1,2,-2,-1,0
1528448376313502,-1,0,0,0,0,-2,0,0
1528448376328465,1,-1,-1,-1,1,1,1,-1
1528448376328465,0,-2,0,0,0,1,-2,0
1528448376343430,-1,0,0,-1,1,0,-2,-1
1528448376343430,-1,0,-1,-3,0,0,0,1
1528448376358387,0,-1,-1,-1,-1,-1,-1,-1
1528448376358387,0,0,0,-1,-1,1,0,0
1528448376365364,0,0,0,-1,-1,1,-2,0
1528448376365364,-1,1,-2,-1,0,-1,0,-1
1528448376380327,-1,0,-2,0,-3,-1,0,-1
1528448376380327,-1,-1,0,0,-1,-1,-1,1
1528448376396245,0,-2,-1,-1,1,-1,0,0
1528448376396245,-2,-3,-1,1,-1,0,0,-1
1528448376410245,-1,1,0,-1,-2,0,-1,-1
1528448376410245,0,-2,0,-1,-2,0,-1,-2
1528448376418225,-1,-1,0,-1,-1,-1,0,1
1528448376418225,0,-1,0,-1,-1,0,1,0
1528448376433186,-1,-1,-1,0,2,-2,-1,0
1528448376433186,0,-1,-1,-1,-2,-1,0,-1
1528448376441110,0,1,-1,-1,-1,0,-1,-2
1528448376441110,0,0,0,0,-1,-1,1,-2
1528448376456114,-1,0,0,0,-1,-1,-1,1
1528448376456114,-1,-1,-2,-1,-1,0,-2,-1
1528448376471084,0,0,-1,0,0,1,-1,0
1528448376471084,-3,0,-1,-1,-1,0,-1,0
1528448376478010,0,0,-2,0,-1,1,-1,-1
1528448376478010,0,-1,-1,-1,0,-1,-2,-1
1528448376493005,-1,-1,-1,-1,-1,-2,0,-1
1528448376493005,0,0,-2,-1,1,-1,0,0
1528448376500951,-2,-1,0,-1,-1,-2,-1,0
1528448376500951,-1,-2,-2,-2,-3,-4,-1,0
1528448376515909,-2,-1,-3,0,0,3,0,-1
1528448376515909,-1,-1,0,1,1,-1,-1,0
1528448376530898,-1,0,-1,0,-1,1,-1,-3
1528448376530898,-1,-1,0,0,-1,0,-2,-1
1528448376538950,-1,0,1,-1,-1,0,0,0
1528448376538950,-1,1,-1,-2,0,-1,0,-2
1528448376561053,-1,-1,-2,0,-2,-1,-2,0
1528448376561053,0,0,-1,-1,-1,-1,-1,0
1528448376569023,0,0,-1,-2,0,-2,-1,-1
1528448376569023,-2,-2,-1,-1,-1,0,0,1
1528448376584155,-1,-3,0,0,0,-2,-2,0
1528448376584155,0,0,0,-1,-1,-1,1,1
1528448376599042,-2,-3,-2,-2,-3,1,0,-1
1528448376599042,0,0,-2,-1,-1,-2,-1,-1
1528448376606188,0,-2,-1,-1,-2,-1,-1,-1
1528448376606188,-2,-1,-1,-1,1,1,-1,0
1528448376621145,-1,1,-2,2,0,-1,-1,-1
1528448376621145,1,0,-1,-1,-1,-1,-1,-2
1528448376643826,1,-3,-2,-1,-1,0,1,-1
1528448376643826,-1,0,-1,0,-1,-1,-2,0
1528448376658793,1,1,-1,0,-1,0,0,-1
1528448376658793,0,-1,0,0,0,1,-2,0
1528448376666590,-2,0,-1,-2,-1,0,2,1
1528448376666590,-1,0,-1,-1,-1,0,1,1
1528448376680831,0,-1,-1,-1,0,1,0,0
1528448376680831,-1,0,-3,-1,1,0,0,0
1528448376696026,1,1,0,-1,0,2,-1,-1
1528448376696026,0,0,1,1,-1,0,-2,-1
1528448376710909,-1,0,1,-1,-1,-1,0,-2
1528448376710909,-3,1,0,0,-1,-1,-1,2
1528448376718870,-1,0,0,-1,-2,-2,1,0
1528448376718870,0,0,0,-2,-1,-1,-1,0
1528448376733616,0,-1,-2,-1,-1,-2,-2,1
1528448376733616,-2,0,0,-1,0,-1,-1,-2
1528448376740813,0,1,0,2,0,0,0,-1
1528448376740813,0,-1,-1,0,-2,-1,-1,0
1528448376756090,-1,-1,0,-1,0,0,-1,-1
1528448376756090,0,-2,-2,-1,-1,2,0,-1
1528448376771118,-2,-1,-1,-1,0,0,-2,1
1528448376771118,-2,0,3,0,0,0,-2,-2
1528448376779047,-1,-2,1,0,-2,-2,-1,-1
1528448376779047,1,0,-1,0,-1,-1,1,0
1528448376794064,1,0,0,-1,-1,2,-1,-2
1528448376794064,0,-2,-1,-1,0,-1,1,0
1528448376801043,-1,-1,-1,-2,0,-1,1,-1
1528448376801043,1,-2,0,-1,0,-3,0,-1
1528448376816002,-2,-2,-1,0,1,-2,1,-1
1528448376816002,-2,-1,-1,-1,0,0,-1,1
1528448376830716,-1,-1,-1,0,-1,-1,-1,-1
1528448376830716,0,0,-1,0,-1,0,-1,-1
1528448376838947,0,-2,0,-2,-1,-1,-2,0
1528448376838947,0,-1,0,-2,-1,-2,0,0
1528448376860881,0,0,1,-1,0,-1,0,1
1528448376860881,0,-1,-1,-1,-1,0,0,0
1528448376868860,1,-1,-1,0,-1,-2,0,0
1528448376868860,0,-2,0,0,-1,0,-1,-2
1528448376883984,-1,0,-1,-2,0,0,0,0
1528448376883984,0,-1,-2,-1,-2,-1,-2,0
1528448376898529,-1,0,0,-1,-1,0,-1,-2
1528448376898529,0,-2,0,-1,0,1,-1,0
1528448376906092,-2,1,-2,-1,-1,0,-1,-1
1528448376906092,0,2,1,0,-1,0,-2,-2
1528448376914111,1,-2,-1,-1,-1,-1,0,-1
1528448376914111,0,-1,1,-2,-1,-2,0,-1
1528448376920790,0,0,1,-2,-1,-1,-1,0
1528448376920790,-1,-1,-2,1,0,0,-1,1
1528448376935742,-1,0,-2,1,-1,0,0,-1
1528448376935742,-2,0,0,0,-1,-1,0,-2
1528448376950705,-2,-1,-1,1,-1,0,0,0
1528448376950705,1,-1,-1,0,0,0,-2,0
1528448376958896,0,-1,-1,1,-1,0,-2,0
1528448376958896,0,-1,-1,-2,0,-1,0,-1
1528448376973972,-1,0,-1,0,1,-1,0,-1
1528448376973972,1,-1,0,0,0,-1,-1,-1
1528448376980827,0,-1,0,-1,-1,-1,-1,-1
1528448376980827,-1,0,-1,0,0,-1,-1,-2
1528448376996265,0,-2,-1,-1,1,-1,-2,0
1528448376996265,1,-2,-2,0,-1,-1,0,0
1528448377011145,0,-2,-2,0,1,-2,0,-3
1528448377011145,-2,-1,-1,0,-2,0,0,-1
1528448377018963,0,0,1,0,-2,-1,0,-1
1528448377018963,-1,0,1,0,-1,-1,-1,1
1528448377034041,0,-2,0,0,-2,-1,-2,-1
1528448377034041,-1,1,-2,-2,0,-2,-1,0
1528448377041067,-1,-1,-1,0,-1,-1,-1,1
1528448377041067,-1,-1,0,-1,-1,-1,-1,-1
1528448377056526,-1,0,-1,-2,-1,-1,1,0
1528448377056526,0,-1,0,-1,-1,-1,-1,-2
1528448377070378,0,0,0,-1,-1,0,0,-1
1528448377070378,0,0,-2,1,-1,1,1,1
1528448377078355,-1,-1,-2,-1,1,-1,-1,-1
1528448377078355,1,-1,-1,-1,-1,1,-1,-1
1528448377093313,1,-1,-2,0,1,0,0,1
1528448377093313,0,0,-1,0,-1,0,0,0
1528448377101279,1,-2,-2,0,-1,0,0,-1
1528448377101279,-1,0,-2,1,-1,0,0,-1
1528448377116213,0,-1,-1,1,0,1,0,0
1528448377116213,1,-3,-1,0,1,1,0,-1
1528448377131183,-2,0,0,-1,-1,-2,0,-1
1528448377131183,0,-1,-1,-1,0,-2,-1,-1
1528448377138155,0,0,-1,-2,0,-1,-2,-1
1528448377138155,-1,-2,-1,-1,0,-1,-1,0
1528448377153167,-1,0,0,-1,-1,0,-1,-2
1528448377153167,0,-2,0,0,-1,-2,-1,0
1528448377161347,0,-1,1,-2,-2,0,-1,0
1528448377161347,-2,0,-2,0,0,-1,-1,0
1528448377176324,-1,1,-1,0,0,0,1,-1
1528448377176324,-1,0,-1,0,-1,-1,0,0
1528448377191140,1,-2,0,-1,-2,-1,-1,0
1528448377191140,-1,1,1,-2,-2,-1,-3,-1
1528448377199003,-1,0,-1,-2,-2,-2,-2,0
1528448377199003,-1,0,0,0,0,0,1,-1
1528448377213965,-2,-1,0,0,-2,-1,-2,0
1528448377213965,0,0,0,-1,0,-1,0,-1
1528448377220809,-1,0,-1,-1,-1,-1,-2,-1
1528448377220809,0,0,0,-2,0,0,0,-2
1528448377235759,-2,-4,1,0,-1,-1,0,-1
1528448377235759,0,-1,-2,-1,-1,-2,-2,0
1528448377250991,2,-1,0,0,-1,-2,-1,-1
1528448377250991,-1,0,-1,0,-1,0,-1,-2
1528448377258243,-1,-2,-1,1,1,-1,0,-1
1528448377258243,-2,-1,-2,-2,-1,-2,-2,0
1528448377273963,-2,0,1,-1,1,-1,0,-1
1528448377273963,-3,-2,0,-1,-1,1,-1,0
1528448377280915,0,0,-2,-2,0,-2,0,1
1528448377280915,0,-1,1,0,-1,1,-1,0
1528448377296183,0,1,0,-1,-1,0,-1,-1
1528448377296183,-2,-2,0,-1,-1,-4,0,2
1528448377311145,-1,0,-1,-1,-1,-1,1,-1
1528448377311145,0,0,0,-1,-2,-2,0,-1
1528448377318942,-2,-2,-2,-1,-1,-1,0,0
1528448377318942,-1,-2,-1,0,-1,0,0,-1
1528448377332848,0,-1,0,2,0,-1,-2,-1
1528448377332848,-1,-2,-1,-1,0,1,0,0
1528448377340825,0,-1,0,1,0,-2,0,-1
1528448377340825,-1,-1,0,-1,-1,0,-1,-2
1528448377355788,-1,-1,-1,-1,-1,0,0,1
1528448377355788,1,0,0,-1,-1,0,1,-1
1528448377371101,-1,-1,0,-1,0,1,1,0
1528448377371101,0,0,-2,0,0,-1,0,0
1528448377379122,-1,1,1,-1,-1,0,-1,1
1528448377379122,-1,0,-1,0,-1,-1,-2,-2
1528448377393870,0,1,-1,-2,-2,-1,-1,-2
1528448377393870,-1,-2,-1,0,0,-1,-2,-1
1528448377401583,-1,1,-2,0,-1,0,0,-2
1528448377401583,-1,0,-1,1,0,0,0,-1
1528448377415848,-1,-2,0,0,-1,-2,-1,-2
1528448377415848,-1,0,-1,-1,0,-1,-1,1
1528448377430763,0,-1,-2,1,-1,1,-1,0
1528448377430763,-1,-2,-1,-2,-1,-2,0,2
1528448377446471,-1,-1,-1,0,0,0,-2,0
1528448377446471,1,1,-1,-1,0,-1,0,0
1528448377468878,-1,1,0,-3,-1,0,-1,0
1528448377468878,-1,-1,-1,-1,-1,0,-1,0
1528448377475837,0,-2,1,-1,-1,-1,0,-1
1528448377475837,0,-1,1,-1,1,1,-1,0
1528448377491083,0,0,0,-1,-1,-1,-1,1
1528448377491083,0,-2,-2,-1,0,1,-1,0
1528448377506549,-1,-1,-1,-1,0,-1,-1,-1
1528448377506549,-2,-1,-2,-2,-1,-1,0,-1
1528448377521505,1,-1,-1,0,-1,1,0,0
1528448377521505,-1,-2,0,-2,0,-2,-1,-2
1528448377535746,0,0,-2,-2,1,0,-1,-1
1528448377535746,-2,0,-1,0,-2,-2,0,-1
1528448377550447,1,1,-1,-2,-1,0,-1,1
1528448377550447,1,-1,0,0,0,1,-1,0
1528448377558649,-2,-2,1,-1,-1,0,-1,-1
1528448377558649,0,-2,-1,1,0,-1,-1,1
1528448377573637,-2,-2,0,0,-1,-1,-1,0
1528448377573637,-1,-2,-1,-1,-1,-1,-1,0
1528448377580582,-1,-2,1,0,-1,-1,-1,1
1528448377580582,0,0,1,0,0,2,-2,-1
1528448377596468,0,0,0,-2,0,-1,0,1
1528448377596468,-1,0,-2,0,-2,-1,0,-1
1528448377611275,0,0,0,0,-1,1,0,-2
1528448377611275,-3,-2,-1,0,-1,0,-2,-2
1528448377618255,0,1,-2,0,0,-1,-1,0
1528448377618255,-1,0,1,0,0,0,0,0
1528448377633804,1,-2,-2,-2,1,0,-1,-2
1528448377633804,-1,-1,-1,0,-1,1,0,1
1528448377641614,-1,-1,-2,-1,0,-1,0,-1
1528448377641614,0,0,-1,-1,0,-1,0,1
1528448377663836,-1,-2,0,0,0,0,-1,-1
1528448377663836,2,0,-1,0,-1,-1,-1,-1
1528448377678230,0,0,0,-2,0,-1,1,0
1528448377678230,0,-1,-1,-2,0,-3,-1,-1
1528448377686517,0,-1,0,-2,-1,-1,-1,-2
1528448377686517,-1,-2,-2,-2,-1,-2,-2,-1
1528448377701530,-1,0,-2,0,-2,0,-1,-1
1528448377701530,-1,1,1,0,-1,-1,-1,-1
1528448377708933,0,-1,-1,-1,0,-1,1,-1
1528448377708933,-2,-1,2,-1,1,0,-2,1
1528448377716044,-1,0,0,-1,-2,-2,1,0
1528448377716044,-1,0,-1,-1,0,-2,0,0
1528448377724177,0,-1,-2,-1,-1,0,0,0
1528448377724177,0,1,0,-1,-1,-1,1,-1
1528448377745964,1,1,0,0,-2,-2,-2,-2
1528448377745964,0,0,-1,0,0,0,-1,0
1528448377761159,1,1,0,0,0,0,-1,-1
1528448377761159,-2,-1,-1,0,-2,-1,-1,-1
1528448377769164,-2,0,-1,-1,-2,-1,0,-1
1528448377769164,0,-1,0,-2,0,0,0,-1
1528448377783288,-1,-1,-1,0,-1,-1,1,-1
1528448377783288,-2,1,-1,-1,0,-1,-2,-1
1528448377790776,0,0,0,-1,-1,-1,-1,0
1528448377790776,1,-1,-1,0,0,-1,-1,-1
1528448377798880,-2,0,-3,-1,-1,1,-2,0
1528448377798880,-2,-2,-1,0,-1,-1,0,-2
1528448377813636,0,-1,-2,0,0,0,-1,-2
1528448377813636,1,-1,-1,1,1,-2,0,1
1528448377821487,0,-1,-2,-1,1,-1,-1,1
1528448377821487,-1,-2,0,-1,-1,-2,0,0
1528448377836538,-1,0,0,-1,-1,1,-2,-1
1528448377836538,-2,-1,-1,-3,-1,-1,0,-1
1528448377843852,-2,0,-1,0,-1,-1,1,-1
1528448377843852,-2,-2,-1,-1,-1,0,0,-2
1528448377857986,-1,0,0,0,-1,0,-1,-1
1528448377857986,-2,-1,1,-1,-1,0,-1,0
