timestamp,emg1,emg2,emg3,emg4,emg5,emg6,emg7,emg8
1529298230273129,0,-2,-3,3,1,0,-1,0
1529298230273129,-2,-4,-5,-2,-2,0,0,0
1529298230280112,-1,2,-2,2,-2,1,-1,-1
1529298230280112,-3,2,1,0,0,-3,-1,-1
1529298230280112,-2,-2,-1,-1,-2,-1,1,-2
1529298230280112,0,2,2,0,0,-3,-1,-2
1529298230282106,0,-2,0,-2,-1,-2,0,0
1529298230282106,-1,-1,-1,0,-3,0,-3,-2
1529298230295070,-1,2,1,-1,-1,0,-2,1
1529298230295070,-1,-2,2,-1,-1,0,-1,-1
1529298230299060,2,-3,-3,-2,1,-2,-1,-2
1529298230299060,-1,-1,0,0,0,0,-1,-1
1529298230308036,-1,-2,0,-4,-2,-2,-1,1
1529298230308036,1,-2,0,-3,-1,2,-1,1
1529298230323993,-2,0,0,0,0,-1,-1,-1
1529298230323993,0,-3,0,0,0,3,0,-1
1529298230330975,-1,1,-2,-1,1,1,0,2
1529298230330975,1,1,-6,-1,0,-1,-1,0
1529298230340948,-3,-3,1,-1,-1,0,2,-2
1529298230340948,1,2,2,-2,0,-4,1,2
1529298230354911,2,-2,-2,1,0,-4,-2,-4
1529298230354911,-1,1,-1,2,0,1,-2,-1
1529298230359897,1,-2,-3,-1,-2,-1,0,0
1529298230359897,-1,-1,-5,0,0,-2,1,-1
1529298230404777,2,-1,-1,-1,-1,0,2,-1
1529298230404777,0,2,-1,0,-2,-1,-1,-2
1529298230413753,-3,1,-1,0,-1,-1,0,-2
1529298230413753,2,-2,-2,-1,-2,-1,0,-1
1529298230414752,-1,-4,-1,-2,-1,-1,-4,0
1529298230414752,-1,-1,-3,0,-2,-2,2,-1
1529298230415748,0,1,2,-2,1,-1,2,-1
1529298230415748,-1,1,-1,0,1,0,-2,-1
1529298230418740,0,-1,0,2,-1,2,0,-3
1529298230418740,-1,2,2,-3,-1,1,-4,0
1529298230427716,-3,0,-4,0,2,-3,-2,0
1529298230427716,0,-2,-3,0,0,-1,0,0
1529298230435695,-3,-1,-5,-1,-1,-2,0,2
1529298230435695,0,-2,-4,0,-2,1,1,2
1529298230449657,1,-1,2,0,-2,-1,-1,-1
1529298230449657,-1,-2,2,-2,-1,2,-1,1
1529298230458633,1,2,1,-1,0,0,-1,-2
1529298230458633,-2,-1,-4,1,-1,1,0,0
1529298230464617,0,-1,-1,-1,-1,0,-2,1
1529298230464617,-3,2,0,-1,0,-3,0,0
1529298230480574,0,2,-1,-3,-1,0,1,-1
1529298230480574,1,-4,1,-1,-4,1,-4,0
1529298230486559,1,-4,-3,-3,0,0,1,-1
1529298230486559,-1,-1,-2,-1,-3,-3,-6,-1
1529298230495535,-2,1,-2,-3,0,-1,3,1
1529298230495535,-1,1,0,0,1,-5,-13,-4
1529298230509497,0,1,-2,0,-3,-4,-1,-1
1529298230509497,1,-1,-1,1,3,-2,1,-2
1529298230518473,-1,2,-1,0,-4,-4,-4,-2
1529298230518473,-1,-2,-1,-2,0,5,5,1
1529298230524457,0,0,-1,-2,-2,1,-1,0
1529298230524457,1,4,5,2,1,4,3,-3
1529298230539418,-1,-4,-2,2,3,3,6,5
1529298230539418,-3,-3,-1,-3,1,-3,-1,-4
1529298230546399,-4,0,-4,-3,-5,-1,-6,-3
1529298230546399,-4,-2,0,-1,-2,0,0,-2
1529298230555396,5,4,4,2,0,2,2,6
1529298230555396,0,0,4,1,3,3,6,-4
1529298230569338,-1,-1,1,1,-1,2,3,2
1529298230569338,1,1,1,-2,-1,-2,-23,-1
1529298230578314,-4,-8,-4,-3,-1,0,27,9
1529298230578314,-6,-5,3,0,-1,-5,-26,-9
1529298230584297,6,-1,6,1,0,6,6,9
1529298230584297,0,7,3,3,-1,-2,5,-4
1529298230599257,-1,-1,-1,-1,-2,-2,-11,1
1529298230599257,-1,-7,-15,-9,-5,-8,-8,0
1529298230606261,-10,-9,-6,-6,-5,-3,19,-7
1529298230606261,7,8,13,4,6,8,10,13
1529298230615256,2,1,-2,2,-1,-2,-11,-3
1529298230615256,-2,3,-1,3,-1,1,11,-1
1529298230629188,1,3,-5,-4,-2,-6,-13,-3
1529298230629188,-5,-4,-6,-5,-5,-2,-1,-8
1529298230638153,-2,-8,0,-3,0,2,0,-9
1529298230638153,7,9,10,5,5,7,17,19
1529298230644138,-5,-8,-9,-1,-3,1,-5,-8
1529298230644138,-1,-3,-2,-1,-2,1,6,-8
1529298230659097,2,5,7,2,1,3,2,3
1529298230659097,1,-3,-3,-2,-4,-2,-2,3
1529298230667075,-2,-1,-7,-1,-1,-4,-26,-14
1529298230667075,-3,-5,-6,-3,-1,-3,-9,4
1529298230676052,1,1,4,2,-2,-2,0,8
1529298230676052,-1,0,-3,-3,1,-1,12,-13
1529298230689019,0,0,0,0,-3,-3,2,3
1529298230689019,-2,-4,-4,-4,0,0,-5,-1
1529298230697993,1,-4,0,-3,1,-1,-16,-15
1529298230697993,-2,5,7,3,1,0,7,13
1529298230703977,4,-4,-3,-2,4,2,-12,-4
1529298230703977,-2,0,-4,-2,-3,-2,3,3
1529298230718937,-1,0,-8,-3,-2,0,9,4
1529298230718937,-1,-4,-1,-2,-2,-5,-20,-7
1529298230726958,4,5,9,1,1,3,6,-2
1529298230726958,6,11,9,4,0,0,4,7
1529298230735892,-3,0,-3,-1,-1,-1,-7,-8
1529298230735892,-5,1,-3,-4,-4,3,-4,-7
1529298230748889,1,-3,-1,1,0,3,8,9
1529298230748889,-5,-13,-10,-3,-6,-2,0,-4
1529298230757855,-3,-1,-7,-2,-1,-5,-8,-6
1529298230757855,2,-1,2,-3,-3,-5,-5,-4
1529298230763820,2,9,10,3,1,3,9,1
1529298230763820,3,11,4,0,-1,1,6,1
1529298230778777,0,-3,1,1,0,1,-5,-2
1529298230778777,0,-5,-5,-3,-3,2,-1,-2
1529298230786792,-2,-1,-8,-3,2,-2,-4,-1
1529298230786792,-1,-2,-3,-1,-1,-1,-3,-2
1529298230795731,-2,3,4,0,-1,0,-2,-1
1529298230795731,-2,-8,-7,-2,-2,-2,0,-1
1529298230809694,-1,4,2,-2,1,0,-1,1
1529298230809694,1,1,6,0,1,2,-2,-1
1529298230818671,2,1,5,5,3,2,10,4
1529298230818671,-7,-16,-27,4,3,4,2,-1
1529298230824672,-3,1,-5,-1,-3,-2,-2,-8
1529298230824672,5,14,16,-9,-7,-8,-5,0
1529298230839615,0,4,7,-4,1,-3,0,4
1529298230839615,-2,-3,-5,2,-1,-8,-3,-2
1529298230846596,-7,-20,-20,-2,0,0,0,-2
1529298230846596,2,-4,-7,4,1,6,1,-7
1529298230855573,8,20,22,6,3,8,1,5
1529298230855573,0,6,1,-2,0,4,2,2
1529298230869534,-2,5,1,0,0,-4,-4,-1
1529298230869534,-6,-10,-18,-6,-3,-3,-1,-5
1529298230878512,0,-1,-10,-4,-2,2,-3,-4
1529298230878512,3,0,9,8,9,4,6,5
1529298230884533,-1,-1,-6,2,-10,1,-1,1
1529298230884533,-7,-12,-17,1,1,3,-2,-3
1529298230899493,2,0,18,3,-3,-10,-3,-3
1529298230899493,5,6,22,-11,-2,-2,3,3
1529298230906465,-1,-2,0,-10,-2,-1,0,-2
1529298230906465,0,9,6,-3,1,-10,2,1
1529298230915412,-3,2,-20,4,-4,-8,-5,-4
1529298230915412,2,1,7,6,4,12,1,-5
1529298230929428,0,-2,-3,10,6,14,5,3
1529298230929428,2,9,16,-17,-2,0,-5,0
1529298230938351,1,-11,-10,-31,-17,-20,-2,1
1529298230938351,-5,-12,-9,-3,-4,3,6,-3
1529298230944336,-6,-15,-27,-16,-15,-9,-15,-6
1529298230944336,6,4,-3,5,3,-13,-1,2
1529298230959294,7,28,45,20,12,2,11,8
1529298230959294,-2,-6,-23,-2,-7,-8,-7,-3
1529298230966307,-4,-5,5,-6,-6,-3,-9,-9
1529298230966307,0,5,20,22,11,12,5,4
1529298230975254,-3,-16,-24,-12,-10,-2,-2,-2
1529298230975254,-2,-8,-25,-3,1,0,4,0
1529298230989214,0,5,-1,20,13,13,9,3
1529298230989214,-1,-1,-1,-7,-2,-5,-7,-2
1529298230998193,1,9,14,-3,7,-5,-1,-1
1529298230998193,-1,7,-2,4,2,6,-1,0
1529298231013151,2,-11,-24,-4,0,2,1,1
1529298231013151,-3,-2,31,18,-1,2,0,-3
1529298231021131,-4,-8,-12,-6,-5,0,4,1
1529298231021131,3,0,-13,-10,6,-14,-8,-2
1529298231027113,2,6,31,10,9,18,-1,-2
1529298231027113,9,18,7,4,-5,9,13,5
1529298231036091,-2,16,21,47,22,16,-2,2
1529298231036091,-5,-9,-8,-41,-20,-15,-19,-7
1529298231049056,-9,-20,-25,11,11,1,0,0
1529298231049056,0,0,-22,-17,-16,-14,-4,-1
1529298231058031,-1,-8,16,8,4,-4,1,-5
1529298231058031,7,27,24,27,9,-4,9,6
1529298231072033,-1,-1,1,-21,7,-7,-3,4
1529298231072033,-16,-50,-45,-15,5,17,4,-4
1529298231079011,-9,-16,-27,-14,-16,7,-5,-9
1529298231079011,15,46,55,47,16,30,-7,6
1529298231086954,15,42,41,-40,-35,-44,-5,8
1529298231086954,-1,-4,-7,11,9,4,5,3
1529298231095970,-18,-51,-52,-26,-8,6,10,-3
1529298231095970,-7,-40,-31,-15,-6,15,-1,-6
1529298231108894,6,47,83,48,26,-5,7,1
1529298231108894,-6,-26,-43,-15,-27,-10,-15,-6
1529298231117871,0,-9,-13,3,3,-3,-13,-5
1529298231117871,10,45,53,-7,0,-30,12,5
1529298231132830,-10,-27,-56,-4,11,25,5,1
1529298231132830,4,-27,-4,9,-13,16,-5,-3
1529298231138815,15,74,70,11,-4,4,-1,6
1529298231138815,2,1,-14,-5,-7,6,2,4
1529298231146794,0,-7,-21,9,4,-62,4,2
1529298231146794,-16,-29,-7,-7,7,-10,-6,-11
1529298231155769,-10,-30,-44,7,6,21,0,-10
1529298231155769,0,0,5,-24,6,21,5,6
1529298231168735,6,23,27,-14,6,43,-1,4
1529298231168735,3,22,-2,18,4,32,1,2
1529298231177711,1,0,0,5,-7,18,-3,-2
1529298231177711,-7,-4,-9,8,-13,13,0,-2
1529298231192671,-4,-30,-24,-6,-39,21,10,-4
1529298231192671,2,9,12,-12,17,-33,5,2
1529298231199673,2,5,5,-2,-69,-16,-3,1
1529298231199673,-8,0,9,18,86,-20,-2,-5
1529298231215610,0,-16,-24,-22,52,-2,-24,-1
1529298231215610,1,19,18,1,14,-53,12,0
1529298231217621,-2,-12,-23,-13,26,23,6,2
1529298231217621,-3,-22,-12,2,-26,-43,-9,-5
1529298231229585,4,20,23,11,-7,1,-6,4
1529298231229585,2,6,-1,7,1,30,-10,3
1529298231238584,0,-6,-8,-2,-6,-14,-6,2
1529298231238584,-2,-13,-10,-8,-35,17,-2,-1
1529298231252516,-2,-4,2,6,-5,14,-1,-2
1529298231252516,-1,-1,-8,-5,-13,10,1,-4
1529298231259547,3,2,2,4,4,-1,-1,2
1529298231259547,-1,4,3,7,-6,7,-9,-4
1529298231266476,0,0,0,6,-12,-4,9,-1
1529298231266476,-1,-7,-8,0,2,18,2,0
1529298231281435,-6,-9,-11,-11,12,0,-7,-3
1529298231281435,4,6,11,-3,2,0,5,16
1529298231289413,3,-10,-13,-4,-4,-19,-4,-3
1529298231289413,-3,13,6,1,0,-18,-26,-19
1529298231298390,7,9,6,2,14,-16,38,31
1529298231298390,-13,-7,-7,-12,1,21,-15,-37
1529298231312399,13,5,10,8,5,-3,5,51
1529298231312399,-11,1,-4,-8,-38,-14,-33,-60
1529298231319332,6,5,4,14,17,-12,-4,9
1529298231319332,8,-5,-12,-10,8,1,24,35
1529298231326313,-21,-7,-1,-3,-4,15,1,-45
1529298231326313,17,28,27,9,15,19,5,35
1529298231342294,-1,-6,7,8,39,31,40,10
1529298231342294,-7,-25,-26,-15,-2,4,-38,-7
1529298231349395,6,20,19,5,-12,-9,17,7
1529298231349395,-2,-9,-21,-13,16,-2,6,1
1529298231358228,2,7,19,8,45,31,5,-1
1529298231358228,4,0,9,-1,-23,13,15,8
1529298231372244,-3,-5,-7,6,14,-1,-4,-6
1529298231372244,-1,-5,-6,-8,-26,3,8,7
1529298231379378,-3,-8,-13,-16,6,-25,-26,-19
1529298231379378,-3,-19,-4,9,-8,-18,7,-9
1529298231395457,-2,0,3,-4,14,17,-3,-7
1529298231395457,9,12,23,13,15,27,23,19
1529298231401479,-2,6,-4,-2,-22,-13,-20,-6
1529298231401479,-1,22,0,0,-10,0,-6,-7
1529298231409458,-5,1,-6,1,3,14,6,0
1529298231409458,-4,-17,-11,-3,12,4,-3,8
1529298231417788,-3,-7,-15,-13,-24,20,-2,-9
1529298231417788,-4,-16,-13,17,16,-2,3,0
1529298231432907,15,34,33,-12,-17,-9,-15,1
1529298231432907,-2,12,33,36,11,-35,-14,-6
1529298231439098,5,10,-28,-59,-40,-64,-15,-7
1529298231439098,7,15,21,18,8,11,17,14
1529298231454889,4,-69,-83,-21,8,13,0,16
1529298231454889,-1,-4,21,8,-22,-20,-8,-9
1529298231461873,-5,40,30,20,-3,-13,1,-22
1529298231461873,-13,-14,-16,-2,1,-2,2,-22
1529298231477973,-6,19,13,-4,-12,-16,-5,-14
1529298231477973,-21,-33,-49,-8,7,9,5,9
1529298231479823,3,-10,26,5,-9,-10,-8,5
1529298231479823,3,15,-5,-15,-8,-10,-1,10
1529298231492293,-10,-32,-35,5,-5,7,1,6
1529298231492293,5,12,18,14,14,25,9,13
1529298231499467,-6,42,57,13,-10,1,-9,0
1529298231499467,-18,-4,-11,-21,-18,-2,-14,-9
1529298231515511,-11,-68,-85,-28,15,22,6,1
1529298231515511,15,10,60,26,-16,-21,-6,-8
1529298231521640,18,48,41,39,29,20,16,16
1529298231521640,32,41,59,12,-12,-36,3,16
1529298231537802,-15,-32,-36,-68,-62,-18,-25,-27
1529298231537802,-11,-64,-91,-15,37,21,11,-3
1529298231539632,-13,-98,-128,-10,7,19,-1,-6
1529298231539632,22,75,107,53,-23,-49,-9,-2
1529298231552756,15,78,68,26,-6,-15,8,9
1529298231552756,-1,-7,-24,-12,-11,-5,-2,3
1529298231559738,-16,-37,-42,-1,7,2,-6,-5
1529298231559738,-18,-64,-98,-28,9,28,8,-8
1529298231574540,4,3,29,34,10,-2,-2,-3
1529298231574540,5,53,61,-18,-15,-5,-1,-3
1529298231581679,7,0,-16,1,0,-7,6,9
1529298231581679,-11,-9,5,8,2,15,-5,-10
1529298231598629,8,31,19,-10,2,-4,3,8
1529298231598629,0,-1,-5,-6,0,0,11,7
1529298231599628,-4,-5,4,5,-11,-3,-9,-4
1529298231599628,0,-4,1,-6,3,-6,2,0
1529298231612752,-1,7,-2,7,11,9,6,-1
1529298231612752,0,-1,-16,-1,6,11,6,0
1529298231619609,0,-12,-5,-14,-7,-1,-9,-4
1529298231619609,3,-12,-22,-10,5,2,1,2
1529298231634693,-3,-10,-1,-1,10,10,8,-1
1529298231634693,4,24,17,-1,-5,-1,-3,0
1529298231641676,-1,14,23,6,-13,-20,-6,1
1529298231641676,-3,-12,-25,-9,10,27,4,-2
1529298231657983,-1,-2,7,14,2,1,0,0
1529298231657983,-9,-13,-11,-11,-4,10,-6,-8
1529298231659820,1,1,-2,-4,-2,-6,-6,-2
1529298231659820,3,-2,6,8,6,4,3,2
1529298231672009,0,8,4,7,-2,-1,-2,-1
1529298231672009,-2,-1,-10,-4,-1,8,-1,0
1529298231679130,-3,-6,-2,-3,-1,6,4,-2
1529298231679130,-1,-1,-6,-7,0,-3,-6,-2
1529298231694948,6,13,22,11,-7,0,-1,2
1529298231694948,2,-1,-6,-2,0,-6,5,7
1529298231701929,-4,1,1,-2,-1,4,-9,-16
1529298231701929,-5,-16,-14,-9,10,12,19,0
1529298231726010,0,11,15,16,0,-18,-7,-14
1529298231726010,5,6,3,-12,-30,-23,-19,-5
1529298231726963,-6,-10,-7,-8,1,7,27,9
1529298231726963,5,6,7,7,6,23,17,22
1529298231732963,2,6,-4,7,-1,-28,-14,4
1529298231732963,-18,-5,0,6,38,30,-10,-21
1529298231738968,6,5,0,-18,-62,-39,6,25
1529298231738968,-3,-3,-4,7,13,-9,-53,-46
1529298231754926,7,1,16,7,-12,-3,44,42
1529298231754926,-2,-24,-40,-37,-12,9,-29,-18
1529298231761909,6,-3,-11,1,-3,-22,-16,-5
1529298231761909,-2,16,8,17,-7,0,35,16
1529298231778071,1,-6,-17,-27,-5,-24,-41,-26
1529298231778071,-6,12,30,13,4,-1,40,0
1529298231779957,11,-7,-5,-7,-15,10,2,17
1529298231779957,-7,-6,-1,-4,14,45,17,-2
1529298231792032,1,14,-4,0,1,15,-13,-12
1529298231792032,0,3,15,8,19,36,12,16
1529298231801227,9,10,21,17,20,-16,-4,5
1529298231801227,-4,0,-3,-8,-18,5,2,4
1529298231815064,-6,-18,-10,6,25,28,5,-4
1529298231815064,-1,-11,-33,-21,-16,-26,-5,4
1529298231822006,-6,10,11,7,19,-1,-15,-19
1529298231822006,8,24,19,-35,-22,-16,-7,2
1529298231837006,-7,-15,-15,6,-25,-24,-8,0
1529298231837006,9,7,13,21,4,-21,0,1
1529298231845943,-9,-21,-22,3,10,22,11,-2
1529298231845943,3,10,3,-1,16,-2,-7,2
1529298231852093,-2,11,17,1,4,9,3,7
1529298231852093,7,8,-5,7,4,3,11,12
1529298231860903,-1,3,18,-2,1,17,-7,-4
1529298231860903,-2,-20,-18,3,-16,-29,-7,-4
1529298231874906,-7,-8,-7,-4,4,3,-36,-23
1529298231874906,2,3,2,7,-15,-9,5,6
1529298231882078,-6,0,-3,-3,1,-1,-1,-9
1529298231882078,-7,-6,-6,3,-4,-6,-11,1
1529298231897959,3,2,6,-2,-7,2,10,7
1529298231897959,-2,-7,-9,1,-3,-8,-6,-3
1529298231899891,0,-1,-3,-11,3,-2,6,3
1529298231899891,3,1,1,10,8,2,-1,2
1529298231912015,3,4,7,2,-8,-1,9,1
1529298231912015,0,1,-1,-14,-3,5,-1,2
1529298231920836,-4,1,-2,5,7,10,3,-5
1529298231920836,0,-5,4,5,0,-2,-9,-2
1529298231935008,-3,-5,-2,5,8,11,7,-2
1529298231935008,-1,-2,3,3,-3,-6,0,3
1529298231941983,-8,-12,-15,-9,-5,8,-2,-3
1529298231941983,-1,15,0,-2,0,-3,-6,-8
1529298231958123,-6,0,9,-1,-1,1,10,6
1529298231958123,2,4,1,-2,-13,-7,0,-2
1529298231959991,0,-2,-7,-3,2,-4,-9,3
1529298231959991,3,-5,-6,-3,-5,2,8,4
1529298231971943,1,-2,-3,-3,0,6,4,-1
1529298231971943,-1,-2,0,3,-3,0,-3,-6
1529298231980920,3,10,19,-3,-4,-3,-5,0
1529298231980920,3,-7,-5,-4,4,2,-1,4
1529298231995047,1,3,3,2,2,6,5,2
1529298231995047,-1,-9,-4,0,1,4,-4,-6
1529298232002076,2,-2,-4,-1,-1,12,6,1
1529298232002076,-5,-9,-9,-4,-5,6,1,2
1529298232018197,2,-1,-4,-4,1,10,1,-3
1529298232018197,0,1,-1,-1,-4,-4,-5,1
1529298232020027,1,7,6,5,2,7,-1,1
1529298232020027,0,-3,-4,-6,-5,1,-1,2
1529298232040673,-5,-9,-8,2,-1,6,-3,-2
1529298232040673,0,-1,2,3,1,11,1,5
1529298232042756,-4,-4,-5,-12,1,5,-1,-5
1529298232042756,0,-1,-2,2,3,1,-5,-4
1529298232054936,0,0,-2,-4,2,8,2,4
1529298232054936,1,-1,0,3,0,-9,-9,-4
1529298232061912,-3,3,1,2,-3,2,1,-3
1529298232061912,-2,-3,-2,1,-3,2,1,2
1529298232077924,2,2,3,0,-2,-5,-5,-1
1529298232077924,0,3,-2,-1,3,-10,-1,0
1529298232079754,-3,-5,-3,1,4,0,-4,-7
1529298232079754,-2,-1,2,-3,-2,-2,-1,3
1529298232100839,-1,0,0,4,-6,4,0,0
1529298232100839,-3,-1,-4,-5,-6,1,2,-7
1529298232114661,2,-1,0,1,1,0,-1,2
1529298232114661,-4,-6,1,0,-2,6,1,-3
1529298232115658,2,-1,2,-2,0,-6,0,-1
1529298232115658,1,-2,-3,-3,-4,7,-3,-6
1529298232123782,1,1,3,4,-5,-5,0,4
1529298232123782,0,0,-5,-1,13,-7,-4,-5
1529298232140111,2,2,-3,-1,-2,-6,2,-1
1529298232140111,0,-3,-4,-4,4,1,0,2
1529298232143013,2,5,7,5,5,-5,4,2
1529298232143013,-3,-1,-1,0,1,-4,-4,-3
1529298232153025,1,0,1,-3,-4,1,2,2
1529298232153025,-1,2,0,1,3,-1,-5,0
1529298232161963,-3,-3,-6,-2,1,8,0,-3
1529298232161963,-1,3,2,1,-2,-4,-1,0
1529298232175113,-1,1,-3,-4,-14,-50,-2,-3
1529298232175113,0,0,4,0,0,-45,1,1
1529298232181574,-3,-1,1,0,-7,-47,1,0
1529298232181574,-1,1,2,2,-7,-59,-3,-8
1529298232198584,1,-2,-4,2,-3,-43,0,0
1529298232198584,-1,-2,-5,-2,-9,-36,0,0
1529298232199585,1,-6,-12,-5,-5,-50,-4,-4
1529298232199585,4,-1,3,3,-4,-43,-1,2
1529298232211777,4,6,1,2,-1,-49,-3,2
1529298232211777,-1,0,-7,-3,-5,-53,-3,-1
1529298232220754,5,0,-2,-5,-20,-30,-1,1
1529298232220754,-3,-10,-18,-4,-9,-27,1,-2
1529298232234857,6,4,0,1,-7,-9,1,1
1529298232234857,7,8,7,3,-7,-33,2,8
1529298232242043,0,-2,-7,1,-6,-21,-5,-2
1529298232242043,1,0,-5,-1,-11,-18,1,2
1529298232257995,-2,-2,-14,-2,-7,-10,1,-1
1529298232257995,2,-3,-10,-1,-8,4,2,-1
1529298232264815,3,1,-3,4,-4,-3,-3,0
1529298232264815,4,4,-1,1,-7,-9,1,5
1529298232271952,2,-9,-11,0,-7,-25,-5,-3
1529298232271952,4,3,-3,-2,-17,-33,-3,1
1529298232280787,4,1,-7,-1,-7,-17,-1,0
1529298232280787,0,-6,-10,-6,-11,-21,-2,1
1529298232294892,2,-3,-8,-3,-13,-26,-5,0
1529298232294892,3,-2,-9,0,-5,-7,-1,1
1529298232301717,4,6,4,2,-11,-7,-1,2
1529298232301717,2,0,-7,0,-7,-6,-1,0
1529298232317729,0,0,-2,-1,-6,5,-2,0
1529298232317729,-3,-10,-11,-4,-2,4,0,-4
1529298232323659,8,12,8,7,-9,-16,2,3
1529298232323659,0,2,7,3,-2,9,0,0
1529298232331675,-1,1,6,1,1,-5,1,-1
1529298232331675,-1,-3,-5,-8,-5,-9,-2,-3
1529298232340614,-2,-3,-5,-6,3,-4,0,0
1529298232340614,0,0,-4,4,-5,2,-1,-1
1529298232354612,0,-1,-6,2,-6,9,0,1
1529298232354612,-3,1,0,3,0,11,0,3
1529298232361556,-4,-6,-4,1,-8,46,-1,-2
1529298232361556,1,2,0,-2,-8,-11,-1,-1
1529298232377570,-7,-4,-2,0,1,-7,0,-2
1529298232377570,-4,1,2,0,1,-26,-3,-2
1529298232384555,-3,-5,-4,-9,10,-65,-1,-1
1529298232384555,3,11,8,7,-3,-16,-5,0
1529298232391532,0,-2,-2,7,0,-16,-1,1
1529298232391532,1,5,5,5,0,-21,0,2
1529298232400475,-4,-8,-6,-24,7,-18,-3,-1
1529298232400475,-2,-4,-2,-10,-2,-32,1,-1
1529298232414470,-1,1,2,-4,-5,-27,-2,-3
1529298232414470,-1,-2,0,4,-2,11,-1,-1
1529298232421451,1,-1,-3,-1,2,13,0,-4
1529298232421451,1,8,6,-6,-2,42,0,0
1529298232437409,1,-5,-7,-3,-1,38,-3,-3
1529298232437409,0,4,5,-5,-12,20,3,3
1529298232444393,-3,-3,-1,0,-5,28,-2,-5
1529298232444393,-2,-3,6,9,6,17,0,-1
1529298232460350,-3,1,10,3,13,4,3,0
1529298232460350,-5,-5,3,-11,7,3,0,-3
1529298232462288,-4,2,11,14,5,4,1,2
1529298232462288,-3,-1,3,-8,14,-2,1,-2
1529298232475308,-7,-8,1,-17,11,22,2,-2
1529298232475308,-3,2,8,5,0,15,-4,-2
1529298232481291,-2,4,10,22,-3,12,3,0
1529298232481291,-5,-5,3,22,-2,8,-1,0
1529298232497194,-37,0,4,12,-1,6,2,-2
1529298232497194,-3,-3,-5,5,0,-1,1,-4
1529298232504231,3,-6,-5,2,2,-4,-4,-4
1529298232504231,10,-2,-1,8,-10,-16,-3,0
1529298232520185,14,0,3,25,-6,-13,-2,-3
1529298232520185,-17,-2,1,25,-1,-18,-1,0
1529298232522128,-5,-11,2,9,-2,-22,1,-6
1529298232522128,7,4,10,-21,-4,-31,3,0
1529298232536096,6,3,2,-21,-9,-29,-2,0
1529298232536096,7,-7,0,2,-2,-12,-2,-4
1529298232543078,2,-1,9,-6,9,10,3,1
1529298232543078,-9,-7,-5,-24,21,13,0,-3
1529298232557088,4,2,7,-29,35,-10,0,-1
1529298232557088,-1,7,5,-8,12,1,-2,2
1529298232564017,-5,4,-4,11,-21,2,-3,-1
1529298232564017,-17,-5,-2,10,-20,38,-2,0
1529298232580971,1,-2,0,4,-7,67,-1,1
1529298232580971,6,3,-1,-5,-2,24,-6,1
1529298232581973,-4,2,-1,-15,7,-4,-2,0
1529298232581973,-1,2,-2,-2,-8,-42,3,-3
1529298232594987,-2,5,0,3,7,15,5,-2
1529298232594987,0,6,-2,-8,12,38,3,-1
1529298232601915,1,13,-2,-4,3,32,0,0
1529298232601915,1,5,1,-2,-5,21,1,-1
1529298232616875,0,-4,2,2,-8,-8,-5,-1
1529298232616875,1,-10,4,-3,1,19,2,0
1529298232623856,-4,-9,1,-2,12,27,-5,-2
1529298232623856,-1,-12,-1,0,1,-2,-1,-1
1529298232648650,-1,-6,2,2,-17,-13,2,0
1529298232648650,-2,-4,1,-2,-8,-7,-1,-1
1529298232649651,-1,-1,0,0,5,-7,-2,-1
1529298232649651,-3,3,-3,5,9,-6,-1,0
1529298232654722,1,-3,1,-2,-7,-17,-3,0
1529298232654722,-2,-5,0,-2,-8,-16,3,-3
1529298232663626,-4,-8,1,-6,0,-9,3,-1
1529298232663626,-1,-2,4,-32,6,5,0,-2
1529298232677771,-2,4,-1,-2,2,-9,-3,-1
1529298232677771,1,7,2,16,-6,-11,0,1
1529298232683782,1,4,-3,17,-3,1,0,2
1529298232683782,-2,2,-2,29,3,9,-1,3
1529298232699880,-2,-2,1,6,3,0,1,3
1529298232699880,1,3,1,-7,2,-2,1,1
1529298232700734,3,1,-1,-12,1,2,-3,-1
1529298232700734,3,0,-3,-6,5,0,0,-3
1529298232722043,3,-1,-4,-10,10,3,0,0
1529298232722043,-1,-4,-3,-5,10,-7,0,3
1529298232722891,3,1,-7,-5,6,-6,0,3
1529298232722891,2,-2,-4,-2,6,0,-2,-1
1529298232738055,1,-2,-9,-1,7,4,-3,2
1529298232738055,1,-2,-5,-3,7,0,-4,0
1529298232744039,2,1,-6,2,5,-1,-1,2
1529298232744039,2,1,-9,5,1,1,1,-1
1529298232759995,5,2,-8,6,2,-1,-1,-2
1529298232759995,5,2,-10,-5,7,-2,-1,-1
1529298232760993,3,-1,-8,0,8,-2,-4,-3
1529298232760993,0,0,-10,4,1,-8,-2,0
1529298232782305,0,-2,-8,2,0,-7,1,-4
1529298232782305,0,-2,-9,-1,-2,-2,-4,0
1529298232783138,0,-2,0,-3,0,-6,-1,-1
1529298232783138,-1,-2,-4,-2,-1,-5,-3,0
1529298232798786,3,-1,-4,0,-3,-3,1,0
1529298232798786,-1,1,-2,-4,-4,-2,-1,0
1529298232804603,-2,1,4,-3,0,4,-1,-2
1529298232804603,0,-2,-4,0,-1,-2,-3,0
1529298232819944,0,-3,0,-1,-3,-3,1,2
1529298232819944,1,-3,-2,1,-2,-1,0,-1
1529298232820776,-4,0,0,-1,-3,-5,1,1
1529298232820776,-1,-2,1,-1,-1,1,0,0
1529298232842940,-2,1,1,-2,1,1,-1,-1
1529298232842940,1,-1,-1,-2,-2,-3,-1,1
1529298232842940,-1,0,-2,-2,-2,-1,0,1
1529298232842940,-2,0,1,1,0,-1,0,0
1529298232857967,0,2,0,3,1,0,-2,-1
1529298232857967,-1,0,1,0,-1,-2,0,-2
1529298232863873,-2,-1,-2,-4,-1,-1,-1,2
1529298232863873,0,0,1,-1,-2,1,-1,-1
1529298232880032,-2,1,-2,-1,-3,-1,0,-1
1529298232880032,0,0,-1,-1,2,-2,0,-3
1529298232881188,0,0,-2,2,3,0,-1,0
1529298232881188,-3,1,-3,1,1,0,0,2
1529298232902169,-1,-1,-3,2,0,2,0,-3
1529298232902169,-2,0,-5,-3,0,-1,-1,-3
1529298232903166,0,-1,-1,-2,-5,-4,-1,-2
1529298232903166,1,0,0,2,2,-2,0,-3
1529298232918146,-3,-1,0,0,2,-1,2,0
1529298232918146,2,0,1,3,-3,0,-1,1
1529298232924157,1,-1,0,1,0,2,0,-1
1529298232924157,0,1,0,-2,0,-4,-2,1
1529298232940381,0,-1,0,1,-3,1,-2,-1
1529298232940381,-2,2,-1,-2,-1,1,2,1
1529298232940381,0,-1,-1,-1,-2,-2,0,-1
1529298232940381,1,-1,-2,0,-1,1,-2,-1
1529298232962350,3,-3,-8,-3,-2,-3,-1,-2
1529298232962350,0,0,1,1,-2,-1,0,1
1529298232963197,0,1,2,-1,-2,0,1,1
1529298232963197,-2,-1,1,-1,-2,-3,-1,-1
1529298232977871,0,0,-1,-1,2,-2,-3,2
1529298232977871,-1,-3,1,-1,1,-1,4,-3
1529298232983994,0,2,-2,-1,0,-3,-2,-1
1529298232983994,2,1,1,-2,1,0,-2,-1
1529298233000178,-2,3,1,-1,-5,1,-2,-3
1529298233000178,2,-1,-1,-1,-3,1,-3,-1
1529298233001176,-3,-3,0,-2,1,0,2,-1
1529298233001176,0,-1,-3,1,-1,-3,1,-2
1529298233015974,-1,0,0,-1,1,2,-2,-2
1529298233015974,-1,-1,3,0,-1,1,0,0
1529298233022095,0,-1,-1,0,0,-1,2,-1
1529298233022095,2,1,-4,0,1,2,-2,-2
1529298233036917,-1,-1,-1,-2,-1,-1,1,-1
1529298233036917,2,0,-1,0,-1,2,1,0
1529298233044037,-3,1,-1,-5,-2,0,-1,0
1529298233044037,-3,-1,2,1,-2,0,1,-1
1529298233059992,-1,0,-1,0,3,-2,0,1
1529298233059992,-1,0,2,0,-2,-4,0,0
1529298233060853,0,-1,0,1,-1,-1,-3,-2
1529298233060853,1,1,-1,0,0,0,-3,-2
1529298233082957,-3,-1,-2,-1,0,1,-2,0
1529298233082957,0,-1,-2,-2,1,-1,-1,0
1529298233082957,1,2,-3,1,-2,-3,1,-3
1529298233082957,-1,-3,-2,-3,-1,-1,1,-1
1529298233097934,1,0,-3,0,0,-2,-1,0
1529298233097934,-3,2,-2,0,1,-2,-3,1
1529298233104079,0,1,-1,0,-2,-1,-1,-2
1529298233104079,0,0,-1,0,-1,2,-1,0
1529298233120036,-2,-1,-1,0,-3,-1,0,-1
1529298233120036,0,-1,-1,0,-1,-3,2,-1
1529298233120875,-2,-3,-1,-1,-2,1,-1,1
1529298233120875,0,1,-1,-2,0,-2,0,1
1529298233141854,0,-1,2,0,1,-3,2,-1
1529298233141854,0,-1,-2,0,0,-1,1,-3
1529298233142816,2,-3,0,2,-1,-4,-1,-1
1529298233142816,0,-2,0,-1,-3,1,-1,0
1529298233157969,3,0,2,-2,0,-2,-3,-1
1529298233157969,-1,-1,-1,0,1,0,-2,0
1529298233163956,-1,-2,-1,-1,0,1,0,-1
1529298233163956,-2,0,-1,-2,-1,-1,0,-1
1529298233179051,1,-2,0,0,-4,-3,-1,-1
1529298233179051,-1,2,0,-4,-3,-1,-1,1
1529298233187030,0,-2,1,-1,2,2,-2,0
1529298233187030,-1,-2,0,1,-1,-1,0,-3
1529298233202012,0,1,0,-1,-5,2,1,1
1529298233202012,0,-1,-4,0,1,-1,-3,1
1529298233202863,1,0,1,0,1,0,-1,2
1529298233202863,-1,0,-2,-1,2,-1,-1,-1
1529298233217017,0,-1,-1,1,1,1,-1,-1
1529298233217017,-1,1,-3,2,-3,-3,-2,-2
1529298233232022,-2,0,-1,-3,-3,-3,0,-1
1529298233232022,-1,-2,-3,1,-1,1,-1,-1
1529298233238991,-1,-3,2,-1,1,1,-1,2
1529298233238991,-2,-2,-2,-3,1,-2,-1,0
1529298233246937,1,1,-1,1,0,1,-2,-1
1529298233246937,0,0,-1,0,1,-1,-2,0
1529298233256112,-5,-2,-3,-1,-3,0,0,-1
1529298233256112,1,-1,-2,-1,1,1,1,1
1529298233262266,1,2,0,0,0,-2,-3,-1
1529298233262266,2,-3,0,-1,-1,0,1,-1
1529298233277212,1,-1,-1,-1,0,-1,-4,1
1529298233277212,1,-3,0,1,2,2,1,-2
1529298233284194,-3,-2,-6,-4,-1,0,1,-1
1529298233284194,1,1,1,0,-1,-3,-1,2
1529298233299154,-1,2,-2,-2,1,-3,1,-1
1529298233299154,1,0,0,-1,0,1,0,-1
1529298233307136,-1,-2,-1,-1,-1,0,-1,0
1529298233307136,0,-1,-1,0,-1,1,1,2
1529298233316295,-1,0,-2,-1,0,-3,1,-1
1529298233316295,0,-1,-3,-3,0,-2,-4,-3
1529298233322268,0,-1,0,0,0,-2,-1,2
1529298233322268,0,-1,1,-3,-4,-2,-1,-2
1529298233337189,1,-2,-3,0,-2,-1,0,0
1529298233337189,2,1,0,1,-2,0,0,1
1529298233344076,1,-1,1,0,-4,-1,0,-1
1529298233344076,-3,1,-2,-1,1,-1,-1,1
1529298233359193,0,1,3,-2,1,1,-2,0
1529298233359193,-1,-1,-3,-2,1,-3,0,-1
1529298233367171,-1,1,-3,-1,-3,1,0,-1
1529298233367171,4,-1,-1,-2,1,2,-1,-1
1529298233382138,1,2,-2,1,0,-1,-1,-3
1529298233382138,-1,0,-1,0,-2,-3,0,0
1529298233382973,-2,-1,-3,-2,-3,1,1,1
1529298233382973,-4,-1,-2,-1,-3,0,1,-2
1529298233396935,-2,0,-2,1,0,1,0,-1
1529298233396935,-4,0,0,-3,-2,-1,-1,-3
1529298233404074,1,-1,-1,0,0,1,-1,2
1529298233404074,0,-2,-1,1,-2,2,-3,0
