timestamp,emg1,emg2,emg3,emg4,emg5,emg6,emg7,emg8
1528446955204039,-1,-1,-1,0,-1,-2,-2,0
1528446955204039,-2,-1,-2,-1,-1,-1,-3,0
1528446955206033,-2,-1,-2,-1,-1,-1,0,-1
1528446955206033,-1,-2,-1,-2,-2,-1,0,-2
1528446955209027,-2,0,-2,-1,0,-1,1,0
1528446955209027,0,0,-1,0,-1,-1,0,0
1528446955210024,0,-1,2,1,0,-2,0,0
1528446955210024,0,0,-2,0,1,-1,-1,-1
1528446955216007,0,-1,-1,-1,-1,-1,1,-1
1528446955216007,-1,0,-1,0,0,-1,-1,-1
1528446955227975,0,0,-2,-2,0,0,-2,-1
1528446955227975,-2,0,0,-1,-3,-3,-1,-1
1528446955230966,0,-1,0,-1,0,-1,-1,-1
1528446955230966,-1,-2,-2,-2,-2,-1,-1,-1
1528446955246923,-1,0,-1,-2,-2,-2,-2,-3
1528446955246923,1,-2,-2,-1,-1,2,0,2
1528446955255900,-3,0,-3,-2,-2,-1,-2,-4
1528446955255900,-2,2,1,0,-1,-2,0,0
1528446955287815,1,0,-1,0,-2,0,0,-4
1528446955287815,-1,-2,-1,-1,-2,-1,-2,-2
1528446955288812,-1,0,-2,-1,-1,-1,-2,0
1528446955288812,-1,-3,0,-2,0,1,-1,-3
1528446955291805,-1,-1,0,-1,-1,-1,-2,0
1528446955291805,-1,-1,-1,0,-1,-1,-2,-2
1528446955291805,0,-2,0,0,-1,1,0,-1
1528446955291805,-1,-2,-2,1,-1,-1,-2,-2
1528446955314742,-1,-2,-2,0,-1,-1,0,0
1528446955314742,-1,-1,0,-2,-1,-1,0,-2
1528446955360620,-1,-1,-1,0,0,-1,-1,-2
1528446955360620,-2,0,-1,-2,-2,0,-3,-1
1528446955361618,-1,0,-1,0,-2,0,-1,-2
1528446955361618,-1,-2,-1,-1,-1,0,1,0
1528446955362615,0,0,-1,-1,-2,-1,-1,-1
1528446955362615,-1,-2,-1,-1,-3,0,1,-1
1528446955363612,-1,0,1,-1,-1,-1,-2,-3
1528446955363612,0,0,0,-1,-1,-2,-3,5
1528446955366604,-2,-2,-1,-1,-3,-2,-1,-2
1528446955366604,0,-1,-1,-1,-1,-1,0,-1
1528446955372588,0,0,-2,-2,0,0,0,-1
1528446955372588,-1,-2,-1,-2,-3,-3,-1,-3
1528446955382561,-1,-1,-2,-2,0,-2,-1,-2
1528446955382561,-2,0,0,-1,0,-2,-1,2
1528446955395555,-2,-3,-2,-1,0,-2,-2,-1
1528446955395555,-2,0,-2,-1,1,0,-1,-2
1528446955404503,-1,-2,-1,-1,-1,-1,0,-1
1528446955404503,-1,-1,-3,0,2,-1,-1,-3
1528446955418512,0,-1,-1,-1,-1,-1,-1,0
1528446955418512,-1,-2,-1,-1,-1,-1,-1,-3
1528446955451378,-1,-2,0,-1,-2,-1,-1,1
1528446955451378,-1,0,1,-1,0,-1,-3,0
1528446955452376,-2,-1,-1,-1,-1,-3,-1,-2
1528446955452376,-1,0,-1,-2,0,-2,1,-1
1528446955455415,-1,1,0,-1,-1,-1,-1,-1
1528446955455415,-1,-2,-2,-1,-1,-3,0,-2
1528446955464344,-1,0,-2,-1,-2,-1,-1,-1
1528446955464344,-1,-1,-1,-3,-1,-1,0,-4
1528446955466338,-1,-1,-3,-1,-1,-1,-1,0
1528446955466338,0,-2,-2,-1,-1,-1,1,-1
1528446955487318,-1,-1,-1,-1,-1,-2,-2,-1
1528446955487318,0,-2,-2,1,0,-2,1,-1
1528446955488280,0,0,0,0,1,0,-1,6
1528446955488280,1,0,0,-1,0,-1,-1,-4
1528446955502243,-1,-1,-1,-2,-1,-1,0,-1
1528446955502243,-1,-2,-1,-2,-1,-2,-3,0
1528446955503239,-1,0,-1,-2,-2,0,-2,-3
1528446955503239,-2,-1,-2,-2,-3,-1,-1,0
1528446955524183,-2,-1,-1,-1,0,-1,0,3
1528446955524183,-3,0,-1,0,-2,0,-1,-3
1528446955526178,-3,-1,0,-1,-1,0,-2,-3
1528446955526178,-1,0,-1,0,-1,-1,-1,0
1528446955538191,0,-1,-2,-1,-1,-1,0,-2
1528446955538191,0,-2,-1,-1,-1,0,0,0
1528446955553153,-1,-2,-2,-1,2,-1,-1,-2
1528446955553153,-1,0,1,1,-1,0,-1,0
1528446955562083,-1,-2,-2,0,-1,0,-1,0
1528446955562083,-1,-1,-1,-1,-1,-1,-1,-2
1528446955563081,-1,-1,0,-1,-1,-1,0,-5
1528446955563081,0,-1,-1,-3,-1,-2,-1,6
1528446955584056,-2,-1,0,-1,-1,0,1,-3
1528446955584056,-1,-1,1,-1,-2,-1,-2,-2
1528446955586018,-2,-1,-1,-3,-3,-1,0,0
1528446955586018,-1,-2,0,-2,0,0,0,-3
1528446955598026,-2,-2,-2,-2,-1,-1,-2,-2
1528446955598026,-1,-1,-1,-1,1,-2,-1,0
1528446955606962,-1,-2,-1,-1,-1,-3,-1,0
1528446955606962,-2,-1,-2,0,-2,-2,-3,-1
1528446955621962,-2,-2,-2,0,0,-1,0,1
1528446955621962,-2,-1,1,-1,0,0,-1,-3
1528446955627945,0,0,-1,-1,-1,1,-1,0
1528446955627945,-1,-2,-2,-2,1,-1,-1,-3
1528446955643863,0,1,0,-1,-1,-2,-1,-2
1528446955643863,0,-1,-2,1,-2,-1,0,-1
1528446955645885,0,-1,-2,-2,-1,-1,-1,0
1528446955645885,-2,-2,0,-1,-1,-1,0,-1
1528446955665841,-2,0,-2,-1,0,-2,-3,-10
1528446955665841,-2,0,-1,0,-2,1,1,8
1528446955674781,-1,-2,0,-1,0,-2,-3,-3
1528446955674781,-1,-1,-1,-1,-1,-1,1,-3
1528446955681763,2,-2,-1,0,-1,0,0,0
1528446955681763,-1,-1,-2,-1,-2,-1,-1,-2
1528446955683757,-2,-1,-2,0,-2,-2,-1,-1
1528446955683757,0,0,-1,-1,-2,-2,-1,-2
1528446955704702,-3,0,1,-2,-1,0,-2,2
1528446955704702,0,-2,-2,-1,-1,0,-2,-3
1528446955705698,1,0,1,-1,-2,0,0,0
1528446955705698,-2,-1,-1,-1,-2,-1,-1,-2
1528446955727640,1,-1,-1,-2,0,-1,-1,1
1528446955727640,0,-1,-1,-3,-1,-1,-1,-3
1528446955728637,-1,-2,0,-1,-1,-1,-1,-1
1528446955728637,-2,1,-2,-1,-3,-1,-2,0
1528446955741602,-1,-2,-2,1,-1,0,-1,0
1528446955741602,-1,0,0,-1,0,-2,-1,1
1528446955743597,1,0,-1,-2,0,-1,0,-5
1528446955743597,-1,-2,-1,0,-2,0,-1,-3
1528446955764541,-1,-1,-2,0,-3,0,0,2
1528446955764541,-1,-2,-1,-1,-2,-2,0,-5
1528446955765540,-3,0,-2,0,-2,-1,-3,0
1528446955765540,0,-3,-1,-2,-1,-1,-1,-1
1528446955802439,0,0,-1,-1,-1,0,0,-2
1528446955802439,-1,0,-1,0,0,-2,-1,-1
1528446955804434,-2,-1,-2,-1,-1,-1,0,1
1528446955804434,-1,0,-1,0,0,0,-1,-1
1528446955805431,-1,-3,-1,-1,1,-1,0,0
1528446955805431,-1,-1,-2,-1,-1,-2,-2,0
1528446955809421,-2,0,0,1,1,-2,-1,1
1528446955809421,-1,-2,-1,-2,0,-1,-2,-2
1528446955831363,-1,-1,-1,-1,-1,-1,0,-5
1528446955831363,-2,-1,-1,1,-1,-2,-2,7
1528446955839341,0,-3,0,-1,-1,-2,-1,-5
1528446955839341,1,-1,-1,-1,-1,0,-1,0
1528446955847349,1,0,0,-2,-2,-1,0,0
1528446955847349,-1,-1,-3,-2,-1,-1,0,-5
1528446955848316,-1,-1,-2,0,0,-1,-2,0
1528446955848316,0,-2,0,-1,-2,-1,-3,0
1528446955860339,0,-3,-2,-2,-2,-1,-2,0
1528446955860339,-1,-1,-1,0,0,-1,-1,-2
1528446955877267,0,-2,-1,0,-1,-1,2,0
1528446955877267,0,0,-1,0,0,0,-1,0
1528446955884267,-2,-1,-2,0,-2,-1,-3,-1
1528446955884267,-2,-1,-1,-2,-1,0,0,-2
1528446955886216,-2,-1,-1,-1,-1,0,-1,0
1528446955886216,-2,0,-2,-1,-1,-3,1,1
1528446955907206,-1,0,-2,-2,-2,-2,-1,-4
1528446955907206,1,-2,-1,-1,-1,1,0,3
1528446955908280,-1,-1,-2,-1,-2,-1,-1,-3
1528446955908280,-2,-3,-1,-2,0,-3,-1,0
1528446955922175,-2,-1,-2,-2,-2,-2,-1,-1
1528446955922175,-1,-1,-1,-1,-2,0,-1,-2
1528446955928104,1,0,-2,0,-2,-2,-1,1
1528446955928104,-1,-1,-1,0,-3,1,-1,-3
1528446955944061,-1,0,-2,0,-2,-1,0,3
1528446955944061,0,-1,-1,0,1,-1,-2,-2
1528446955946057,-1,-2,1,-1,-2,-3,-1,1
1528446955946057,-1,0,-2,0,0,-1,-1,0
1528446955967045,0,-2,0,-1,1,-2,0,-1
1528446955967045,-1,-1,-1,-1,-2,0,-1,-1
1528446955968994,-1,-1,-2,-1,-2,0,-1,-2
1528446955968994,0,-1,-1,0,-1,-1,0,-1
1528446955981011,0,0,0,0,-1,-2,-1,0
1528446955981011,-3,-1,-1,0,-1,-1,-1,-4
1528446955990079,0,-1,-2,-1,1,0,-1,0
1528446955990079,0,-1,0,1,1,0,-1,-1
1528446956003902,-2,-2,0,-3,0,-1,0,-1
1528446956003902,-1,-1,-1,-1,-1,-2,-1,-3
1528446956005896,-2,0,-2,0,-2,0,-1,-5
1528446956005896,-1,-2,-2,-1,-2,-1,-3,7
1528446956026989,-1,0,-1,-1,-1,0,-1,-4
1528446956026989,0,-1,-1,-2,0,-2,-1,0
1528446956028837,0,-2,-2,-2,-1,-1,0,-1
1528446956028837,-1,-1,0,-1,-1,-1,1,-3
1528446956040802,-2,0,0,-1,-1,0,-1,1
1528446956040802,-1,1,-1,-1,-1,-2,-1,-1
1528446956049789,-1,-3,0,-1,-2,0,-1,2
1528446956049789,-1,-1,-2,-3,-1,-2,-1,-1
1528446956064741,1,-2,-1,-1,-1,0,-1,2
1528446956064741,0,0,0,0,-1,0,-1,-2
1528446956065736,-2,0,0,0,2,-1,-1,0
1528446956065736,-1,0,0,-3,0,0,-1,-3
1528446956086721,-2,-2,-2,-1,-1,-3,-3,-1
1528446956086721,-1,-2,-2,-1,-1,0,-1,0
1528446956088676,-1,0,0,0,-1,0,-2,1
1528446956088676,0,-1,-2,0,-1,-1,-1,-2
1528446956100681,0,0,-1,-1,0,-1,0,-3
1528446956100681,0,-1,2,1,0,-1,-3,4
1528446956116628,1,-1,-1,-2,-1,-2,1,-4
1528446956116628,-2,-1,-2,-1,-1,-1,-2,-2
1528446956124578,0,-1,-3,-1,0,0,-1,2
1528446956124578,-3,-1,0,0,-2,-2,-1,-4
1528446956125576,-1,-1,0,-1,0,0,0,1
1528446956125576,-1,-2,-2,-3,-5,-1,-2,-1
1528446956146519,-1,0,1,2,-1,-1,-1,-1
1528446956146519,-1,-1,-1,-3,0,-1,-1,-1
1528446956148519,-2,-2,0,-1,-1,-1,-1,-1
1528446956148519,0,-2,-1,-2,0,-3,-1,-1
1528446956160641,1,-2,-2,1,-1,-1,-1,0
1528446956160641,-2,-1,-1,0,-1,-1,0,-2
1528446956169471,2,-1,-3,-2,0,-2,-1,-1
1528446956169471,-2,1,-1,-1,0,0,-2,-3
1528446956183783,-2,-1,0,-2,0,0,-2,-2
1528446956183783,-1,-3,-2,0,0,-2,0,0
1528446956192652,0,-1,-1,-1,-2,-1,0,1
1528446956192652,-1,-1,0,0,-1,1,1,0
1528446956206595,-1,-2,-2,-2,-1,-1,0,-3
1528446956206595,-1,-1,-2,-1,-1,0,-1,-3
1528446956208559,-1,0,-1,-3,-2,-1,-3,-3
1528446956208559,-1,-1,0,-1,-1,0,-1,0
1528446956229766,-1,-2,0,-2,-2,0,-1,0
1528446956229766,-1,0,-2,-1,0,-3,-1,-8
1528446956230707,-1,-1,-1,0,0,-3,1,7
1528446956230707,-1,-1,-2,0,-1,-2,0,-1
1528446956244669,-1,-2,0,-1,-1,0,-1,-1
1528446956244669,-1,-1,-1,-1,-1,-1,-1,-1
1528446956245684,-1,-1,-1,-1,-3,0,-1,-5
1528446956245684,0,-1,-1,1,0,-2,-1,-2
1528446956266966,-2,-1,-1,-2,-1,-1,-1,0
1528446956266966,-1,-1,0,-2,-1,0,0,2
1528446956268818,-1,-1,-1,0,-1,-1,-3,-2
1528446956268818,-1,-1,0,-1,-1,-2,-1,-1
1528446956280787,0,0,0,-1,-1,-1,-1,-1
1528446956280787,1,0,-2,0,-1,-1,-2,0
1528446956289761,-2,0,-1,-1,-1,0,0,-3
1528446956289761,-2,-1,-1,-1,-1,0,-1,-2
1528446956311704,-2,0,-1,-1,-2,0,0,0
1528446956311704,-1,-1,-3,-2,1,-2,0,-1
1528446956313697,-1,-2,0,-1,0,0,-2,5
1528446956313697,0,0,-1,-1,-1,0,1,-5
1528446956326009,-1,-2,-2,-1,-1,-2,0,-1
1528446956326009,-1,-1,-1,-1,-3,-1,-1,1
1528446956340968,-2,-1,-1,0,-1,-1,0,-5
1528446956340968,-2,-1,-1,-2,-1,0,-2,1
1528446956348952,-1,-1,0,-1,-2,-1,-1,0
1528446956348952,-1,-2,0,-1,1,0,-3,-3
1528446956356813,1,-2,-2,0,-2,0,-2,-2
1528446956356813,-2,-2,-2,-1,-1,-1,-1,0
1528446956371722,1,0,-1,-1,-1,-2,-1,-3
1528446956371722,1,-2,-2,0,-1,-2,-1,0
1528446956373717,-1,-1,-1,-2,0,-2,0,-2
1528446956373717,-1,-1,-2,-1,-2,-1,-1,0
1528446956385713,1,-2,-2,0,-2,-2,-2,-1
1528446956385713,0,-1,-1,-2,-2,0,0,-2
1528446956394662,-2,-2,0,1,-2,-2,-3,0
1528446956394662,1,-1,-2,-1,-1,-2,-1,-2
1528446956409620,-1,0,-3,0,-1,-1,-2,-1
1528446956409620,-1,-1,-1,-2,0,-1,0,-1
1528446956410661,-2,1,-2,-2,1,-1,0,-3
1528446956410661,-2,-2,-1,-1,-3,-1,-1,-1
1528446956431620,-2,0,-1,-2,-1,-1,-1,-1
1528446956431620,0,-1,-2,-1,-1,-2,-2,-2
1528446956437602,-1,-1,-1,-1,-2,-1,-1,-1
1528446956437602,-1,-1,-1,-1,0,-2,-3,-2
1528446956446576,-2,-2,-1,0,-2,-2,-1,-1
1528446956446576,-3,-1,0,-1,-2,0,-2,-1
1528446956452506,-1,0,1,-2,-3,0,-2,-2
1528446956452506,0,1,-2,-1,-2,0,-1,0
1528446956476494,-1,0,0,-1,0,-3,0,0
1528446956476494,-1,1,-1,1,-1,1,-1,-2
1528446956478445,0,-3,-2,-1,0,-1,-2,-1
1528446956478445,-2,-1,-1,0,-2,-2,-1,-3
1528446956491454,-2,-1,-2,-1,-1,-2,-1,4
1528446956491454,0,0,-1,-3,-3,0,0,-3
1528446956493397,-1,0,-2,-1,-1,0,1,-1
1528446956493397,-2,-1,-2,-1,-1,0,-1,0
1528446956506415,0,-1,-1,0,0,0,-1,-3
1528446956506415,0,-3,-1,0,-1,-2,-1,1
1528446956513397,-2,-2,-2,-2,-2,-2,-1,1
1528446956513397,-2,-1,-2,-1,2,-2,-1,-5
1528446956537338,-2,0,-1,-3,-3,-1,-1,-3
1528446956537338,-1,-2,-1,-1,-1,-1,0,1
1528446956538279,1,-1,-1,-1,-2,-1,0,0
1528446956538279,0,-1,1,-1,0,-2,0,0
1528446956560275,0,-1,0,0,-2,0,0,-1
1528446956560275,-2,0,-3,-1,0,0,-2,0
1528446956561216,-1,-2,-1,0,-1,0,0,-3
1528446956561216,-1,-2,-2,-1,-1,-3,-1,-1
1528446956566256,-1,-1,-2,0,0,-1,-1,-1
1528446956566256,-1,-3,0,-1,-2,-2,-1,-1
1528446956573241,0,0,-2,1,-1,-3,0,0
1528446956573241,0,0,-1,0,-2,0,-2,0
1528446956589193,-1,-2,-1,-1,-1,-1,0,-4
1528446956589193,-1,-1,-1,1,0,-1,-2,0
1528446956591136,-1,0,-1,0,0,-1,-2,-7
1528446956591136,-1,-1,-1,-3,-2,-3,1,5
1528446956619060,-2,-1,-1,-2,-1,-2,-1,-1
1528446956619060,-3,0,-1,-2,-2,-1,-2,-1
1528446956621054,-1,-1,0,-1,0,0,-1,-2
1528446956621054,-1,-1,-1,-1,-1,0,-2,-2
1528446956634020,-1,-1,0,-1,0,-1,-1,-1
1528446956634020,0,-1,-2,-2,0,-2,1,-1
1528446956636022,1,0,-1,-1,-2,-1,-2,4
1528446956636022,-1,-2,-1,0,-2,0,0,-3
1528446956648980,-2,-1,-2,-1,2,-1,-1,-1
1528446956648980,-1,-1,-2,-2,-6,-3,-1,-2
1528446956650993,-3,-2,-1,0,1,0,0,-2
1528446956650993,0,-2,-1,0,-3,-2,-1,0
1528446956671919,0,-2,-2,-2,-3,-2,-1,-1
1528446956671919,-3,-1,-1,0,-1,0,-1,-2
1528446956673913,-2,0,-3,-1,0,-3,-2,1
1528446956673913,0,0,-2,-2,-1,-1,0,-1
1528446956685881,-2,-1,-1,0,0,0,0,-7
1528446956685881,0,-1,0,0,-3,0,-1,7
1528446956701839,1,-2,0,-1,-2,0,0,-3
1528446956701839,-2,-2,1,-2,0,0,-2,-2
1528446956709959,1,-1,-1,-1,-3,0,0,1
1528446956709959,0,-1,-3,1,0,-1,-2,-3
1528446956710837,-1,0,-1,-1,-1,-1,-1,-1
1528446956710837,-2,0,-1,-1,-1,0,0,1
1528446956731762,-1,-2,0,-1,-1,-1,-2,0
1528446956731762,-2,0,-1,-1,-1,-2,0,-1
1528446956733754,0,0,-2,1,-2,-1,-1,-1
1528446956733754,0,-1,-1,0,-1,-1,-2,-1
1528446956754964,0,-1,-1,-1,1,0,-2,-2
1528446956754964,-2,-1,-1,1,-1,-1,0,-1
1528446956755914,-1,-2,-1,-1,-1,-2,0,-1
1528446956755914,-1,0,-1,-2,-1,-1,-2,-1
1528446956769969,-1,0,-2,0,-2,-2,-1,-1
1528446956769969,-1,-1,0,-2,0,-1,-1,-3
1528446956770873,-1,-1,-1,-1,-2,-1,-3,-1
1528446956770873,-2,0,-2,0,-1,-1,-1,-1
1528446956792077,-1,-1,-1,-2,-2,-3,-2,0
1528446956792077,-1,-1,0,0,0,-3,-3,2
1528446956794071,-1,1,-1,-1,-1,-2,0,-2
1528446956794071,-1,-1,-1,-1,-1,-1,0,-1
1528446956814992,-1,-2,-2,-1,-2,1,0,0
1528446956814992,-1,-1,0,-1,-1,0,-2,-2
1528446956815964,-3,0,-1,0,0,-1,0,-1
1528446956815964,-2,-2,0,0,-2,-1,-2,0
1528446956837064,-1,-2,0,1,0,-1,-1,-4
1528446956837064,1,-2,0,-2,-1,0,-1,-2
1528446956838903,0,-2,-3,-2,-2,1,-1,0
1528446956838903,1,-1,0,1,-1,1,0,-2
1528446956853022,0,0,-1,-2,-1,-1,-1,0
1528446956853022,-1,-2,-2,0,0,-3,-2,-3
1528446956853890,-1,-1,-1,-2,-2,-2,-1,0
1528446956853890,-1,-3,0,-1,-1,-2,-1,-3
1528446956865987,-1,-1,-1,0,-1,-2,-1,0
1528446956865987,0,-1,0,-1,0,-1,0,0
1528446956875099,-1,-2,-1,-1,-2,-2,-1,-2
1528446956875099,0,-2,-1,-1,-1,-2,0,1
1528446956889126,0,-1,-2,-1,-1,-1,-1,0
1528446956889126,-1,0,-2,-1,-1,0,-1,-2
1528446956896093,-3,-2,0,-1,-2,-2,0,-2
1528446956896093,-1,-1,-3,-2,0,-2,-1,-2
1528446956911912,-1,-3,0,0,-2,1,1,-1
1528446956911912,0,0,0,-1,-2,0,2,-1
1528446956913905,-1,0,0,-2,-1,0,-2,-1
1528446956913905,-1,-1,-1,-2,-1,1,-2,0
1528446956926014,-1,0,-1,-2,-2,-1,0,-1
1528446956926014,2,-3,-2,-1,-2,0,-1,-2
1528446956940970,-1,-2,-1,-1,-1,1,-1,-2
1528446956940970,0,-1,-2,1,-2,-3,1,0
1528446956948813,-3,-3,-2,-2,0,-2,0,-1
1528446956948813,-2,-1,0,-2,0,0,-1,1
1528446956955948,-2,0,0,-1,0,0,-1,-2
1528446956955948,0,-2,-1,-2,-1,0,-1,0
1528446956970755,-1,-1,-2,0,-1,-1,-2,-1
1528446956970755,-1,1,1,-1,-2,0,-1,-2
1528446956979729,0,-2,-1,-1,-3,-2,0,1
1528446956979729,-2,-1,-1,-2,-1,0,-3,-5
1528446956985870,1,-1,-1,-2,-3,-1,1,0
1528446956985870,-1,-1,-2,-1,-1,-1,0,-1
1528446956994688,1,-2,-3,-1,-1,-2,-1,-1
1528446956994688,1,-1,-2,0,0,0,0,1
1528446957009015,-2,1,-1,-1,-1,0,0,-3
1528446957009015,-2,-1,-1,0,-1,-2,0,4
1528446957015837,0,-1,-1,-1,0,1,0,-3
1528446957015837,-1,0,-1,1,0,-2,-1,-3
1528446957031927,-2,-2,-1,-1,-1,-2,-1,0
1528446957031927,0,0,-2,-2,-1,-1,0,-2
1528446957033786,-2,0,-3,-2,-1,-2,-1,0
1528446957033786,-1,1,-1,-2,-2,-1,-1,2
1528446957045890,-1,-1,-2,0,0,-2,-1,-1
1528446957045890,-1,-3,-1,-2,-2,-2,-2,-3
1528446957054730,-2,-2,0,-1,-1,-2,-1,-2
1528446957054730,-1,-2,-3,-1,0,-1,-2,-3
1528446957069055,-1,-1,0,-4,-1,-1,0,1
1528446957069055,-1,-2,-2,0,-2,0,0,-2
1528446957075875,0,0,-1,0,-1,-1,-1,-2
1528446957075875,-1,0,0,-1,-2,-1,1,0
1528446957091832,-2,2,-1,-1,-2,-2,-2,-2
1528446957091832,0,0,-2,-1,0,0,-1,-1
1528446957093859,-1,-2,0,-1,-1,-1,-1,-1
1528446957093859,-2,-2,-2,0,-2,-1,-1,-1
1528446957114771,0,-2,-2,-2,0,-1,0,-1
1528446957114771,-1,0,-2,-2,-2,-2,-2,-1
1528446957115779,-2,-1,0,-1,-1,-2,-1,-1
1528446957115779,-2,-1,-1,-1,-1,-1,-1,-1
1528446957128980,0,0,0,0,0,-1,-1,0
1528446957128980,-2,-2,0,-1,-1,-1,-1,-2
1528446957136083,-1,-1,-2,-1,-1,0,-2,0
1528446957136083,-1,0,-2,-1,-1,-2,-2,-1
1528446957152237,0,-1,-2,-1,0,0,-2,-2
1528446957152237,1,-2,-4,-1,-2,-1,0,-1
1528446957153101,-1,0,-1,0,0,-1,-1,-1
1528446957153101,-2,-1,0,-2,-1,0,0,-1
1528446957174177,-2,-3,-2,-2,-1,-1,-2,-5
1528446957174177,0,-1,-1,1,-2,-1,0,4
1528446957176015,0,0,-3,-1,-1,-2,-2,-1
1528446957176015,1,-1,-1,-2,-2,-2,0,0
1528446957187987,0,-1,-1,0,-2,-1,-1,-3
1528446957187987,-1,-1,-1,-1,-2,-1,-2,-1
1528446957197600,0,0,-2,-2,-2,0,-1,-1
1528446957197600,-2,0,0,-1,-3,0,-1,-1
1528446957211745,0,0,-2,-2,-1,-1,-1,3
1528446957211745,-2,0,-1,-1,0,-2,0,-3
1528446957213739,-1,-1,-1,-2,-2,-1,1,1
1528446957213739,0,-1,-2,-2,0,0,-2,-1
1528446957234819,-1,-1,-1,-1,-2,-1,0,0
1528446957234819,-1,-2,-2,-1,-1,-1,-2,-1
1528446957235701,-1,1,0,-1,-1,-1,-1,-3
1528446957235701,1,-1,0,0,-2,0,-2,-1
1528446957248074,-1,-1,0,-2,-1,-1,-1,-1
1528446957248074,-2,-1,0,-2,0,0,0,-3
1528446957257251,-1,-2,-1,-1,-2,-2,-1,0
1528446957257251,-2,-2,-1,-1,-2,-1,-1,0
1528446957272451,-1,-2,-1,0,-2,-1,-2,1
1528446957272451,0,-1,-1,-2,-1,0,-2,-1
1528446957273418,-2,-1,0,-3,-3,-2,-1,-1
1528446957273418,-1,-1,-1,-2,-1,0,0,-1
1528446957293514,-3,0,0,-2,-1,-1,-1,-3
1528446957293514,-2,-1,0,-2,-1,0,-1,-1
1528446957294353,0,-2,-2,0,-1,0,0,-7
1528446957294353,-2,-1,-1,1,-5,-5,-1,8
1528446957308616,0,-3,-1,0,1,1,0,-1
1528446957308616,-2,-3,-1,2,3,0,-1,-3
1528446957316691,0,-1,-1,-1,0,-4,-3,-1
1528446957316691,-3,-1,-1,-2,0,0,1,-3
1528446957331653,-2,0,-2,0,0,0,0,0
1528446957331653,-1,0,-1,0,0,-1,-1,0
1528446957331653,-1,-3,-2,-1,1,1,0,0
1528446957331653,0,-2,-3,-2,-1,-2,-1,-2
1528446957353595,1,-2,0,0,-1,-2,-1,1
1528446957353595,1,-1,-3,-2,-2,0,-1,-3
1528446957354592,-4,-1,-2,-1,-2,-1,0,1
1528446957354592,0,1,-1,-2,0,0,0,-3
1528446957368932,-2,-1,0,-2,-1,-1,-2,1
1528446957368932,0,0,-2,-1,-2,-3,-1,0
1528446957369777,0,-1,-1,-1,-1,0,-1,-1
1528446957369777,-2,-1,-1,1,0,0,-1,-2
1528446957391076,-1,-1,-1,-3,0,-1,-1,0
1528446957391076,-1,0,-2,-2,-1,0,0,-1
1528446957392075,-1,0,-2,0,0,-2,-1,-2
1528446957392075,-1,-2,-2,-3,1,-2,-2,-1
1528446957414152,0,0,-1,-2,-2,-2,0,1
1528446957414152,-2,0,-2,-1,-2,-2,-1,-3
1528446957415091,-1,-1,-2,0,1,0,0,-1
1528446957415091,-1,-2,0,-2,1,1,-1,-2
1528446957429111,-1,-2,-2,1,0,0,-1,-5
1528446957429111,1,0,-1,-1,-1,0,-1,5
1528446957429111,-1,0,0,-2,0,-2,0,-1
1528446957429111,0,-1,-1,-1,0,-1,0,-1
1528446957451278,-2,-2,-2,-1,-1,-1,-1,-2
1528446957451278,-2,-2,-2,0,-2,0,0,-2
1528446957452117,0,-1,-3,-2,-2,-2,-1,0
1528446957452117,-1,0,-1,-2,-1,0,0,-3
1528446957474239,0,-1,0,-2,-1,-2,0,1
1528446957474239,-1,-1,-2,-2,-2,-2,-2,-1
1528446957475104,-2,-2,0,0,0,0,-2,-1
1528446957475104,-1,-1,-2,1,-1,0,0,-1
1528446957488194,0,1,-1,-1,-1,-1,-2,-1
1528446957488194,-1,-1,0,-1,-1,-4,-1,-2
1528446957496214,-1,-1,-1,-1,-1,0,-1,0
1528446957496214,-2,-2,-1,-1,-3,0,-2,1
1528446957511189,-1,-2,-2,-1,-1,-1,-2,0
1528446957511189,-2,-2,-2,-1,-1,1,-1,-2
1528446957512173,-1,-1,-1,-1,-1,-1,-2,0
1528446957512173,1,1,0,0,1,-1,-2,-2
1528446957534167,-1,-1,0,-2,-2,-1,0,0
1528446957534167,0,-2,-2,-2,0,-1,-2,-2
1528446957534167,-2,-1,-1,0,-1,-1,-2,-6
1528446957534167,0,0,-1,1,-1,0,-1,5
1528446957549127,-1,-1,-2,1,-1,-1,0,-2
1528446957549127,-2,-1,-2,0,0,-1,0,1
1528446957549127,0,-2,-2,-2,-2,0,0,-3
1528446957549127,-1,-1,-1,-1,0,-2,-1,-3
1528446957579102,0,0,-1,-1,-1,-3,-1,-1
1528446957579102,0,1,0,0,-2,-1,-2,-1
1528446957580063,-1,0,-1,-1,-1,-2,0,1
1528446957580063,-1,-2,-1,-3,0,-1,0,-3
1528446957594025,0,-2,-1,-1,0,-1,1,-2
1528446957594025,-2,-1,-2,-1,-2,-2,0,-1
1528446957595005,0,-1,0,1,-1,0,-1,0
1528446957595005,-1,0,0,-1,-1,-1,-1,-2
1528446957608524,-1,-1,-1,-1,1,-1,-2,-1
1528446957608524,-1,-1,-1,-1,-1,-1,-2,-2
1528446957616503,0,-1,-1,-1,-2,0,-1,1
1528446957616503,0,-1,-2,0,0,0,-1,-1
1528446957631533,-3,0,1,-1,0,-1,-1,-1
1528446957631533,0,-1,0,-2,-3,-1,-1,-1
1528446957632560,-1,-1,0,0,-1,-2,-1,-1
1528446957632560,-2,-1,0,-1,-2,-2,0,-1
1528446957653827,-2,0,-1,-1,0,0,-1,0
1528446957653827,0,-2,-1,0,-2,-3,-2,-1
1528446957670625,0,-1,1,-2,-1,-1,-1,0
1528446957670625,0,0,-2,-1,-2,0,-1,-1
1528446957671629,0,-1,0,1,0,0,1,-2
1528446957671629,-1,-2,0,-2,-1,-2,-1,-1
1528446957672620,-1,-1,0,-2,-3,-1,-1,-1
1528446957672620,-1,-1,-1,1,0,-1,-1,-1
1528446957691726,-2,-2,-3,-5,-8,-4,-4,-2
1528446957691726,-1,-2,-2,0,3,0,1,-8
1528446957698708,0,0,1,3,2,-1,0,6
1528446957698708,0,-2,-3,-4,-6,0,-1,-3
1528446957713855,0,-1,-3,-1,-2,0,-2,-1
1528446957713855,1,0,0,-1,-4,1,-1,-1
1528446957714852,0,0,-3,-2,1,1,1,-2
1528446957714852,-2,1,0,0,-2,-3,-1,-1
1528446957727846,0,-1,1,1,-1,1,0,1
1528446957727846,-1,-3,-1,0,1,0,0,1
1528446957735794,-1,-1,-2,0,1,0,-2,-2
1528446957735794,-1,-2,0,0,-1,-1,-1,0
1528446957750754,0,0,-2,-2,-1,-1,-1,-2
1528446957750754,-1,-1,-1,-2,0,-1,0,1
1528446957751750,-2,-2,-3,-1,-3,-1,-2,-1
1528446957751750,-3,-2,-2,-2,-2,-3,0,-2
1528446957773726,-2,-1,-1,-1,0,-1,1,0
1528446957773726,-1,0,-1,0,-1,0,-2,1
1528446957774690,0,-1,-3,-2,-3,0,-2,-3
1528446957774690,-1,-2,-1,-1,-1,0,-1,-1
1528446957787693,0,-1,0,0,0,0,-1,0
1528446957787693,1,1,-1,-2,0,-1,0,1
1528446957796644,-1,-1,-1,-2,-2,-3,0,-1
1528446957796644,-1,-1,-2,0,1,-2,-1,-1
1528446957811591,-2,-1,1,1,-2,-3,-1,0
1528446957811591,-1,0,-1,-1,-1,-1,1,-1
1528446957812589,-3,-3,0,0,0,-2,0,-5
1528446957812589,-1,-1,-1,-2,-1,-2,0,4
1528446957833532,-1,-2,-2,0,-3,-1,-2,-2
1528446957833532,-2,-1,0,-2,-2,-2,0,0
1528446957834530,0,-1,0,0,-3,-2,-1,-2
1528446957834530,-2,-1,-1,0,-1,-2,0,-1
1528446957847700,0,-2,-2,-3,0,0,-2,-1
1528446957847700,-2,-1,-2,1,-1,-1,-2,-2
1528446957856011,0,-1,-2,-2,-2,-1,-2,1
1528446957856011,-1,-2,0,-1,-2,0,-3,-2
1528446957870978,0,-2,-1,-1,0,0,-1,0
1528446957870978,-1,-2,-1,-1,0,0,0,-1
1528446957871813,-1,0,-2,-2,-1,-1,-1,0
1528446957871813,-1,0,-1,-1,2,0,0,0
1528446957893912,0,0,-1,-1,-1,-3,0,-1
1528446957893912,-1,-2,-2,-2,-1,0,-1,1
1528446957894752,-2,-1,-1,-1,-2,-1,-1,0
1528446957894752,-1,-2,0,-3,-2,0,-1,-3
1528446957907720,0,-2,-2,0,-1,-1,1,-1
1528446957907720,-2,-1,-1,-1,-1,-1,-2,-1
1528446957916710,-3,0,-2,0,-2,-1,-1,0
1528446957916710,-1,-2,-1,-1,1,-2,-1,-6
1528446957939634,-1,-1,-2,0,1,0,-2,8
1528446957939634,-1,-2,-1,0,-1,-1,0,-5
1528446957940633,-2,-2,-2,-1,-1,-1,-2,-1
1528446957940633,-1,0,-1,-1,-2,0,-2,-2
1528446957953614,-1,-1,-2,-1,-1,-2,0,-4
1528446957953614,0,-2,-1,-3,-1,-1,-1,0
1528446957954593,0,0,-2,-1,-2,-1,-1,0
1528446957954593,0,-2,0,-1,1,-1,-1,-2
1528446957969559,0,-1,-1,0,-2,-1,0,-2
1528446957969559,-1,1,-3,-1,-2,-3,-2,0
1528446957976536,1,0,-1,-1,-1,-1,0,-2
1528446957976536,-2,-1,-2,0,-1,-1,-2,1
1528446957991497,0,0,-1,-1,-1,0,-1,-2
1528446957991497,-1,-3,0,1,-2,-1,-2,0
1528446957992575,-1,-2,-1,-2,-2,-2,-2,-1
1528446957992575,0,0,-2,-1,0,-1,-1,0
1528446958013574,-2,0,-1,-2,-1,-1,-1,-2
1528446958013574,0,-2,-1,0,-1,-2,0,-1
1528446958021648,0,-3,-2,0,-1,-1,-1,-1
1528446958021648,0,-1,-1,-1,-2,-2,0,0
1528446958027593,-2,-2,0,-2,-1,-1,-2,-4
1528446958027593,-1,-1,-2,-1,0,-1,-3,1
1528446958043982,1,-1,0,0,-1,-1,0,-1
1528446958043982,-1,-2,-1,-1,-2,0,-1,0
1528446958050802,-1,-2,0,0,0,-1,-1,-2
1528446958050802,-1,-1,-1,-2,-1,-1,-1,-2
1528446958051847,-2,-2,0,-1,0,-1,0,-1
1528446958051847,-1,1,0,-1,-3,1,-1,0
1528446958073741,0,1,-1,1,-1,-2,-2,-3
1528446958073741,0,0,0,-2,0,-1,-1,3
1528446958074737,-1,-1,-3,-1,-1,0,-1,-4
1528446958074737,0,-1,-2,0,-1,-1,-1,-2
1528446958097045,-3,-1,-1,-1,-2,-1,-2,1
1528446958097045,-1,-1,-2,0,-1,0,0,-4
1528446958097884,-1,-2,-2,-1,-1,-1,-1,1
1528446958097884,0,-2,-2,-2,0,-2,-3,2
1528446958110839,1,-2,-1,-2,-1,0,-2,-4
1528446958110839,1,0,-2,0,-2,-1,-2,-1
1528446958111846,-1,0,-1,0,0,-1,-1,0
1528446958111846,2,-1,-1,1,0,-1,-2,-2
1528446958133777,-1,-1,-2,-1,-2,-1,0,0
1528446958133777,-2,0,-2,-1,-1,0,1,-1
1528446958134774,-2,0,-2,-1,0,-2,0,0
1528446958134774,-1,-1,-1,-1,-1,-2,-1,-3
1528446958164894,0,0,-2,-1,0,-2,-1,0
1528446958164894,-1,0,-1,0,-1,0,-2,-1
1528446958164894,-1,-1,-2,-1,0,0,-2,-1
1528446958164894,-3,-2,-2,-2,-1,-1,-1,-6
1528446958171290,-2,-1,-2,-1,0,-1,0,5
1528446958171290,-1,-2,-1,-2,1,0,-2,-2
1528446958172127,0,0,0,-2,-3,1,-1,-1
1528446958172127,-2,-1,-1,-1,-2,-1,-1,-2
1528446958194112,0,-1,0,-1,-1,-1,0,-2
1528446958194112,-1,-2,-2,-1,0,-2,-1,-2
1528446958194112,-2,-1,-1,0,0,-1,0,-1
1528446958194112,-1,0,0,-1,0,0,-1,1
1528446958216572,-1,-1,-2,-1,-2,0,-2,-2
1528446958216572,-2,-2,0,-1,-1,-1,-2,0
1528446958217413,0,-2,-1,0,-1,-1,-1,0
1528446958217413,-1,0,-1,0,1,-2,-2,-2
1528446958231534,-3,-1,0,0,0,-1,0,-2
1528446958231534,0,0,-2,0,-2,-1,-1,-2
1528446958232529,-1,-1,-1,-3,0,-1,-2,-1
1528446958232529,0,-1,-1,-1,-2,1,-1,0
1528446958253615,0,-1,-2,-1,-2,-3,-2,-1
1528446958253615,0,0,-1,-2,-1,-3,-1,-1
1528446958254609,-3,-3,0,-1,-1,-1,1,-1
1528446958254609,0,0,0,0,-1,-2,0,1
1528446958276761,0,-1,-1,-3,-2,1,0,-2
1528446958276761,-2,-2,0,-1,-1,-3,-1,-8
1528446958277599,0,0,-1,-1,-2,-1,-2,6
1528446958277599,-1,-2,-3,-2,-1,-2,-1,-4
1528446958299894,0,-1,-1,0,-2,-2,-1,-2
1528446958299894,-1,-1,-1,-1,-1,-2,1,0
1528446958299894,-1,-1,-1,-1,-1,0,-3,-3
1528446958299894,0,-1,-1,-2,0,-1,0,0
1528446958313701,-1,2,1,-1,1,-1,-1,-1
1528446958313701,-2,-2,-1,-2,-1,-2,-2,0
1528446958314744,0,-1,-1,1,-3,-1,1,-3
1528446958314744,0,-1,-1,0,0,0,-2,2
1528446958336795,0,-2,-2,-1,-1,-1,-1,0
1528446958336795,-2,-1,0,-2,-2,0,0,0
1528446958337651,-2,0,1,-2,-2,-2,0,-1
1528446958337651,0,0,-1,-1,-2,0,-1,-1
1528446958351627,-1,-1,-2,0,-2,0,-2,-2
1528446958351627,-2,-1,-1,0,-2,-1,-2,1
1528446958351627,-1,-2,-1,-1,-1,-1,-1,-6
1528446958351627,-4,0,1,0,-2,0,-4,6
1528446958373573,-2,-2,-1,0,-1,-1,-2,-3
1528446958373573,0,0,-2,-2,-2,0,-1,0
1528446958374538,-1,0,0,-1,0,-2,0,-1
1528446958374538,-1,-1,-2,0,1,-1,-1,-1
1528446958396641,0,-1,1,-1,-2,0,1,1
1528446958396641,-1,-1,-1,-2,-2,0,-1,0
1528446958397532,-1,-1,-1,-2,-1,-1,-2,-3
1528446958397532,-2,-2,0,-1,-1,0,0,-1
1528446958412455,-1,-1,-1,-2,-1,0,1,1
1528446958412455,1,-1,-1,0,-2,-2,0,-2
1528446958412455,0,1,-1,0,-1,-1,-1,0
1528446958412455,0,-2,-3,-3,-2,-1,0,-2
1528446958433385,-1,-2,-1,-3,0,-3,-1,0
1528446958433385,0,-2,1,-1,-1,-3,-2,-1
1528446958434386,-2,-2,-2,-1,0,-2,1,2
1528446958434386,-1,-1,0,-1,-2,-4,-1,-2
1528446958457652,1,0,-1,0,-1,-2,-1,-2
1528446958457652,-2,-1,-1,0,-2,-2,0,0
1528446958458514,0,-2,-3,0,-1,0,-2,-5
1528446958458514,1,-2,0,-1,-2,0,0,1
1528446958471625,-2,1,-1,-2,-2,-2,-1,-2
1528446958471625,0,-1,0,0,-1,-1,-1,0
1528446958472582,-2,-2,-1,-3,-1,-1,-1,-1
1528446958472582,0,-2,-1,-1,0,0,-1,-3
1528446958495745,-2,-2,-2,0,-2,-1,-2,-1
1528446958495745,0,1,0,-1,-1,-1,0,-1
1528446958496744,-1,-1,0,-1,-2,0,1,1
1528446958496744,-1,0,0,-2,0,-1,0,0
1528446958516888,-1,-2,-1,0,-2,-2,-2,-3
1528446958516888,-2,-1,0,-1,1,1,-1,-2
1528446958517985,0,-1,-1,0,-2,-2,-3,-1
1528446958517985,-1,-1,-1,-1,0,-2,0,0
1528446958531012,-2,-2,-2,-2,-1,0,-1,-1
1528446958531012,-2,-1,-4,-2,0,0,0,-7
1528446958531862,-1,0,-1,-2,-2,-1,-2,8
1528446958531862,0,1,-1,0,-2,1,-1,-3
1528446958554813,-2,-1,-2,-1,-1,0,0,-1
1528446958554813,0,-2,-2,-2,0,-3,-2,-2
1528446958554813,-2,0,-2,0,-1,1,0,-2
1528446958554813,-3,-1,-1,0,-1,-2,-1,-3
1528446958577729,-2,0,0,-2,-1,-1,0,0
1528446958577729,-2,-2,1,-3,-2,1,-1,2
1528446958577729,-2,-1,-1,-2,1,0,-1,-2
1528446958577729,0,-4,-1,-2,-2,-1,-1,1
1528446958591156,0,0,-1,-1,-1,-1,-2,-1
1528446958591156,-1,0,0,0,-1,-1,0,1
1528446958592006,0,-1,-2,-1,-1,-2,-1,-2
1528446958592006,-1,2,-1,-1,-2,0,-1,-3
1528446958614109,-1,0,-1,-1,0,-1,0,2
1528446958614109,0,-1,-2,-1,-1,-2,-2,3
1528446958615004,-2,0,0,-1,-1,-1,-3,-5
1528446958615004,-1,-2,-1,-1,0,0,-1,-2
1528446958637527,-1,-1,0,-1,-1,-1,-1,-3
1528446958637527,-1,-1,-1,-1,-2,-3,-3,8
1528446958637527,0,-1,-1,-2,0,1,-1,-4
1528446958637527,-1,-2,-2,-1,0,-2,-1,-1
1528446958650495,0,0,-2,-1,-3,-2,-2,-2
1528446958650495,-1,-2,-1,0,-1,1,-1,-4
1528446958658614,-2,-3,1,0,-1,-1,-2,0
1528446958658614,-1,-1,-1,-2,-1,-1,-1,2
1528446958673596,-1,-2,-1,0,-2,1,-1,-1
1528446958673596,-1,-3,-2,0,1,-1,0,-3
1528446958681835,1,0,0,-1,-2,-2,0,0
1528446958681835,-2,0,-2,0,1,-1,-2,-2
1528446958696868,-1,0,-1,0,-1,-1,-2,0
1528446958696868,1,-3,-1,0,-2,0,-1,-3
1528446958697721,-2,-2,-1,-1,-1,-1,-1,1
1528446958697721,-1,-1,0,-2,-1,-1,-2,-3
1528446958710675,-1,-1,-1,-1,-2,-2,-2,-2
1528446958710675,-3,-3,-2,-1,-1,-1,-2,3
1528446958718809,-1,0,-1,0,-2,-2,0,-5
1528446958718809,0,-1,-1,-1,-2,-1,0,0
