timestamp,emg1,emg2,emg3,emg4,emg5,emg6,emg7,emg8
1529305222959785,-2,0,1,-1,-4,-6,-1,-3
1529305222959785,4,2,1,-1,-4,-4,0,2
1529305222974745,-4,0,-1,-3,-4,-3,-1,-1
1529305222974745,0,-1,1,2,7,5,0,0
1529305222985717,-2,-2,-2,-6,-6,-4,-3,-2
1529305222985717,-2,-2,-2,2,-12,-12,-4,-2
1529305222989707,0,2,-1,3,8,11,1,0
1529305222989707,-1,-1,-1,0,3,3,3,-1
1529305223004666,-1,-2,-1,2,6,4,1,1
1529305223004666,-1,-2,-1,-3,-2,5,-1,-2
1529305223012645,-1,-2,-1,-1,-5,-8,-2,0
1529305223012645,-4,-1,-1,2,2,-1,-5,-4
1529305223027618,1,-2,-3,-2,-6,-5,-5,-1
1529305223027618,-3,-1,-1,-2,-2,-3,0,0
1529305223036581,1,1,-1,-2,-4,-6,-5,-3
1529305223036581,-4,-1,-1,-2,-1,-4,0,-2
1529305223042565,-3,-2,0,-2,-8,2,0,0
1529305223042565,0,0,0,0,3,6,3,0
1529305223057527,2,1,2,4,13,8,0,0
1529305223057527,-3,-4,-2,2,5,1,-2,-2
1529305223065502,0,0,-1,-4,-6,-7,-1,-1
1529305223065502,1,-1,-2,4,7,0,-4,-1
1529305223081460,1,1,0,1,2,0,0,1
1529305223081460,2,0,1,0,0,-3,1,0
1529305223087444,-1,-3,-2,-4,-11,-6,-4,-3
1529305223087444,2,-2,-1,-7,-11,-6,-1,-1
1529305223102409,1,1,0,-2,0,10,-1,-1
1529305223102409,-2,-1,0,1,3,6,-2,0
1529305223110383,-1,0,0,0,-1,-11,-3,-1
1529305223110383,1,1,0,0,1,1,0,2
1529305223117364,-1,-1,0,2,4,-1,3,0
1529305223117364,-2,-1,0,-2,-1,5,2,0
1529305223132324,-2,-3,0,-3,1,5,1,0
1529305223132324,-1,0,-2,-5,-15,-16,-6,-3
1529305223140303,2,0,-2,-2,-2,-3,-2,-1
1529305223140303,-2,-2,-1,-1,-5,-8,-1,0
1529305223155281,-3,-1,-2,-3,-9,-22,-5,-2
1529305223155281,1,1,-2,-1,-5,2,-2,-1
1529305223177204,0,0,0,3,5,10,3,0
1529305223177204,-2,-3,1,2,3,-2,2,1
1529305223185183,-1,-3,-1,-4,-1,6,2,-2
1529305223185183,0,-1,-1,-1,-2,-12,-4,-3
1529305223200143,-2,-2,-2,-3,-7,-10,-4,-3
1529305223200143,0,-1,-3,-3,-3,1,-2,-1
1529305223207124,-5,-2,-1,-1,-14,-9,-3,0
1529305223207124,0,-1,1,4,9,-2,1,1
1529305223222085,1,1,0,2,14,24,4,2
1529305223222085,-1,-1,-2,2,2,-5,-5,-3
1529305223237058,0,1,0,1,9,7,-2,0
1529305223237058,-1,0,1,2,16,10,2,1
1529305223252004,-1,-2,-2,-2,-7,-18,-7,-2
1529305223252004,-2,-3,-2,2,-8,-14,-1,-2
1529305223259986,-1,-2,0,3,17,27,3,-2
1529305223259986,-4,-2,-1,-2,-3,-13,-5,-3
1529305223274959,-2,-2,0,-3,-7,-3,0,1
1529305223274959,3,5,2,6,19,13,4,2
1529305223282922,4,3,-1,1,10,14,0,1
1529305223282922,-3,-1,-1,-8,-4,-5,-3,0
1529305223304870,-3,-2,-2,-14,-35,-35,-10,-4
1529305223304870,-3,-3,-2,8,-4,2,0,-1
1529305223319823,-1,-2,2,3,10,-4,1,-1
1529305223319823,-1,-3,-2,-14,-28,-10,-3,-1
1529305223327802,-3,-3,-4,-2,3,-6,-2,-3
1529305223327802,0,-2,-3,-4,-5,-5,-3,-3
1529305223342764,-1,0,0,-2,-9,-8,-1,-2
1529305223342764,-2,-4,-1,0,0,9,1,-3
1529305223349744,-2,-2,0,-7,4,1,-2,-1
1529305223349744,1,2,-3,-4,-6,-4,-3,0
1529305223357722,0,1,-2,2,3,-1,0,0
1529305223357722,0,-1,-3,-3,-16,-7,-2,-1
1529305223372681,-1,0,-4,-3,10,24,3,2
1529305223372681,-1,-2,-2,-15,-20,-18,-5,0
1529305223379663,0,3,-1,-8,-6,-3,0,1
1529305223379663,0,-1,2,4,-3,-2,0,-1
1529305223394623,-3,-4,-1,-1,-13,-16,-4,-3
1529305223394623,3,3,-6,-9,9,12,-1,-1
1529305223402602,1,1,4,3,-13,-10,2,2
1529305223402602,-1,-2,-1,7,18,14,0,-1
1529305223417562,1,-1,3,4,-2,1,1,1
1529305223417562,-4,-4,-3,-6,-7,-13,-8,-2
1529305223432522,-1,-1,-3,-2,-8,-5,-4,-3
1529305223432522,-1,-3,1,11,14,6,6,-3
1529305223439503,-3,-1,-1,-6,-3,5,-2,-1
1529305223439503,-1,-1,0,1,-2,-8,-2,1
1529305223454463,0,0,-5,-2,6,2,-4,-1
1529305223454463,1,0,-1,0,-5,0,1,2
1529305223462442,0,0,0,7,2,-3,-4,0
1529305223462442,0,-1,-1,-6,-3,-1,-3,1
1529305223477402,-1,-1,-3,1,-1,6,16,-2
1529305223477402,-2,-1,-2,0,-1,-2,-5,-2
1529305223492362,-1,1,0,-2,2,3,4,0
1529305223492362,-6,-7,2,3,2,-2,-3,0
1529305223500340,2,-1,-5,-14,-13,-9,-6,-1
1529305223500340,0,1,1,4,4,3,0,-1
1529305223515300,-1,-1,1,-3,5,2,-7,-2
1529305223515300,-1,-4,-3,0,2,-2,-5,-3
1529305223522285,-2,-2,-1,3,-1,2,5,0
1529305223522285,-1,-1,-11,-6,-4,-2,-3,-2
1529305223537243,0,6,18,0,-2,0,-3,-1
1529305223537243,3,1,-2,0,0,-2,2,1
1529305223552201,-5,-4,4,1,-1,0,-1,0
1529305223552201,3,3,2,-2,0,-5,-2,-4
1529305223560180,1,-5,-16,-3,0,0,0,-1
1529305223560180,-3,2,2,-1,-3,-2,1,-1
1529305223575140,-1,-10,-8,0,1,-1,-4,1
1529305223575140,-4,0,2,2,0,2,0,0
1529305223582121,3,7,10,0,0,1,1,-1
1529305223582121,-2,-10,-11,-4,-6,-3,1,-1
1529305223597081,1,-1,-5,-4,-2,-2,-1,-2
1529305223597081,-3,0,-4,0,-1,-2,-3,1
1529305223605061,0,2,0,-1,3,1,2,1
1529305223605061,-3,-1,2,3,9,7,-1,-1
1529305223620020,-1,-3,-2,-3,-5,-3,-2,-3
1529305223620020,0,-2,-7,-7,-6,-4,0,0
1529305223634980,0,0,-6,-2,3,2,0,1
1529305223634980,-1,-1,0,-1,-3,-1,1,0
1529305223641962,-2,-1,1,-3,0,-2,-4,-2
1529305223641962,-1,-3,-11,-13,-9,-5,1,-2
1529305223657936,-2,-1,1,11,10,3,1,0
1529305223657936,-4,2,13,4,0,-1,-4,-5
1529305223664902,-1,-6,-15,1,-2,0,-1,0
1529305223664902,0,4,19,4,-3,-2,0,0
1529305223679861,-1,0,-9,-10,-6,-3,-2,-1
1529305223679861,4,-1,-14,-10,-3,-3,0,2
1529305223694821,4,5,-2,-3,-10,-3,-1,-3
1529305223694821,-4,-10,-9,0,0,-3,0,-1
1529305223702800,1,8,24,-3,3,1,2,0
1529305223702800,-4,-12,-23,-3,2,1,-2,-2
1529305223717770,-2,8,9,7,3,-4,-3,-1
1529305223717770,2,11,11,1,3,1,2,0
1529305223725745,-4,-8,-11,-2,-6,-4,-1,-1
1529305223725745,5,27,24,-5,-8,-7,-2,0
1529305223739700,0,-7,-3,0,10,7,2,2
1529305223739700,-4,-16,-20,-3,-15,-6,-7,-6
1529305223754668,-9,-18,-17,-5,-10,-7,-6,-8
1529305223754668,-4,-5,7,6,8,5,1,0
1529305223762909,0,-3,-7,4,9,6,0,-1
1529305223762909,-1,0,-4,-5,-9,-7,-5,-3
1529305223777863,5,-2,6,-1,-4,2,2,3
1529305223777863,-7,-5,-8,-2,4,1,-3,-6
1529305223785699,-3,-8,-7,1,-2,-2,-1,-1
1529305223785699,0,4,1,2,-1,2,2,0
1529305223800649,-1,8,0,-3,-5,-2,0,0
1529305223800649,6,17,13,5,0,-4,-3,0
1529305223815727,-1,-2,-1,-5,-6,-4,-6,-3
1529305223815727,0,-1,-3,-3,0,-1,0,1
1529305223822776,-1,-1,-7,-3,-7,-3,-2,-1
1529305223822776,2,-4,3,4,7,1,0,2
1529305223837289,2,2,-2,4,4,-1,-1,-3
1529305223837289,2,-3,-5,-5,-3,1,0,1
1529305223844864,-3,-5,-5,-2,-5,-4,-2,-1
1529305223844864,-3,-2,-5,-5,-5,-1,-3,-2
1529305223859860,-1,-6,2,0,-2,-2,-1,1
1529305223859860,-4,-3,-3,-3,-1,0,1,-1
1529305223875390,0,3,2,-3,2,1,0,1
1529305223875390,0,-7,-3,-2,-2,-2,0,-3
1529305223883214,-7,-3,2,0,-1,0,-2,7
1529305223883214,1,-3,-4,-1,-1,0,3,-5
1529305223898223,-10,-7,-7,-7,-7,-3,-2,0
1529305223898223,2,7,6,0,2,0,3,1
1529305223905045,1,3,-1,-2,-3,-1,-3,-3
1529305223905045,-2,-17,-16,0,1,-3,-7,-21
1529305223920279,0,7,13,-5,-7,-3,0,7
1529305223920279,1,4,-2,-4,-2,-1,-1,1
1529305223934972,2,4,-2,1,0,-1,-2,-7
1529305223934972,-5,-2,0,-3,-1,-1,-3,-4
1529305223943159,1,-2,0,6,7,-1,-1,0
1529305223943159,-8,1,0,-4,-4,0,-1,1
1529305223958192,-2,-3,-2,1,-1,-4,-3,-4
1529305223958192,-1,-4,2,1,1,0,1,4
1529305223965492,1,-1,-1,-3,-3,-3,2,-1
1529305223965492,-2,-3,-6,1,1,2,3,-1
1529305223980456,-3,-1,-2,2,2,1,-2,3
1529305223980456,-4,2,4,-4,-5,-3,-3,-9
1529305223995414,-13,-8,-5,2,-1,0,2,0
1529305223995414,-13,-4,-4,2,3,0,-6,11
1529305224002434,0,-4,-4,-1,-2,-5,0,-10
1529305224002434,-4,2,6,-2,-4,-2,2,3
1529305224017603,10,6,-2,0,0,2,-2,-1
1529305224017603,4,-2,3,-3,0,2,2,4
1529305224025604,-7,-6,-3,1,-1,1,-3,-4
1529305224025604,0,-3,-4,-3,-3,-3,-10,0
1529305224040561,10,3,1,-4,2,1,9,-1
1529305224040561,-7,3,-1,-1,-3,-1,-5,-16
1529305224055516,-4,-5,-8,2,2,1,-1,0
1529305224055516,7,1,2,0,-2,-1,1,1
1529305224062491,-3,1,0,8,18,7,2,-7
1529305224062491,-1,-6,-1,-3,-6,-1,10,8
1529305224085426,-5,-5,-6,-11,-12,-13,-18,-6
1529305224085426,4,-1,1,-6,-6,1,4,2
1529305224092155,-1,6,1,5,1,4,10,-1
1529305224092155,1,6,3,-8,-13,-8,-6,4
1529305224108283,-1,-9,2,16,31,14,2,1
1529305224108283,-1,0,-4,8,7,1,-6,-5
1529305224115381,-7,-11,-8,-2,7,1,-2,-2
1529305224115381,10,7,-1,-3,-3,-5,-4,7
1529305224122547,-18,-2,-6,-11,-15,-5,5,-12
1529305224122547,7,3,2,-2,-8,0,7,5
1529305224130759,-1,6,5,1,-6,-14,-20,-3
1529305224130759,-4,-5,-7,-4,4,-1,10,1
1529305224137523,2,1,-3,-12,-20,-27,-16,3
1529305224137523,-2,-1,-5,0,3,21,27,3
1529305224145032,0,0,-3,-2,2,5,-8,-2
1529305224145032,-2,0,1,6,6,7,4,-2
1529305224159770,4,2,5,6,24,16,5,0
1529305224159770,1,-3,-3,1,-6,-6,-13,-3
1529305224167976,-1,3,-4,-10,-9,-17,-22,-7
1529305224167976,-4,-2,-4,-9,-16,-9,-1,1
1529305224175708,1,-4,0,-1,-3,10,21,6
1529305224175708,-8,-9,-2,-6,3,-21,-16,-10
1529305224182953,-1,-6,0,-3,-5,16,20,-3
1529305224182953,-5,-3,0,0,8,0,-13,-5
1529305224197698,3,1,-2,-6,-5,0,-5,-6
1529305224197698,0,0,0,-3,-8,-7,-6,1
1529305224204632,2,4,1,-3,-12,-22,-12,2
1529305224204632,-6,-4,4,8,13,6,-5,-3
1529305224219590,0,-1,-6,-9,-11,3,0,-4
1529305224219590,4,2,-3,-19,-18,-8,1,2
1529305224235549,-1,-3,3,33,27,12,9,2
1529305224235549,-1,0,-4,-12,-6,6,9,1
1529305224242751,-2,1,2,5,6,2,-16,0
1529305224242751,2,5,3,-5,-21,-21,-6,1
1529305224250600,-2,-1,-2,-9,6,9,1,3
1529305224250600,-2,-4,1,2,-15,-6,9,1
1529305224265576,0,-1,-5,-16,-1,4,1,1
1529305224265576,-3,-4,-2,16,10,19,9,-1
1529305224272671,0,0,-4,7,35,24,1,0
1529305224272671,-2,-4,5,16,10,-7,-16,-5
1529305224280601,-2,0,-1,-12,-11,-35,-4,-2
1529305224280601,-2,0,-1,-23,-35,-10,-1,-1
1529305224287409,0,2,0,27,26,18,5,-1
1529305224287409,-3,-5,-12,-8,5,10,0,-2
1529305224295683,1,-1,1,0,1,-1,5,0
1529305224295683,-3,-4,1,0,-9,-17,-14,-4
1529305224302947,-3,-2,4,-12,-36,-12,1,-4
1529305224302947,4,4,7,18,52,38,9,4
1529305224317978,0,-1,-7,-13,-12,-11,-5,-3
1529305224317978,-4,-5,-9,-3,2,-5,-4,0
1529305224325836,-4,-4,-5,-13,-31,-18,3,-3
1529305224325836,1,4,2,3,-3,-13,-6,0
1529305224340069,0,2,8,13,9,8,-2,-2
1529305224340069,0,-3,1,0,16,12,0,0
1529305224347457,-1,-2,3,-13,-18,-6,4,-3
1529305224347457,-5,-4,-13,-1,-2,-9,-9,-7
1529305224355186,0,0,11,23,-2,3,-3,0
1529305224355186,3,2,-5,1,18,12,7,4
1529305224370229,-2,-2,-5,-12,-21,-16,-2,-1
1529305224370229,-3,-2,-9,-27,-21,-7,-7,-3
1529305224378247,-2,-5,2,-18,-2,8,5,0
1529305224378247,-6,-6,1,10,-4,-10,-9,-8
1529305224392879,-1,3,8,10,8,2,-2,1
1529305224392879,0,-7,-25,-34,-17,1,5,2
1529305224400433,0,5,0,14,-5,-1,0,-2
1529305224400433,2,2,2,3,3,-2,0,1
1529305224415317,1,3,-2,0,1,3,5,0
1529305224415317,-2,-1,-4,-2,9,5,8,1
1529305224430177,-2,0,1,4,1,-1,-4,-2
1529305224430177,1,6,5,-1,-7,-10,-7,-1
1529305224445139,-3,-5,-2,5,6,7,12,0
1529305224445139,-1,4,8,15,12,4,-1,-3
1529305224460386,-3,-4,-6,-15,-9,-7,-9,1
1529305224460386,-1,-1,-3,9,-2,3,2,-3
1529305224467634,-1,-4,10,6,-7,0,1,0
1529305224467634,-1,-3,-5,2,5,-3,-4,-2
1529305224482585,0,2,-9,-2,-3,-1,-2,-1
1529305224482585,-1,-5,-13,-5,-1,4,2,1
1529305224497550,-1,-3,-5,-2,6,0,-8,-4
1529305224497550,-1,-3,-9,-2,1,1,-1,-1
1529305224513011,-3,4,-4,-11,-4,-1,6,-2
1529305224513011,-2,-6,2,0,-7,-6,-7,-5
1529305224520315,3,-2,-2,-1,-4,0,3,2
1529305224520315,-4,1,3,0,6,2,-2,-4
1529305224535456,2,-1,-3,-4,-4,-8,-8,0
1529305224535456,0,4,3,-1,4,-1,-1,2
1529305224550369,-3,2,7,17,9,5,2,-2
1529305224550369,-6,-10,-9,-10,-5,7,2,-2
1529305224557438,-5,-4,-5,-6,-4,0,-1,-2
1529305224557438,3,1,3,4,1,1,0,1
1529305224572650,-4,1,-3,-3,-4,-8,-6,-1
1529305224572650,2,-6,-1,-1,-5,-2,1,3
1529305224579634,-3,-4,-5,8,11,-2,-13,-5
1529305224579634,-3,-2,4,0,-6,2,2,-3
1529305224595681,-1,3,2,3,-1,1,-7,-2
1529305224595681,-2,2,1,-4,-4,-2,8,1
1529305224609899,5,0,-4,-5,3,3,-1,4
1529305224609899,1,9,4,3,3,-4,-8,-2
1529305224625537,-1,-3,-4,-7,-2,-1,5,0
1529305224625537,5,13,3,-5,-3,-4,-7,-2
1529305224640538,-12,-23,-11,2,-2,2,1,-5
1529305224640538,-1,-4,-6,-3,-5,-2,-3,-2
1529305224647749,-1,-1,6,4,-2,-2,3,0
1529305224647749,1,2,-2,-4,1,1,-4,-2
1529305224662460,0,-1,-5,1,2,3,4,1
1529305224662460,-8,-7,-6,-3,3,0,-4,-3
1529305224677806,-1,2,-6,-4,-1,-2,-8,-1
1529305224677806,5,4,0,-6,-9,-3,6,2
1529305224692667,1,-10,-13,-5,-2,3,1,-1
1529305224692667,-16,-3,6,6,6,1,-3,-5
1529305224700734,1,3,-1,-7,-8,-6,0,0
1529305224700734,-6,-5,-5,-2,-3,-2,-4,-2
1529305224715719,1,9,-3,-4,-1,-4,0,-5
1529305224715719,-1,5,4,0,-1,1,-2,-1
1529305224729669,-2,-2,-1,-1,-4,-4,-1,-4
1529305224729669,-1,2,11,6,5,4,4,2
1529305224737594,-5,-8,2,0,-3,-2,0,0
1529305224737594,8,2,2,-1,-2,0,0,0
1529305224752565,5,10,5,-3,-6,-4,-4,-2
1529305224752565,9,4,-11,-11,-8,-5,-4,1
1529305224759535,12,2,2,-4,-6,-1,2,17
1529305224759535,-10,-8,-2,1,-1,-3,-4,-8
1529305224774548,2,8,-5,-11,-10,-3,1,2
1529305224774548,3,13,17,4,1,1,0,0
1529305224789509,-4,-6,-1,2,1,-2,-1,-3
1529305224789509,-4,3,4,-3,-3,-3,-5,-13
1529305224797488,-7,-5,5,1,2,3,0,4
1529305224797488,5,17,10,-7,-5,-4,-4,-1
1529305224812393,-9,-16,2,5,2,3,-1,-1
1529305224812393,5,11,1,3,3,3,2,-4
1529305224827353,7,-10,-11,-3,2,1,2,-2
1529305224827353,-13,-5,-9,-2,1,0,-3,6
1529305224842313,-18,-2,1,3,5,4,-1,-1
1529305224842313,9,-2,-9,-4,0,3,4,2
1529305224857273,-14,-1,-8,-5,-3,-2,-2,-7
1529305224857273,14,5,-1,-2,-2,-1,2,23
1529305224865252,-7,-7,-2,2,0,-5,-6,-13
1529305224865252,2,-19,-1,11,3,-2,-1,0
1529305224880212,4,-5,1,7,3,1,1,0
1529305224880212,-1,-4,-2,2,4,4,3,-2
1529305224895172,-4,-5,-4,-2,-2,-2,-2,-2
1529305224895172,-2,-8,-3,4,13,4,1,1
1529305224910132,13,12,-4,-8,-2,-2,-2,3
1529305224910132,-17,-1,12,6,5,2,0,-4
1529305224917113,-10,0,1,-3,-4,-2,2,6
1529305224917113,-5,-4,-1,-6,-10,-7,-8,-21
1529305224932073,7,-2,0,-1,1,2,5,27
1529305224932073,4,4,1,-6,-3,0,0,-2
1529305224940106,-4,2,-1,8,5,0,-2,-8
1529305224940106,-3,-7,-8,-7,-7,-3,-2,0
1529305224955068,-4,-1,-3,5,5,0,1,-1
1529305224955068,1,-4,1,-5,-11,-7,-9,-12
1529305224977961,7,1,-8,-1,5,6,7,0
1529305224977961,1,-2,-1,7,4,1,2,4
1529305224984934,6,7,0,1,-3,-1,0,-3
1529305224984934,1,-3,-2,2,-1,-2,0,7
1529305224999948,-15,-6,-7,4,23,3,-4,-5
1529305224999948,2,-2,-4,-1,-5,-1,-2,-4
1529305225007936,-2,0,1,-4,-4,-2,-5,3
1529305225007936,-2,11,3,-1,-11,-1,-2,1
1529305225022886,4,-6,3,-4,-11,-3,0,-2
1529305225022886,0,1,-8,-10,-4,1,3,3
1529305225037791,1,-9,-3,3,0,-2,1,-1
1529305225037791,-1,-4,0,8,14,3,3,2
1529305225052799,-2,1,2,-11,-27,-6,-2,-1
1529305225052799,6,8,6,3,9,4,3,4
1529305225059733,-5,-4,-13,-13,-6,-1,-5,-5
1529305225059733,-1,0,2,-3,-7,-5,-3,1
1529305225074741,-3,2,4,1,13,10,2,-4
1529305225074741,1,-4,-1,0,1,3,2,5
1529305225090694,-1,2,0,-7,-7,-2,-5,-3
1529305225090694,0,-4,1,-3,-9,-5,-3,0
1529305225097894,2,1,2,-1,0,0,1,-2
1529305225097894,-3,-4,-3,-4,-4,-5,-3,0
1529305225113149,-3,-4,-2,-11,-7,-4,-3,-5
1529305225113149,-2,-4,0,0,-9,-7,-3,0
1529305225120129,3,2,7,4,13,9,0,0
1529305225120129,1,-1,-3,1,7,3,2,1
1529305225135199,0,4,1,5,12,1,0,1
1529305225135199,-1,-1,0,-2,-1,-1,-2,-2
1529305225149888,-4,-4,1,2,7,4,2,-1
1529305225149888,-3,0,0,-9,-21,-9,-4,-2
1529305225157867,3,0,1,14,26,5,0,1
1529305225157867,-4,-4,0,-1,-1,0,-2,0
1529305225172827,3,1,-4,5,6,0,-5,-1
1529305225172827,-5,-15,-1,4,10,2,-1,-2
1529305225180512,-1,-1,-4,-14,-19,-6,0,-3
1529305225180512,-2,-3,-2,13,19,4,4,0
1529305225195499,0,1,1,-2,-23,-9,-3,-2
1529305225195499,3,5,-2,3,7,3,1,2
1529305225202278,-2,-2,-2,-2,-5,-4,-3,-1
1529305225202278,-2,-1,0,-5,-4,-1,-1,-2
1529305225218229,0,-1,-2,-7,-17,-5,-3,-2
1529305225218229,-1,1,-2,-2,-4,-3,-2,-2
1529305225233181,0,1,-3,-3,-1,-1,-3,-1
1529305225233181,-1,0,-1,-2,-4,-2,-1,-2
1529305225240392,-1,0,-1,2,2,-2,1,-2
1529305225240392,-2,-4,-3,-2,-2,-1,0,-1
1529305225255419,1,-4,0,-2,0,0,2,0
1529305225255419,-1,1,-4,2,4,1,-1,-1
1529305225263143,-1,-1,-1,-3,-5,-2,-1,-1
1529305225263143,-3,-2,1,-1,-3,-2,0,-1
1529305225278121,1,-1,-2,-1,-6,-1,-3,-2
1529305225278121,-2,0,-2,-5,-9,-4,-4,-1
1529305225292940,1,-1,-2,-1,3,2,-2,-2
1529305225292940,-4,-2,1,-2,-8,-4,-3,-3
1529305225300689,1,1,-1,3,1,0,-1,-1
1529305225300689,0,0,0,1,-2,-1,-1,-1
1529305225315701,1,0,-1,-6,-3,0,0,0
1529305225315701,1,0,0,1,1,1,3,1
1529305225322860,-2,-2,-2,-6,-10,-4,-2,-1
1529305225322860,1,0,0,-1,-3,-1,0,-1
1529305225337862,-1,-3,-2,-4,-1,-2,-2,0
1529305225337862,-1,-1,-4,-1,1,2,0,-2
1529305225352079,0,0,-3,0,0,0,1,-2
1529305225352079,2,-1,1,2,3,1,1,-2
1529305225360321,1,-2,0,0,0,0,0,1
1529305225360321,0,-1,0,-2,-1,-1,-3,1
1529305225375264,-3,-1,0,0,0,0,1,0
1529305225375264,-3,0,-1,1,1,0,-2,-2
1529305225383199,-1,-1,-1,-1,-2,-2,0,-2
1529305225383199,-2,-4,-1,-1,-1,0,0,-1
1529305225398205,0,0,-1,-4,-4,0,0,1
1529305225398205,0,0,0,0,1,0,-4,-3
1529305225413186,-2,-2,1,1,3,1,-4,-5
1529305225413186,-1,-3,-1,-1,0,0,0,-2
1529305225420114,-3,-2,0,-1,-2,0,0,-2
1529305225420114,-2,0,0,-1,-2,-4,-3,0
1529305225435473,5,2,-2,-1,-2,-3,-1,0
1529305225435473,1,0,2,-1,1,0,-4,-1
1529305225442844,0,0,-1,-1,-4,-3,-2,0
1529305225442844,-1,-1,-3,-1,0,1,1,1
1529305225457711,0,1,-1,-1,-1,-1,-2,-1
1529305225457711,-1,-1,1,0,2,0,0,0
1529305225472362,2,2,0,-8,-9,-3,4,0
1529305225472362,-3,0,-3,3,6,1,4,-1
1529305225480554,-3,-3,1,3,6,5,2,0
1529305225480554,-3,-3,0,-4,-5,-5,-5,-3
1529305225495746,-2,1,-1,2,0,-2,-1,1
1529305225495746,4,0,-1,-8,-9,-3,-1,2
1529305225502914,0,-1,-2,-3,-1,-3,-1,-2
1529305225502914,0,2,0,0,0,0,2,0
1529305225517879,-3,-5,-1,0,-3,-1,-1,-1
1529305225517879,2,-3,-3,2,8,3,0,1
1529305225533151,2,1,-1,0,5,3,0,0
1529305225533151,-1,2,1,2,4,0,-1,0
1529305225540856,-2,-3,-3,-4,-6,-4,-4,-3
1529305225540856,0,1,0,-2,-5,-3,0,1
1529305225554773,-2,-3,-1,3,2,-3,-3,0
1529305225554773,-2,-1,-4,-3,-1,0,-2,-2
1529305225563193,-3,1,-2,2,2,-3,-3,-2
1529305225563193,-2,-3,-1,-1,-4,-2,0,-3
1529305225577022,0,0,-2,-6,-1,-1,-2,1
1529305225577022,-2,-2,-4,0,2,-1,-2,-2
1529305225592978,-1,-1,1,2,6,0,0,-1
1529305225592978,-1,-1,0,4,9,4,2,0
1529305225600260,-4,-4,-2,-1,-1,-1,1,-1
1529305225600260,-2,0,-3,-5,-5,-1,-2,-3
1529305225615231,-1,4,-2,-4,-2,-1,0,-2
1529305225615231,-3,-1,-1,0,-4,-3,-3,-2
1529305225623318,3,2,-1,0,-3,-1,1,0
1529305225623318,-1,1,-1,-1,-2,-1,0,0
1529305225637111,-2,0,-2,-2,0,0,0,-3
1529305225637111,-2,0,-1,-2,-2,-1,-2,-1
1529305225652423,0,-2,-2,-4,-4,-2,-2,-3
1529305225652423,1,1,0,6,9,4,0,1
1529305225660414,1,0,-1,-1,0,-2,-2,0
1529305225660414,-4,-4,0,-1,-2,-2,-1,-4
1529305225675690,-3,-4,0,-2,-4,-1,0,-2
1529305225675690,-1,-1,1,-1,-4,-2,2,1
1529305225682353,0,-1,-2,3,2,1,3,-2
1529305225682353,-1,-1,-1,0,-4,-1,1,-1
1529305225697549,2,4,1,1,-2,-2,-2,-1
1529305225697549,0,-1,-3,2,2,0,0,0
1529305225712519,-1,-3,-4,0,-8,-1,-3,-4
1529305225712519,-1,-2,1,9,4,2,0,-2
1529305225720271,-6,-3,0,3,0,-2,-4,-2
1529305225720271,4,3,-1,0,-1,-1,0,4
1529305225735875,3,-1,-3,-1,-3,-3,-1,-1
1529305225735875,0,-1,-2,-6,-6,-3,0,1
1529305225743069,-1,-5,-2,0,9,3,1,-1
1529305225743069,-2,-3,0,-1,-3,-1,-1,-3
1529305225758023,3,2,-1,-4,-6,-1,-2,0
1529305225758023,-2,-2,-2,-2,-3,-1,-3,-2
1529305225772739,1,2,-2,-3,-4,0,1,0
1529305225772739,-5,-3,-3,-4,-7,-4,-1,-2
1529305225779709,-3,-4,-6,-4,-6,-4,-2,-1
1529305225779709,2,-1,-2,-4,3,-1,-1,-1
1529305225795388,-3,-3,-3,-2,-2,-2,-1,-1
1529305225795388,-4,-2,-1,-4,0,-3,-3,-2
1529305225803153,-1,-1,-2,-12,-13,-6,-2,-2
1529305225803153,0,1,0,0,4,2,-1,1
1529305225818199,-2,-3,-1,4,5,1,0,0
1529305225818199,-4,-1,-2,-8,-9,-3,-1,-1
1529305225833348,-3,-2,-1,-2,-1,0,-2,-2
