timestamp,emg1,emg2,emg3,emg4,emg5,emg6,emg7,emg8
1528182783664302,-1,-2,-2,-6,-2,0,-1,0
1528182783664302,-7,0,0,3,-2,-1,-1,-1
1528182783665299,-5,-3,0,-1,-3,-3,-2,-2
1528182783665299,-1,-1,-26,-14,-5,-3,-3,-2
1528182783666297,3,0,21,5,4,0,-1,0
1528182783666297,4,3,1,7,2,0,-2,-1
1528182783668291,-3,-6,14,4,-2,-3,0,-3
1528182783668291,0,0,-16,-13,-1,1,3,0
1528182783676270,-1,3,-17,-16,-6,-2,-1,0
1528182783676270,0,1,31,-2,-3,-4,-2,-1
1528182783685245,-1,-2,-10,0,-1,0,-3,-3
1528182783685245,-1,0,18,14,4,1,0,0
1528182783702200,-1,-3,-20,1,1,-1,-2,-1
1528182783702200,-4,0,36,3,-3,-3,-2,-1
1528182783706189,-4,-5,-66,-12,-2,0,-1,-2
1528182783706189,-4,-2,14,-1,-3,-4,-1,-1
1528182783717168,-3,3,-6,5,2,-1,-1,-2
1528182783717168,1,-2,-21,2,1,-2,-3,-2
1528182783729128,-2,0,9,-4,-1,0,0,1
1528182783729128,1,0,-3,-11,-8,0,-1,1
1528182783745085,-2,-3,22,9,0,-1,0,-1
1528182783745085,-7,-2,-16,-1,-1,-1,0,-1
1528182783752068,2,5,44,2,-3,-3,0,-1
1528182783752068,3,-5,-59,2,2,-1,-2,-3
1528182783791961,-1,-2,0,3,2,-1,0,1
1528182783791961,1,1,24,15,2,1,-1,0
1528182783792960,1,-1,4,-18,-5,-3,-4,-3
1528182783792960,0,1,6,-8,-6,-7,1,-3
1528182783796948,-8,1,-42,2,4,2,10,1
1528182783796948,-5,-3,-2,1,1,2,-5,-6
1528182783797945,-1,2,11,-1,-1,0,1,-1
1528182783797945,2,0,-4,8,-1,0,-4,0
1528182783802932,-3,-4,4,-13,-4,-5,-10,-3
1528182783802932,2,1,12,-8,-3,-3,2,0
1528182783810910,-1,-1,-23,8,0,-5,1,0
1528182783810910,-5,-1,1,2,5,4,3,1
1528182783819886,2,1,11,4,-1,2,-20,-4
1528182783819886,1,-3,-12,-2,-2,-1,2,3
1528182783833848,-2,-3,4,9,2,0,-3,-2
1528182783833848,0,-2,-10,-2,-10,-4,3,0
1528182783840830,5,0,30,-14,2,-3,3,0
1528182783840830,-8,-2,-21,-16,2,4,0,0
1528182783864766,-2,-4,-44,7,-1,-1,-3,-2
1528182783864766,1,1,31,17,-2,-5,6,-1
1528182783865764,1,-4,-2,-1,-1,3,0,-1
1528182783865764,2,1,0,-5,2,5,-1,0
1528182783877736,1,-1,-2,-4,-3,-5,-1,-1
1528182783877736,0,-3,1,0,7,1,-7,-2
1528182783886707,-7,2,18,3,-11,-10,1,-3
1528182783886707,11,-4,-41,-10,1,6,0,-3
1528182783901668,-3,1,36,11,4,4,1,0
1528182783901668,2,0,-4,-13,-1,-2,3,0
1528182783903664,-6,0,19,0,-4,-3,4,1
1528182783903664,-3,-2,-5,2,-10,-5,-1,-1
1528182783924605,2,-2,18,0,15,2,0,-3
1528182783924605,-2,-4,-5,-7,-6,-3,-8,-2
1528182783926601,2,1,17,-5,4,7,2,0
1528182783926601,-1,0,13,7,-4,-2,2,-1
1528182783938568,0,0,11,-9,-15,-7,-2,-2
1528182783938568,-2,-1,-17,-4,7,-14,-1,-1
1528182783947545,3,-1,-10,9,17,31,4,-1
1528182783947545,1,0,2,-3,-2,2,-1,0
1528182783961508,-7,2,3,0,-6,-5,-11,0
1528182783961508,-1,-4,1,-2,0,0,11,-1
1528182783963502,2,-2,-14,-5,-11,-13,0,-1
1528182783963502,-1,1,8,23,3,-8,0,-2
1528182783984446,4,2,-20,-21,0,4,1,1
1528182783984446,-4,-4,-3,-3,1,6,-7,-1
1528182783986441,1,-3,-12,-10,-1,-5,-2,-1
1528182783986441,-3,1,6,2,8,12,0,-1
1528182783998436,1,-5,11,6,-11,-9,-1,-1
1528182783998436,-1,0,10,1,-4,1,-3,0
1528182784007406,-1,-3,-23,8,2,-2,4,1
1528182784007406,-9,-1,8,-4,-9,-9,-3,-2
1528182784022346,19,-2,-22,-12,3,3,0,-5
1528182784022346,1,-1,-26,-11,7,-12,-4,-1
1528182784023344,-1,-2,10,4,-8,8,-9,-1
1528182784023344,-1,-1,11,2,-7,5,8,-1
1528182784044288,-5,-4,-24,3,17,4,-1,0
1528182784044288,-2,0,-1,8,-8,0,0,0
1528182784046282,-1,0,15,-2,15,-6,-8,-4
1528182784046282,1,-1,-49,0,-8,-6,-5,0
1528182784066229,-6,-2,-2,-16,-6,0,2,0
1528182784066229,1,1,9,11,-9,-1,-3,-2
1528182784067226,-3,1,15,3,-20,-24,-4,-3
1528182784067226,0,-3,-29,-32,21,28,1,-2
1528182784081190,-2,-2,-3,5,1,-3,4,0
1528182784081190,-1,3,-6,-3,0,-2,-6,-1
1528182784082204,1,0,15,13,-5,-2,4,1
1528182784082204,-1,-6,-2,23,-7,-14,-2,-1
1528182784104128,-3,1,20,-41,3,1,-3,-1
1528182784104128,1,-4,-30,-2,-1,8,0,-1
1528182784104128,0,5,25,-12,-3,0,1,-1
1528182784104128,-1,0,5,-6,-5,-12,-7,0
1528182784126068,-5,-3,-10,41,1,4,2,-1
1528182784126068,2,3,29,5,-1,3,-1,-1
1528182784127070,2,-3,7,-4,-5,-1,1,0
1528182784127070,0,-5,-18,-15,1,-4,-3,0
1528182784141029,-8,-1,-22,3,-10,-6,-2,-3
1528182784141029,-12,-5,1,-2,6,2,0,-3
1528182784142027,-2,-4,-21,18,3,0,-13,-4
1528182784142027,-1,2,32,-34,-9,-11,9,-1
1528182784163968,3,0,-12,16,1,9,5,4
1528182784163968,-2,2,0,-20,-6,-2,-7,0
1528182784164965,-1,2,-2,-22,-2,1,-6,0
1528182784164965,0,-3,13,14,3,-14,-12,-3
1528182784185917,-1,2,17,11,1,8,11,1
1528182784185917,-1,-7,-48,9,-2,11,10,-2
1528182784186905,-1,-1,5,-7,-1,2,2,2
1528182784186905,0,2,3,7,0,-3,-3,-2
1528182784200869,-1,-2,-28,-9,-3,-7,-7,-2
1528182784200869,4,2,-2,-1,-9,-5,-4,-2
1528182784201866,0,-1,1,18,11,1,4,-3
1528182784201866,-4,-6,-13,9,3,1,1,-1
1528182784233781,-1,3,59,-26,-12,-4,-2,-2
1528182784233781,1,-5,-62,-43,-4,0,-1,-1
1528182784234791,-6,-1,14,22,-3,-5,-1,-1
1528182784234791,0,2,9,-5,4,2,1,0
1528182784245748,0,-4,-24,8,-2,-3,-16,0
1528182784245748,-7,0,47,-14,-5,-6,2,-3
1528182784253728,2,0,-1,1,2,9,19,1
1528182784253728,0,0,-9,11,4,3,-1,-1
1528182784260710,4,0,18,1,1,-6,-8,0
1528182784260710,-3,1,14,10,-4,-9,-35,-1
1528182784268690,-1,-2,-38,-2,1,2,11,-3
1528182784268690,-2,-4,9,-20,-5,-5,7,-1
1528182784283648,-7,-2,20,-3,-2,5,0,0
1528182784283648,4,1,12,18,15,9,26,-3
1528182784284644,-4,-5,-22,10,-4,-7,-9,-2
1528182784284644,1,5,17,-9,-6,-10,-27,-1
1528182784306611,0,-1,-1,-10,-3,1,16,-4
1528182784306611,-6,-6,-60,15,2,8,12,2
1528182784306611,2,-2,-2,-13,-4,4,2,-1
1528182784306611,-3,-3,21,39,-1,-8,-3,-5
1528182784321623,-3,2,-4,-27,-9,-11,-15,-4
1528182784321623,2,0,34,-1,-1,-2,-7,-3
1528182784321623,2,-2,-34,-20,4,0,2,1
1528182784321623,0,-4,-55,-29,-16,-2,-6,-2
1528182784368609,1,4,76,46,15,4,3,-2
1528182784368609,-1,-7,-24,3,-3,0,3,1
1528182784369442,-1,-2,-3,-12,-3,-4,-1,0
1528182784369442,-5,-3,-11,21,20,7,3,-3
1528182784376561,4,5,19,-29,-7,-2,-2,4
1528182784376561,-1,-3,25,7,3,-1,3,0
1528182784376561,-2,0,23,7,3,2,1,1
1528182784376561,2,6,16,-15,-7,-3,-40,0
1528182784381549,-4,-7,-59,-34,-9,2,38,-2
1528182784381549,1,-1,21,13,-1,-23,-53,-4
1528182784382408,-4,1,7,21,-4,-3,22,-5
1528182784382408,2,-2,-25,-3,10,42,37,11
1528182784405346,-4,-6,4,3,1,-14,-19,-3
1528182784405346,2,2,-2,4,-1,1,5,0
1528182784406393,-1,2,19,-18,-12,-14,-26,-4
1528182784406393,0,4,24,-32,-8,-6,2,-2
1528182784426449,-4,-6,-77,5,3,-2,-3,-3
1528182784426449,-3,-4,-26,4,-3,-8,-2,-3
1528182784427288,1,0,15,27,6,-1,-6,0
1528182784427288,2,4,16,26,1,1,8,0
1528182784448482,2,-1,40,4,-2,10,2,2
1528182784448482,2,8,22,1,0,-3,0,-1
1528182784449463,-8,-13,-31,-10,6,21,8,0
1528182784449463,-7,-5,10,-16,-6,-1,11,-7
1528182784472419,23,10,-9,58,15,6,-18,34
1528182784472419,-43,-29,-2,-46,-4,13,27,-24
1528182784472419,3,32,-14,-21,-5,1,8,23
1528182784472419,-22,-7,8,-12,-3,-12,3,0
1528182784493454,-4,-3,-12,5,-8,-10,-14,-11
1528182784493454,0,6,15,17,4,6,1,2
1528182784510270,25,3,0,-16,-4,-25,-43,-2
1528182784510270,-19,-6,22,14,1,4,47,-1
1528182784512257,40,6,-20,-5,-5,-10,-40,2
1528182784512257,13,1,6,-17,-5,2,29,3
1528182784512257,-8,-4,2,8,1,2,6,-11
1528182784512257,11,7,21,8,-2,-12,-30,0
1528182784524337,-23,-16,-2,19,3,6,14,-14
1528182784524337,7,7,77,-27,-4,6,11,3
1528182784524337,1,2,11,-1,-5,-4,-6,-1
1528182784524337,-4,-10,-40,-4,3,-4,-5,-2
1528182784546601,-18,-13,3,-5,0,4,5,-8
1528182784546601,6,4,-43,11,-2,-7,-20,2
1528182784547461,-10,-6,13,-15,-9,-1,8,0
1528182784547461,16,9,18,-4,-4,-3,-4,1
1528182784561424,-8,-2,-86,-4,-8,-2,2,-5
1528182784561424,6,5,32,24,12,3,-3,5
1528182784562425,-5,-8,-7,-28,-12,-2,0,-7
1528182784562425,3,0,-11,12,17,5,-6,-1
1528182784584410,-6,2,70,-1,-9,2,7,-3
1528182784584410,-3,-4,-70,-10,14,0,-6,-1
1528182784584410,-1,2,62,24,3,-1,-14,-2
1528182784584410,0,-10,-94,-32,-13,-10,3,-5
1528182784606438,-7,3,92,-3,-6,5,12,0
1528182784606438,4,2,-16,20,1,-2,-17,3
1528182784607302,-4,-3,50,3,-1,0,1,-6
1528182784607302,-1,-4,-34,-11,-5,-5,-3,1
1528182784621506,-5,-5,22,-4,2,-12,-14,-5
1528182784621506,4,-1,-5,-5,-7,8,25,2
1528182784622535,-11,-10,-47,32,5,-8,-31,-4
1528182784622535,-2,4,39,-9,-7,-7,5,-3
1528182784643477,-2,3,-21,-35,-5,10,21,4
1528182784643477,-2,-5,-17,1,-1,-6,-11,-3
1528182784644475,1,4,7,-19,-5,0,0,1
1528182784644475,2,2,40,38,1,-1,-9,-3
1528182784666432,-2,0,-15,18,2,-8,-7,-4
1528182784666432,3,3,71,-42,-6,1,-2,2
1528182784667412,-3,-6,-24,18,-3,3,13,-1
1528182784667412,0,-2,-73,-22,-3,1,-7,1
1528182784681511,-3,-4,25,21,3,0,0,-3
1528182784681511,-1,4,-14,3,6,4,1,1
1528182784682372,-3,-3,-21,-8,-7,-1,5,-3
1528182784682372,0,-2,-7,-25,-4,-9,-11,1
1528182784703578,-6,1,-31,-31,-5,-1,0,-5
1528182784703578,3,0,-12,17,-3,-2,-2,2
1528182784704595,0,-6,-3,-2,1,0,4,0
1528182784704595,1,1,24,15,-5,3,-1,-1
1528182784726892,-2,-2,-46,10,4,-6,-3,-3
1528182784726892,-3,-1,15,-3,-8,-15,-37,-5
1528182784726892,3,-2,-58,4,13,17,19,1
1528182784726892,-5,-3,99,0,-2,6,15,-1
1528182784741078,3,6,31,-20,1,0,12,2
1528182784741078,-5,-4,-6,36,-2,-5,-41,-5
1528182784748057,3,4,3,-13,6,-1,9,1
1528182784748057,-2,-2,-40,-1,-5,-2,-6,-2
1528182784763017,0,4,50,-8,1,-1,2,-1
1528182784763017,0,-4,-49,1,-8,1,8,0
1528182784771904,0,4,-4,14,8,-12,-17,-2
1528182784771904,-1,0,68,-3,-1,6,3,0
1528182784786001,-2,0,-36,-5,0,0,2,1
1528182784786001,-1,-2,-6,3,-6,-8,13,1
1528182784787007,-2,-6,-8,-23,-1,2,-12,-3
1528182784787007,1,2,18,16,5,-1,10,-3
1528182784808938,1,-4,-17,5,-7,-4,-14,-1
1528182784808938,-7,1,42,-23,0,3,35,-9
1528182784809936,-6,4,2,8,2,1,0,7
1528182784809936,-1,-3,-24,2,0,1,-8,-2
1528182784823421,0,0,-4,9,4,1,-20,2
1528182784823421,3,1,-8,-3,-1,6,28,-10
1528182784831394,-4,-5,-3,-18,-8,-3,-6,2
1528182784831394,13,3,-20,-6,-1,-4,-1,9
1528182784854179,-4,3,-13,10,0,-3,-7,9
1528182784854179,-9,3,13,-28,5,2,-11,-27
1528182784855172,-20,-26,-9,26,-7,3,12,0
1528182784855172,23,1,1,1,-4,-1,-1,-2
1528182784869133,-14,-13,-6,24,8,9,5,4
1528182784869133,15,29,16,-20,-3,-17,-15,18
1528182784869133,-2,-3,0,-18,3,8,13,-10
1528182784869133,-1,3,-3,3,-3,3,-2,6
1528182784892413,-4,-7,-14,2,-2,-5,-31,-4
1528182784892413,-1,0,-2,17,-1,-1,18,-10
1528182784892413,22,7,21,-14,-4,-3,-9,11
1528182784892413,-8,3,-24,1,2,-8,-9,5
1528182784906558,-6,-4,13,-9,-1,3,8,-20
1528182784906558,-2,-9,14,32,3,9,-6,8
1528182784907393,-1,2,-31,-26,-9,-10,-6,-5
1528182784907393,-17,-8,29,-11,7,7,-2,-15
1528182784929405,8,3,16,7,-5,-4,-5,8
1528182784929405,-1,-2,-20,-12,-9,-4,-3,-1
1528182784929405,1,1,-4,1,-1,-5,6,1
1528182784929405,4,3,-13,23,-1,-16,-3,-4
1528182784952272,-4,-4,10,-26,0,8,15,-3
1528182784952272,6,-1,45,8,0,5,9,7
1528182784953303,4,1,6,3,0,0,-8,-3
1528182784953303,-3,-3,-34,6,-4,-8,-17,-1
1528182784966251,-6,0,-45,-16,-4,-9,5,-5
1528182784966251,-9,-16,3,-13,2,4,-5,5
1528182784967245,-1,1,0,5,-4,-2,-2,-8
1528182784967245,-8,-2,1,-6,4,3,4,1
1528182784989226,7,4,30,12,5,0,4,0
1528182784989226,0,3,-13,-10,-7,-3,-2,3
1528182784989226,-4,1,4,-13,-1,-2,-2,-5
1528182784989226,-1,-5,-34,-11,-4,3,2,0
1528182785012168,3,0,-1,25,9,3,8,1
1528182785012168,-5,-7,3,12,5,0,-10,-1
1528182785013165,-2,-3,10,-15,-4,-6,-1,-6
1528182785013165,-4,-1,-19,13,0,-1,-1,-1
1528182785026130,2,1,71,-11,3,0,3,2
1528182785026130,-1,-6,-28,-45,-13,-3,-5,-1
1528182785027082,0,0,-17,19,-19,-1,-3,1
1528182785027082,1,1,36,4,21,6,-3,-1
1528182785049014,-1,4,7,14,-6,-14,-2,-4
1528182785049014,0,-2,-34,-3,5,22,26,5
1528182785050011,2,1,7,-32,-6,-5,-29,2
1528182785050011,-9,-5,9,42,-4,0,11,-5
1528182785071953,6,5,-23,-4,-3,-4,5,0
1528182785071953,-2,-4,25,-9,5,-8,-15,-1
1528182785072951,-2,-3,-26,22,6,4,3,-1
1528182785072951,0,2,1,-57,-10,-1,-10,-1
1528182785085916,1,-2,-22,-19,-7,-8,-5,-1
1528182785085916,0,0,-14,-17,-10,-7,-2,0
1528182785086913,-2,1,18,16,5,-1,5,-2
1528182785086913,0,0,5,17,5,-2,-5,-2
1528182785108855,-4,-5,-42,-7,3,8,9,-1
1528182785108855,-3,7,37,59,1,-7,-8,-3
1528182785109852,-1,-10,-11,-38,-14,-1,2,1
1528182785109852,-3,2,23,14,22,6,6,-3
1528182785131793,-2,-6,-56,-15,-4,-2,-3,-2
1528182785131793,-1,-3,-23,10,1,-2,-8,-1
1528182785132805,-3,3,4,4,8,-1,2,-4
1528182785132805,3,-4,-12,2,-19,-6,0,1
1528182785146753,0,-3,-37,-38,0,2,-2,0
1528182785146753,0,-1,28,19,3,-7,-25,-2
1528182785146753,2,-1,-24,3,-1,6,42,-2
1528182785146753,-9,-4,-33,-21,-11,-3,-11,-1
1528182785168706,0,4,44,58,2,-1,-13,1
1528182785168706,4,2,-9,-41,-6,4,9,-1
1528182785169692,-2,-5,-8,4,8,8,18,3
1528182785169692,-2,2,-6,-16,-6,-5,-17,-11
1528182785199612,4,-1,3,0,4,14,44,13
1528182785199612,0,-1,-12,-1,-2,-7,-11,-1
1528182785200609,0,1,29,17,3,-7,-11,-1
1528182785200609,2,-3,23,-8,0,0,-4,0
1528182785206594,-2,2,25,32,-5,-5,-16,-7
1528182785206594,1,-3,-27,-35,3,4,13,2
1528182785207591,-6,0,-7,-7,1,-1,-8,1
1528182785207591,20,-1,12,-3,-9,-8,-1,-1
1528182785238526,-3,-1,5,-4,0,-4,-3,-6
1528182785238526,-2,-2,-5,27,6,1,-4,4
1528182785239505,-1,-1,12,-6,-4,-2,2,-10
1528182785239505,-3,0,3,3,4,5,4,5
1528182785252470,-4,0,-3,4,-8,-12,-3,8
1528182785252470,-9,-3,-7,-18,-6,-7,-8,-37
1528182785252470,-6,-15,19,-8,2,9,-3,9
1528182785252470,-4,-12,-5,-9,-8,-1,9,-3
1528182785267432,0,10,-21,-17,2,2,-8,-3
1528182785267432,26,-1,13,7,-5,-12,-7,29
1528182785267432,7,10,-6,8,-2,-15,-48,-24
1528182785267432,-40,-3,-2,16,6,14,51,-17
1528182785288749,-18,-13,5,-22,-2,3,-2,0
1528182785288749,-12,3,44,14,0,-1,2,3
1528182785289580,8,-2,-87,4,5,2,2,19
1528182785289580,28,12,18,0,1,-7,-30,5
1528182785312575,0,6,20,-6,-2,0,-3,-1
1528182785312575,-2,-2,-2,17,-3,6,24,-19
1528182785312575,-7,7,6,3,-5,4,9,19
1528182785312575,-24,-7,12,3,7,2,-10,-22
1528182785326616,8,-1,14,3,-13,-12,-3,6
1528182785326616,-9,-15,-43,-18,0,4,-8,4
1528182785327483,7,9,32,3,-4,-4,3,-5
1528182785327483,3,3,19,-1,-7,-2,-3,5
1528182785349435,8,0,10,1,2,4,10,-6
1528182785349435,0,5,0,12,2,4,4,6
1528182785349435,-5,1,63,13,2,-8,-31,-11
1528182785349435,8,3,-13,-21,-4,0,6,10
1528182785372514,-1,-1,10,-10,1,5,-1,-3
1528182785372514,-4,2,-30,-1,-6,-3,-1,-1
1528182785373407,-3,-7,-24,2,-1,1,11,-7
1528182785373407,1,-2,-12,6,0,-4,-8,12
1528182785386500,1,2,21,8,2,-4,-13,-1
1528182785386500,-7,-4,-42,-7,-2,-3,4,-3
1528182785387491,3,-8,-8,-26,-4,-1,10,1
1528182785387491,-6,3,23,4,0,4,-6,0
1528182785408600,17,-6,-42,-5,-1,-1,16,-15
1528182785408600,-1,-2,29,10,4,4,-6,7
1528182785409443,0,0,7,2,-2,-6,-4,4
1528182785409443,2,2,-14,17,0,-7,0,3
1528182785432536,-5,-7,-31,-14,-3,4,-12,3
1528182785432536,-4,-4,12,-9,-11,-6,6,-3
1528182785432536,-2,0,-3,-9,9,2,4,-4
1528182785432536,0,-2,3,-3,-2,-3,-2,-1
1528182785446691,-6,-2,2,6,-2,-3,-8,-2
1528182785446691,6,-4,-9,4,-8,-6,-4,12
1528182785447686,-9,0,-12,2,0,1,2,-25
1528182785447686,3,-3,-22,0,-2,-2,1,2
1528182785477605,-3,1,2,-7,0,-4,-5,-3
1528182785477605,5,-1,-16,-15,0,-1,0,5
1528182785477605,-9,1,58,18,-1,1,3,8
1528182785477605,-6,-8,-74,3,0,-1,-5,-6
1528182785492566,0,1,3,-24,0,3,4,2
1528182785492566,6,6,27,-3,3,1,-3,-4
1528182785493455,-15,0,-29,4,2,-1,-2,0
1528182785493455,3,-8,1,-6,-3,-2,0,-2
1528182785514529,-2,0,-4,6,-2,-2,1,3
1528182785514529,0,5,28,9,4,1,-4,-5
1528182785515365,3,-2,-14,-4,-4,-3,-3,-1
1528182785515365,-1,4,13,1,-2,0,3,2
1528182785529412,-1,-4,-18,-3,1,0,1,0
1528182785529412,-2,-4,-10,2,2,0,-4,-6
1528182785529412,4,0,4,5,-1,-1,0,2
1528182785529412,-2,-1,3,-6,-3,-2,-3,-1
1528182785552265,0,-2,2,-3,-3,-2,-3,-1
1528182785552265,-6,-1,2,-2,0,1,-2,-3
1528182785552265,3,-2,0,-5,1,-1,2,2
1528182785552265,1,0,15,-5,-10,-1,0,0
1528182785565575,-6,-1,28,9,-1,-2,-4,-9
1528182785565575,-3,-3,-29,-3,1,0,-3,3
1528182785574442,6,1,-5,1,1,1,0,12
1528182785574442,0,-2,-18,-8,-4,-1,-1,-3
1528182785588512,-1,-1,13,2,1,1,0,5
1528182785588512,-1,-2,7,-2,-2,-4,-2,-4
1528182785589368,1,0,5,0,0,-2,-2,-1
1528182785589368,-1,-2,-12,4,3,-1,-1,2
1528182785612504,12,2,-1,-2,-2,0,0,-2
1528182785612504,-5,-1,0,1,1,-3,-3,5
1528182785613366,6,-2,6,-6,0,1,2,-3
1528182785613366,-8,-1,27,6,2,-1,0,-4
1528182785626289,-21,-1,-13,-1,-1,0,-2,-5
1528182785626289,14,0,0,-2,-2,-2,-1,3
1528182785641264,1,0,18,-1,-2,-1,-1,-2
1528182785641264,1,1,16,-1,-1,-1,0,-2
1528182785649435,-3,-6,-32,1,-3,-2,-3,-3
1528182785649435,-7,0,23,7,6,1,0,-6
1528182785649435,-3,-5,-9,-3,-3,-1,-2,-5
1528182785649435,1,1,5,-4,0,1,1,3
1528182785672496,2,-1,2,-5,-2,-2,-2,0
1528182785672496,-2,-1,19,0,-2,0,1,-6
1528182785673415,0,-3,-43,-3,-1,-2,-1,-8
1528182785673415,2,0,1,-4,-3,-2,-3,9
1528182785685321,0,-1,7,1,-1,-1,0,-2
1528182785685321,-4,-3,-14,-1,-1,-1,1,-2
1528182785694423,-2,-1,2,-2,-2,-1,-2,-2
1528182785694423,-2,-2,-2,-2,-1,0,2,-4
1528182785708407,0,-3,-3,-1,0,-4,-15,-10
1528182785708407,1,-1,2,0,-6,-1,13,0
1528182785717417,-2,1,-4,2,1,1,2,0
1528182785717417,0,-1,2,-4,0,1,1,-3
1528182785731753,1,1,0,5,-2,-1,0,6
1528182785731753,10,0,-9,-8,-1,-2,-7,4
1528182785733599,-14,-1,-6,-2,-3,1,-5,-9
1528182785733599,-11,-1,3,4,2,-2,7,0
1528182785746249,0,2,3,2,1,1,-1,-7
1528182785746249,-6,-6,-34,-9,-2,-1,3,9
1528182785754386,10,0,-2,5,0,-1,0,5
1528182785754386,-5,-2,-1,-7,-3,-3,-3,-4
1528182785768349,-3,1,0,-6,0,-1,1,1
1528182785768349,-2,-1,18,10,3,0,-2,-9
1528182785777170,-7,-2,9,0,-3,1,0,1
1528182785777170,4,-1,-5,1,-2,-1,-2,1
1528182785792265,0,-3,-9,-3,-2,-3,3,-2
1528182785792265,-3,4,8,3,-2,-2,-5,-4
1528182785794197,-1,-2,8,-1,-1,-2,-1,-4
1528182785794197,3,2,-2,0,-6,-1,-2,2
1528182785806230,2,-5,-17,-6,-1,1,2,8
1528182785806230,-5,-1,-8,-5,1,2,-1,-5
1528182785815214,-1,-2,10,6,-1,-2,-3,3
1528182785815214,3,0,12,4,2,1,-1,-1
1528182785828168,-2,0,-2,-6,-7,-2,0,0
1528182785828168,-5,-3,1,-4,0,-1,4,-6
1528182785837151,1,-2,-12,-6,-1,-3,0,4
1528182785837151,2,-2,5,-5,-1,0,-2,-2
1528182785852171,4,2,-9,3,1,-2,-6,-1
1528182785852171,-4,-1,3,6,-1,-2,-4,14
1528182785858259,-19,-7,24,4,-3,0,2,-17
1528182785858259,-1,-2,-41,-20,-2,-2,-5,-4
1528182785874053,-5,3,9,0,-2,-4,-3,-3
1528182785874053,7,3,0,-3,-1,0,-1,2
1528182785876055,5,-3,-8,1,-2,-3,-3,6
1528182785876055,-5,-2,11,10,2,-3,-5,-9
1528182785897135,0,-1,9,0,0,5,10,3
1528182785897135,-7,-1,-10,-3,-2,-2,1,1
1528182785898987,1,1,-4,-1,-1,0,1,-1
1528182785898987,1,-2,-6,-2,-1,-3,-16,-14
1528182785911953,0,-1,-1,2,3,-2,10,0
1528182785911953,1,2,11,3,0,1,4,-1
1528182785913947,3,-3,-62,-18,-3,-2,-3,1
1528182785913947,1,1,23,6,0,-4,-3,-2
1528182785935047,-2,-4,14,5,1,-1,-4,-3
1528182785935047,0,-2,-6,-7,-2,0,-3,-5
1528182785935889,3,0,-4,0,0,-3,-2,0
1528182785935889,-1,-4,6,1,-1,4,5,6
1528182785949016,6,3,-2,-3,0,0,-2,0
1528182785949016,-8,-7,15,3,-2,-3,-3,-6
1528182785962951,1,1,3,-6,-2,-2,-1,2
1528182785962951,-2,-1,-13,0,-1,0,2,2
1528182785971992,-3,-2,11,0,-1,-1,-1,0
1528182785971992,3,0,-11,-3,-2,-2,-4,-4
1528182785973984,0,0,8,-1,0,0,-1,0
1528182785973984,0,0,5,1,0,1,1,1
1528182785995088,1,-4,7,-3,-2,0,0,-2
1528182785995088,-4,-1,-35,-5,0,-3,-16,-2
1528182785995962,-6,-1,15,6,0,0,16,-1
1528182785995962,8,4,22,3,1,1,-8,3
1528182786008020,-14,0,22,-1,-5,-7,5,-4
1528182786008020,1,-10,-76,-20,-3,1,3,-5
1528182786016933,-5,-1,40,0,1,6,-3,-1
1528182786016933,4,0,25,3,-1,-1,4,12
1528182786031863,32,1,-9,-1,0,0,-11,-26
1528182786031863,-14,-1,39,7,-2,-7,-3,0
1528182786033823,0,2,-7,-3,-3,-5,0,-3
1528182786033823,1,-3,-22,-5,-1,0,3,6
1528182786054930,-6,-3,-6,-2,1,-1,-1,8
1528182786054930,4,1,17,3,-1,-1,2,-4
1528182786055940,3,0,-18,-2,-2,0,-10,0
1528182786055940,-8,-3,7,1,-1,-4,-3,-7
1528182786068747,-5,-4,-15,-8,0,6,13,6
1528182786068747,2,2,16,1,0,1,0,-11
1528182786076730,-3,-3,-12,2,-3,-2,-7,17
1528182786076730,-2,0,-14,-4,-2,-4,-8,-3
1528182786091691,-3,1,-3,1,0,-3,-8,-2
1528182786091691,1,-4,-5,-1,0,-2,8,4
1528182786093675,-2,-2,19,1,0,-10,-11,-7
1528182786093675,-5,-1,-42,-2,2,28,39,-8
1528182786114772,-9,-1,8,-1,0,-12,-54,7
1528182786114772,0,1,17,0,-2,3,26,2
1528182786116603,7,2,-9,-1,0,3,17,14
1528182786116603,-6,-1,4,-3,-1,-11,-7,-14
1528182786128722,22,-1,-9,0,0,0,6,4
1528182786128722,-47,-3,-3,-2,-1,-6,-26,-8
1528182786137578,27,2,-16,-5,0,-4,-10,-5
1528182786137578,-7,-3,11,-3,-2,-1,14,-4
1528182786152535,8,1,5,2,-2,3,11,-1
1528182786152535,9,0,10,1,0,-7,-26,3
1528182786153504,-15,-3,-15,-2,-1,6,24,-3
1528182786153504,7,-1,-3,-3,-1,-4,-17,1
1528182786174604,-5,-5,14,1,-2,-4,4,2
1528182786174604,0,-1,-8,2,0,3,8,-8
1528182786176443,3,-10,-34,-6,-2,-4,-22,-23
1528182786176443,13,7,4,3,0,-4,-11,8
1528182786188410,6,-1,-5,-4,-1,-1,5,10
1528182786188410,-7,-5,15,3,1,-1,7,4
1528182786197393,2,1,16,0,-2,-1,-12,-5
1528182786197393,-4,-1,-5,-2,-1,0,11,12
1528182786212487,-7,-2,-18,-2,0,2,5,-18
1528182786212487,10,2,17,-3,-3,1,-4,0
1528182786213443,-10,2,10,5,1,-5,-7,-5
1528182786213443,3,-8,-3,-1,-2,-3,-5,5
1528182786234427,-9,3,7,-4,-1,3,5,-8
1528182786234427,-1,-3,-35,-5,-2,-2,-5,1
1528182786236283,-8,-1,12,1,0,-2,2,9
1528182786236283,-4,5,0,-3,0,0,3,-14
1528182786248407,9,-2,5,4,-3,-1,0,12
1528182786248407,-5,2,9,2,-1,-1,-5,-13
1528182786257227,-10,-1,6,-3,0,0,6,-1
1528182786257227,-10,-6,-10,2,-2,-2,-7,-10
1528182786272343,9,5,-4,2,2,-5,-6,-2
1528182786272343,-25,-3,-10,1,-1,5,0,22
1528182786273340,-13,-12,5,-4,-5,1,-5,-24
1528182786273340,8,3,18,0,-3,-7,19,-14
1528182786294128,-4,-3,4,1,-3,-1,-9,10
1528182786294128,19,-1,-20,-1,3,4,-2,5
1528182786296123,-12,-2,13,1,4,1,8,2
1528182786296123,13,-8,-10,0,-1,0,-7,1
1528182786308236,-10,1,7,-7,-6,-4,7,-10
1528182786308236,3,-1,9,3,0,-2,-2,2
1528182786317252,5,2,-10,-6,-4,-2,-3,4
1528182786317252,-1,-4,-3,-1,0,-2,-7,-1
1528182786332213,-18,1,-6,2,0,5,9,3
1528182786332213,12,-3,6,-2,-4,-2,-3,-9
1528182786333267,5,3,-6,-2,-2,-3,-11,6
1528182786333267,-2,2,0,0,-2,4,16,1
1528182786354192,-6,-2,-3,-2,-1,-4,-12,-5
1528182786354192,-6,-1,2,-3,-3,-3,1,-16
1528182786356159,7,3,7,2,0,0,4,3
1528182786356159,-5,-2,5,-1,-1,3,2,8
1528182786368156,9,-2,-38,-6,-2,0,-3,-3
1528182786368156,-37,0,12,0,-1,-1,-19,8
1528182786377092,37,0,2,2,-1,-6,14,-21
1528182786377092,9,8,4,1,0,-1,-19,2
1528182786392053,-11,-5,0,0,0,10,22,10
1528182786392053,8,4,-1,-1,0,-2,-5,-17
1528182786394047,-3,-1,3,0,-2,-4,-7,14
1528182786394047,-9,-5,-1,-4,-1,-6,-11,-4
1528182786413993,0,-1,0,0,0,1,-27,-5
1528182786413993,12,3,-4,-2,-1,-1,-3,11
1528182786415990,-6,-4,2,-1,-2,5,20,0
1528182786415990,-1,0,-17,-3,-2,-5,5,2
1528182786428121,14,-3,2,-1,0,-4,-8,-2
1528182786428121,4,-2,5,-1,-3,-1,-1,-3
1528182786437137,-3,0,-4,-1,-1,-3,-6,2
1528182786437137,-16,1,-2,0,0,-1,-5,-2
1528182786452385,-7,-3,-2,-2,-1,-3,2,-4
1528182786452385,10,-2,4,1,-1,-3,2,0
1528182786453468,-11,0,-7,-3,0,2,17,-2
1528182786453468,4,-3,0,-2,-3,-1,-6,17
1528182786474603,-16,-2,2,1,0,-1,16,-39
1528182786474603,17,2,3,0,-1,0,-10,15
1528182786476409,-8,-2,-1,0,2,10,9,0
1528182786476409,-15,-5,0,-2,0,-3,-9,2
1528182786488535,19,0,1,-1,-2,-5,-8,8
1528182786488535,-30,-4,-1,-1,-2,-4,19,-8
1528182786497354,11,4,-5,-2,-2,-3,-26,-3
1528182786497354,-7,-1,1,1,-1,-2,-7,-12
1528182786512459,17,-3,-2,-2,-3,-6,3,12
1528182786512459,7,0,-2,0,1,7,21,8
1528182786513441,-12,0,-8,-1,-3,2,-9,4
1528182786513441,1,-1,1,0,0,-1,5,-5
1528182786534449,-15,0,12,0,1,-5,-25,-1
1528182786534449,20,0,-1,-2,-1,-2,12,-3
1528182786536248,1,-2,2,-2,0,-1,8,0
1528182786536248,-5,-1,-6,-1,-1,-3,-12,4
1528182786548383,-5,0,-1,-1,-1,4,20,2
1528182786548383,0,-1,-2,-1,-1,1,-4,-4
1528182786557438,0,-2,1,0,1,-4,-28,6
1528182786557438,-2,-3,0,-2,-3,-1,20,-17
1528182786572515,-12,0,-2,0,0,1,8,3
1528182786572515,16,-1,2,-2,0,2,2,-1
1528182786573376,-6,0,-3,-2,-1,-3,3,-4
1528182786573376,11,0,-1,0,1,6,-5,9
1528182786594328,-27,-4,-2,-3,-2,-4,-26,3
1528182786594328,5,4,-7,-2,-1,-3,19,-7
1528182786596295,2,-3,4,-2,-2,-3,-6,11
1528182786596295,8,-1,4,0,-1,-3,-16,-2
1528182786608263,-14,-2,-5,-3,-1,1,22,-6
1528182786608263,0,-2,-2,1,0,-7,-16,1
1528182786617239,4,0,-4,-2,-2,1,-4,-6
1528182786617239,-9,0,1,0,-1,6,5,3
1528182786632360,-2,-6,5,-1,-2,1,2,-5
1528182786632360,17,-5,-18,-2,-2,-2,-8,-5
1528182786634232,6,4,-1,2,-1,-3,3,8
1528182786634232,-3,1,-3,-3,-2,3,5,3
1528182786654303,28,3,-3,0,-1,1,4,-13
1528182786654303,-10,-4,4,-1,0,1,-2,2
1528182786656135,-11,-2,-1,-1,-3,-2,-4,-10
1528182786656135,9,-2,-4,0,0,-4,-4,7
