timestamp,emg1,emg2,emg3,emg4,emg5,emg6,emg7,emg8
1529291641449736,-7,-2,-8,-8,-23,-30,-11,-5
1529291641449736,1,3,8,11,-1,-10,2,4
1529291641470678,-3,-1,-7,-10,3,13,3,0
1529291641470678,1,0,-5,-4,-1,18,8,2
1529291641471679,-2,2,6,9,-5,-4,2,1
1529291641471679,-12,-7,-7,-3,1,6,6,1
1529291641483643,18,12,13,-2,-10,-13,-8,-2
1529291641483643,-2,-5,-9,0,7,3,4,-1
1529291641492619,3,3,24,6,-1,5,0,0
1529291641492619,-5,-3,-5,-8,-10,-15,-7,-4
1529291641507580,-6,-6,2,2,2,-5,0,2
1529291641507580,-1,-1,8,-4,4,6,-8,-2
1529291641509575,1,-4,-26,-20,-22,-22,-9,-5
1529291641509575,6,5,3,0,0,-2,3,4
1529291641530518,-10,-5,-4,11,19,31,9,3
1529291641530518,0,1,3,-6,0,12,6,-1
1529291641531515,-3,-2,1,6,-4,-7,0,0
1529291641531515,6,2,3,4,2,1,3,0
1529291641544482,0,0,-5,-3,-7,-8,-6,-4
1529291641544482,-2,-4,-10,-4,-9,-4,-7,-4
1529291641553457,-3,-2,-1,-7,-1,6,-5,-4
1529291641553457,4,0,1,26,6,-11,-4,-2
1529291641567420,-4,-3,-4,-20,2,8,7,0
1529291641567420,-2,-1,-7,-4,-2,0,-2,-3
1529291641569415,-8,-11,-34,-12,-13,-13,-7,-4
1529291641569415,-4,6,-1,-1,-4,-12,-3,-10
1529291641590360,7,3,5,18,13,21,8,6
1529291641590360,-7,-1,12,-3,-2,-1,4,2
1529291641592355,16,0,6,11,13,13,6,2
1529291641592355,-2,0,1,2,-2,5,-9,-2
1529291641604320,-6,-6,-5,-7,-11,-12,-5,-3
1529291641604320,-3,-5,-15,-6,-9,-7,-8,-5
1529291641613325,-1,3,13,-3,-8,-21,-4,0
1529291641613325,2,-6,-4,3,11,9,4,2
1529291641628257,0,-1,0,-4,7,12,8,2
1529291641628257,3,-1,2,-17,-11,-9,-14,-3
1529291641629256,-7,-4,1,-4,-3,-16,-6,0
1529291641629256,4,2,2,13,-2,22,10,4
1529291641650199,-2,0,-10,-14,-3,-6,-4,1
1529291641650199,0,-4,-32,6,6,9,-4,0
1529291641652203,-4,4,7,-6,-7,-18,-6,-4
1529291641652203,1,0,-8,-13,7,-2,0,1
1529291641664162,-1,-1,43,28,-1,3,-1,-4
1529291641664162,2,-5,-4,-6,-4,-9,1,-1
1529291641673139,3,3,-7,2,5,10,6,4
1529291641673139,-5,-6,12,1,2,8,3,2
1529291641688134,-18,-6,-8,-15,-8,-13,-8,-13
1529291641688134,15,8,20,8,-4,-4,-2,3
1529291641689144,-8,-13,-40,-12,-4,-3,-5,-4
1529291641689144,1,-3,13,8,-3,-9,-4,-1
1529291641710040,0,7,13,24,18,15,9,3
1529291641710040,-6,-4,-9,-36,-9,2,-5,-5
1529291641712034,-1,-2,6,8,0,-7,1,-2
1529291641712034,3,2,-2,-10,0,11,4,2
1529291641732008,-2,-5,-17,6,-4,-15,-8,-4
1529291641732008,-7,-1,-2,-5,-2,-4,-4,-4
1529291641732978,5,2,2,18,18,25,15,8
1529291641732978,-4,-1,-27,8,-6,-7,-9,-9
1529291641746979,3,-1,-22,-35,-11,-6,-2,2
1529291641746979,-5,-6,-30,12,-1,-5,-2,-4
1529291641747938,1,1,-5,-15,6,6,-2,-1
1529291641747938,-3,1,17,-12,-14,-16,-9,-3
1529291641769932,-3,-4,-43,0,2,-3,0,-2
1529291641769932,-1,0,8,-3,-5,-12,-3,-2
1529291641769932,1,8,17,-1,0,1,-3,-3
1529291641769932,-2,-9,-11,3,10,4,-3,-4
1529291641791822,-2,-1,14,7,-14,-18,-11,-3
1529291641791822,-2,-1,5,5,10,15,9,7
1529291641792817,2,-3,-1,-8,3,23,3,-2
1529291641792817,-4,3,12,20,-4,-14,-2,0
1529291641806833,5,1,6,-35,-20,-16,-7,-1
1529291641806833,-2,-1,1,20,17,19,15,3
1529291641807778,-4,5,40,3,-13,-17,-8,-5
1529291641807778,-3,-5,-19,-20,-6,0,-3,-4
1529291641829772,0,-2,11,19,8,7,2,0
1529291641829772,0,2,15,9,9,16,5,2
1529291641830716,0,-3,-5,-12,-12,-14,-4,0
1529291641830716,2,3,2,3,5,11,6,2
1529291641852659,0,2,2,3,-4,2,-2,-1
1529291641852659,1,0,0,-5,-6,-5,-1,1
1529291641852659,-2,0,-3,-13,-1,-4,-6,-3
1529291641852659,-2,-8,9,10,0,-4,-4,-3
1529291641867619,-1,-3,-6,-9,-3,0,-4,-1
1529291641867619,-4,-11,7,6,0,-13,-10,-7
1529291641867619,-4,-2,-1,1,-3,-2,1,-1
1529291641867619,5,16,22,-12,4,11,9,4
1529291641889560,3,-6,2,-3,12,15,8,7
1529291641889560,-4,-7,0,11,-20,-14,-6,-5
1529291641890557,-6,-8,0,31,2,-13,-8,-7
1529291641890557,-9,-6,-10,4,-3,-3,-4,-4
1529291641912498,-3,-1,2,-4,-3,-6,0,0
1529291641912498,0,9,8,-16,-9,-12,-9,0
1529291641912498,-3,-3,-2,4,1,4,4,-3
1529291641912498,-1,3,-1,9,18,23,8,3
1529291641934440,3,3,0,7,5,8,2,0
1529291641934440,1,1,-4,-6,0,1,1,-1
1529291641935436,-3,0,-4,-8,-14,-16,-10,-5
1529291641935436,-2,-7,-9,-15,-5,-14,-5,-1
1529291641949400,-2,2,-2,-2,1,7,5,2
1529291641949400,-1,0,2,-10,2,5,0,-1
1529291641950397,-1,-3,2,10,5,0,-1,1
1529291641950397,4,4,25,-14,-9,9,5,0
1529291641972338,-1,-1,-3,38,15,-8,-2,-2
1529291641972338,0,-2,-7,-7,6,5,-3,-3
1529291641973343,3,5,10,-10,-13,1,0,1
1529291641973343,-4,1,3,5,-5,-5,-7,-4
1529291641987298,2,-1,2,-29,-3,-1,3,-1
1529291641987298,-2,-2,-20,-18,1,-2,7,2
1529291641988294,1,0,-1,33,8,-1,1,1
1529291641988294,-2,-2,-20,-35,-18,-16,-11,-3
1529291642009238,-3,3,-1,15,-6,-2,-2,-2
1529291642009238,-2,4,7,17,8,14,9,0
1529291642010236,16,12,-2,-8,5,19,9,12
1529291642010236,-7,-3,-1,11,5,-5,-8,-7
1529291642032176,-19,-22,-9,-4,-9,-15,-9,-7
1529291642032176,7,0,3,0,-1,-12,-9,1
1529291642033174,-5,-8,-5,2,11,24,12,0
1529291642033174,6,9,0,14,2,-7,-5,-3
1529291642047136,3,3,6,-8,-2,-5,-2,0
1529291642047136,-9,-9,-6,-3,-11,-1,-2,-5
1529291642048135,2,0,0,6,1,-5,-1,3
1529291642048135,0,-6,-6,-2,-3,-1,1,4
1529291642070121,-3,-5,1,10,-4,0,-2,-4
1529291642070121,-2,-1,1,-5,-2,-10,-4,-1
1529291642070121,-2,-1,-4,14,6,6,2,-1
1529291642070121,-6,-8,-10,-15,-7,1,1,-5
1529291642092017,5,5,0,-7,1,6,4,1
1529291642092017,0,2,1,5,1,1,-2,-2
1529291642093026,-9,-10,-6,-14,-13,-19,-12,-7
1529291642093026,-3,-3,-3,6,2,-6,2,-1
1529291642106977,0,2,-6,-12,-1,5,0,-2
1529291642106977,-1,0,5,17,9,-11,-5,-2
1529291642107975,0,6,6,-15,-12,1,0,1
1529291642107975,2,-6,2,15,9,10,5,2
1529291642130054,4,6,3,-8,-9,-6,-3,-1
1529291642130054,-2,-3,21,17,5,7,2,-1
1529291642131032,-5,-1,15,-19,-7,-6,-2,-3
1529291642131032,1,5,12,-18,-4,-1,-3,-1
1529291642152205,-2,-1,3,-12,3,4,1,3
1529291642152205,-2,-3,-9,8,3,-2,-3,3
1529291642153208,5,0,-26,-56,-12,1,-2,-2
1529291642153208,-1,-3,-13,51,11,-9,-7,-4
1529291642167276,-2,-3,-13,26,10,7,-1,-5
1529291642167276,3,1,-6,-30,-6,0,4,2
1529291642168136,-2,-4,-7,-8,-8,-1,0,-2
1529291642168136,0,-5,-14,-30,-17,-4,0,1
1529291642190211,0,3,4,23,18,-6,-5,-4
1529291642190211,-8,-4,-2,-8,-24,-8,-3,-5
1529291642191088,-1,1,2,20,15,12,9,1
1529291642191088,3,3,-7,-26,0,5,2,3
1529291642212217,-11,-1,0,4,1,0,-1,-1
1529291642212217,9,-1,1,-5,-1,-3,-8,-16
1529291642213214,3,-6,-1,5,-4,-10,-7,6
1529291642213214,-32,-14,7,9,1,-3,-1,-1
1529291642243274,-47,-11,20,-9,-8,-6,-25,-97
1529291642243274,62,18,36,-11,-4,-2,18,92
1529291642244244,-34,8,-3,4,6,4,10,-40
1529291642244244,22,24,-29,-8,8,10,7,31
1529291642250242,22,17,-44,-15,-18,-12,-3,-3
1529291642250242,21,30,-25,-2,4,3,-8,-4
1529291642250242,70,17,56,35,13,2,43,126
1529291642250242,25,4,-10,-14,-4,-11,-5,-5
1529291642272215,-61,-26,-49,-25,-18,-12,-31,-64
1529291642272215,-17,2,24,3,9,27,4,-47
1529291642273070,0,-30,30,19,0,1,-16,-25
1529291642273070,15,26,33,25,7,1,11,-2
1529291642287017,19,-6,32,8,-3,5,6,-31
1529291642287017,-24,-10,-55,-24,15,10,27,73
1529291642288029,21,14,-18,-8,-3,-5,-6,8
1529291642288029,-50,-30,3,3,-2,-1,-3,-3
1529291642308990,34,1,-20,-3,3,8,7,10
1529291642308990,-32,-1,-43,-1,-14,-20,-24,-63
1529291642316937,-24,9,-43,-13,-2,7,-2,-14
1529291642316937,14,8,-24,-21,-18,-15,-4,6
1529291642332055,-4,-18,15,7,4,2,1,27
1529291642332055,5,1,14,12,17,1,-2,-6
1529291642332894,-10,-13,-20,25,30,5,-6,-9
1529291642332894,-3,-7,17,-33,-56,-11,-14,-23
1529291642355186,18,25,26,5,-4,-11,3,30
1529291642355186,-11,-22,7,-7,-56,2,8,8
1529291642355186,-3,13,0,-15,5,-9,-8,-13
1529291642355186,2,4,29,17,13,28,23,2
1529291642368985,14,0,37,-8,13,12,18,36
1529291642368985,-2,-5,-8,4,15,0,3,0
1529291642377126,-17,-7,13,22,-12,-13,-10,-22
1529291642377126,-2,-11,-22,6,8,-3,-3,-13
1529291642392082,4,-6,-3,2,-11,-10,1,28
1529291642392082,-3,-5,3,22,10,0,-2,-16
1529291642392921,1,-2,-18,-7,-12,-1,-6,-15
1529291642392921,-4,-19,2,-5,1,-10,-5,2
1529291642415018,-8,-2,-47,-17,4,11,17,3
1529291642415018,-12,-27,-22,23,7,3,1,-7
1529291642416017,-9,-14,-34,-27,-15,-11,-14,-12
1529291642416017,-5,-20,-23,11,9,-3,-10,-8
1529291642436819,-8,-12,-14,-4,-10,-19,-13,-2
1529291642436819,-5,4,22,-2,13,12,5,-7
1529291642444805,-5,-14,4,-10,-7,-3,-2,6
1529291642444805,-4,2,-17,-11,3,-5,-18,-19
1529291642451765,5,6,4,-4,7,7,6,11
1529291642451765,-2,3,21,-5,-8,-9,-12,-17
1529291642452762,3,5,22,-3,-7,-4,3,-2
1529291642452762,4,12,25,14,15,5,2,3
1529291642474703,11,5,27,6,-4,3,0,24
1529291642474703,16,21,13,-5,15,17,21,5
1529291642475701,1,14,-30,-11,3,4,-11,-17
1529291642475701,5,7,2,-4,-5,5,5,4
1529291642497641,-3,-6,29,18,-8,-10,-6,3
1529291642497641,-3,-5,6,-7,-9,-11,-8,-5
1529291642498639,-4,-5,-14,-15,2,-4,1,-2
1529291642498639,-5,-2,-24,1,-2,-6,-7,-8
1529291642512753,3,6,-10,-15,-13,-1,7,6
1529291642512753,-8,-11,13,10,-6,-2,-10,-15
1529291642512753,-10,-23,9,7,1,4,2,0
1529291642512753,-4,-6,-15,-13,0,0,3,4
1529291642534701,1,1,-10,-8,-1,0,-4,0
1529291642534701,2,7,-14,-11,-8,-12,-9,-4
1529291642542521,-3,2,-11,5,7,7,-3,-3
1529291642542521,2,-1,13,9,3,5,7,1
1529291642557625,-2,5,-19,-3,8,0,-1,-7
1529291642557625,4,3,-7,-1,-2,-8,-5,3
1529291642558494,0,4,5,-2,-6,-2,-12,-7
1529291642558494,-5,1,3,8,8,6,8,4
1529291642572445,0,-2,3,-7,-8,3,0,1
1529291642572445,-3,-2,-6,-2,9,-7,-13,-3
1529291642572445,-8,-22,8,3,-2,-5,0,-1
1529291642572445,-1,4,-3,-4,-8,-7,-9,-2
1529291642594437,4,0,-9,1,-2,2,-4,2
1529291642594437,-2,2,3,4,0,6,7,0
1529291642595379,-3,0,-6,-5,-11,1,8,0
1529291642595379,2,12,-4,-11,-1,-6,-4,-3
1529291642618318,-1,-9,6,9,4,-7,-8,-3
1529291642618318,1,0,19,-2,-7,-7,-6,-1
1529291642618318,1,9,23,12,11,2,4,0
1529291642618318,3,9,-1,-6,-6,-1,-4,-8
1529291642632281,-2,2,-3,-3,2,2,-1,-1
1529291642632281,-2,-7,-2,-2,-5,-1,-5,-1
1529291642633278,0,5,5,3,8,2,-8,-2
1529291642633278,-1,-8,14,-2,-2,9,19,8
1529291642655272,1,6,-5,3,0,-3,-6,-4
1529291642655272,-3,-3,-8,-1,3,-1,-1,-1
1529291642656273,3,5,6,-10,-5,3,8,1
1529291642656273,-2,-2,5,7,4,-3,-3,-1
1529291642678214,-2,3,-8,-9,-1,-11,-7,-2
1529291642678214,-4,-5,-4,-4,-4,-3,7,2
1529291642678214,-1,3,2,6,4,-2,-2,0
1529291642678214,3,-2,2,-2,7,2,5,1
1529291642692176,-3,-7,22,8,-4,6,5,3
1529291642692176,-4,-3,-30,-17,-9,-8,-12,-8
1529291642693174,-1,-2,12,13,-4,-3,4,5
1529291642693174,-2,-7,4,5,-1,-7,-11,-3
1529291642715114,-2,-7,2,6,14,8,5,3
1529291642715114,-2,-1,-1,1,-14,-4,-5,-5
1529291642715114,-2,5,-15,-16,-9,-7,-1,-2
1529291642715114,0,-2,-7,4,2,9,10,5
1529291642738053,0,1,0,-2,3,0,0,-3
1529291642738053,-4,-2,-4,-2,2,3,1,-2
1529291642739051,-7,-12,-1,1,-5,-2,-8,-4
1529291642739051,-7,-23,1,6,-4,-4,-5,-1
1529291642751961,-2,-6,24,13,0,0,1,2
1529291642751961,2,3,-1,-3,3,-3,4,3
1529291642752959,2,8,-8,-3,3,4,-7,-5
1529291642752959,-2,5,-14,-9,-1,-7,-9,-8
1529291642774952,-3,-6,-9,-3,-1,-6,-1,1
1529291642774952,1,-3,4,2,-1,-5,-2,0
1529291642775925,-1,-1,5,0,-9,-13,-6,-10
1529291642775925,-2,1,3,0,0,3,4,2
1529291642797871,2,4,-7,0,13,4,-3,-3
1529291642797871,-2,0,-13,-7,-8,3,2,-3
1529291642798892,3,7,5,-2,1,5,-1,-1
1529291642798892,0,-8,15,3,-11,-9,-7,1
1529291642811859,-5,-4,-19,-18,-11,-13,-5,-2
1529291642811859,-1,2,-16,8,17,10,6,0
1529291642812799,2,8,-21,-18,-20,-3,-4,0
1529291642812799,-5,-1,-7,-13,-11,-4,0,0
1529291642834768,-3,2,10,-2,-5,-6,0,-6
1529291642834768,2,1,12,7,3,1,-1,3
1529291642835738,-4,-8,-4,-1,1,-2,-5,-4
1529291642835738,2,2,4,2,4,-1,-2,4
1529291642857679,1,0,-14,-4,0,5,-1,-1
1529291642857679,-3,-1,-3,-5,-7,-7,-6,-2
1529291642858675,-5,0,1,3,6,3,5,2
1529291642858675,2,4,-12,-8,-11,-8,-4,-3
1529291642872639,-6,-13,4,5,-4,2,2,-4
1529291642872639,-1,-5,8,0,-2,-8,-4,-3
1529291642872639,3,-5,-1,-2,5,9,6,5
1529291642872639,-2,-1,2,3,6,5,-2,-5
1529291642894581,-3,-3,-3,4,4,6,-4,-5
1529291642894581,-2,-3,10,-1,-7,1,3,0
1529291642895578,0,5,18,6,10,3,6,2
1529291642895578,-3,-4,-23,-18,-3,0,-1,-2
1529291642917659,6,9,1,-9,-2,-6,1,4
1529291642917659,-1,0,19,9,-6,-5,-2,2
1529291642918531,3,0,59,24,8,-8,-2,1
1529291642918531,-4,-10,-12,0,-4,-4,-2,-2
1529291642932639,-1,3,-7,-5,-7,4,3,1
1529291642932639,-7,-22,-8,-2,-3,-1,0,-4
1529291642933638,-2,-6,-22,-3,8,6,5,0
1529291642933638,0,1,16,-3,-13,-2,-3,-2
1529291642954758,-1,2,6,1,-7,-11,-8,-1
1529291642954758,1,9,8,3,22,-9,-9,-4
1529291642955617,-2,0,4,6,-5,7,6,2
1529291642955617,0,4,4,-6,0,7,2,4
1529291642977725,4,6,-7,-3,3,11,5,3
1529291642977725,-1,2,-3,-5,-6,-7,-9,-6
1529291642978565,-4,-10,-5,-5,-3,-12,-11,-7
1529291642978565,0,1,-3,11,16,-7,-2,-3
1529291642992680,-1,-4,23,-10,-16,0,2,3
1529291642992680,4,1,18,0,1,6,1,4
1529291642993611,-4,-1,-18,-12,-9,-3,-5,-1
1529291642993611,-1,1,3,8,2,-3,-5,-3
1529291643014622,-3,1,-9,14,1,-6,-6,-4
1529291643014622,-2,-6,-8,-2,-7,0,4,-2
1529291643015460,-1,-6,-57,-17,-7,-3,1,-3
1529291643015460,-1,2,-10,6,6,-3,-1,1
1529291643037764,-2,-3,-10,7,10,-5,-1,-5
1529291643037764,-1,0,-15,-1,-4,-3,-4,-4
1529291643038610,-3,0,2,-4,-7,-10,-3,-2
1529291643038610,0,0,4,2,4,3,3,2
1529291643051565,4,3,-6,-3,3,0,1,3
1529291643051565,1,1,-9,-2,-1,7,5,4
1529291643059544,0,0,-9,-15,-21,-9,-4,-2
1529291643059544,-2,1,-2,0,-1,1,-4,-4
1529291643074504,0,1,-6,-2,-5,-3,3,0
1529291643074504,3,2,2,6,5,4,5,2
1529291643075498,-3,-3,8,4,2,-2,2,-3
1529291643075498,-1,-2,-1,-7,-8,-5,1,-1
1529291643098462,-2,-1,-3,-1,4,-7,1,-1
1529291643098462,-4,1,-3,-4,1,-10,-1,-2
1529291643098462,-4,-7,4,6,8,-3,2,1
1529291643098462,1,-2,-10,-8,-4,2,-1,-3
1529291643111405,-2,-8,-2,-1,3,8,1,-4
1529291643111405,-3,-4,-6,-3,-4,3,2,-1
1529291643119511,0,0,3,1,4,6,1,2
1529291643119511,-2,-1,6,2,-2,2,1,1
1529291643134341,-3,-2,-3,0,-1,-2,-5,-2
1529291643134341,-3,1,-4,-3,-3,5,-5,-4
1529291643135338,0,0,-3,0,1,18,1,-2
1529291643135338,0,1,0,-1,5,10,-1,-3
1529291643158436,0,1,-5,-1,4,12,0,1
1529291643158436,0,2,-4,-4,-6,5,-2,1
1529291643159297,-1,0,-3,-2,6,10,-1,1
1529291643159297,-1,0,-1,-1,1,6,4,0
1529291643171402,-4,-1,-3,-3,-5,0,3,-3
1529291643171402,-2,-2,0,4,0,-1,2,-3
1529291643179590,1,-1,-1,1,1,-2,1,0
1529291643179590,1,0,-1,-2,-8,-9,-3,-2
1529291643202746,1,-2,-3,-2,-4,-8,-2,1
1529291643202746,1,2,-3,-4,2,-4,-2,1
1529291643203589,0,1,3,-1,-1,-2,-1,4
1529291643203589,-1,-2,-1,1,1,0,-3,-2
1529291643225682,-2,-1,-1,3,2,1,-3,-3
1529291643225682,-1,-1,-3,1,-3,-3,-1,0
1529291643226676,-1,-4,-3,-11,-17,-6,0,-1
1529291643226676,1,1,0,5,6,-4,2,0
1529291643247462,-2,1,2,-5,-4,-4,1,1
1529291643247462,-3,-3,2,-2,2,-5,0,-3
1529291643249457,-1,-1,-6,-3,5,-6,-4,-2
1529291643249457,-2,-4,-1,-3,-8,-5,-3,-4
1529291643254613,-1,-1,2,1,-1,2,1,-3
1529291643254613,2,0,0,-1,-5,0,0,1
1529291643262753,1,-1,-1,3,-4,-4,-1,1
1529291643262753,-2,0,-1,0,1,-5,-3,1
1529291643277713,-2,-1,-1,-3,2,-1,-2,2
1529291643277713,-2,-2,1,0,0,-3,0,0
1529291643279561,0,0,1,0,2,-4,-2,-3
1529291643279561,-2,-3,0,-1,1,-2,-2,-1
1529291643300664,-1,-2,0,-3,1,-3,-3,-3
1529291643300664,-1,-2,0,-2,-1,1,-2,-2
1529291643302512,0,0,-1,0,0,-2,0,-4
1529291643302512,1,1,0,0,0,-4,-2,1
1529291643314613,-2,0,1,-2,-4,-3,-1,0
1529291643314613,-1,-2,-1,-1,0,-1,-1,-2
1529291643323612,-1,0,0,-1,0,-4,1,-2
1529291643323612,-1,-1,3,0,-6,-3,-1,1
1529291643337776,1,-1,0,0,-5,-2,-2,1
1529291643337776,-1,-1,0,-1,-5,3,-5,-2
1529291643338739,-2,0,1,-3,-2,3,-4,0
1529291643338739,-1,-3,1,1,0,0,-2,-4
1529291643351757,-1,-1,-1,-1,2,-3,-1,0
1529291643351757,-2,-2,-1,-1,0,0,-1,-1
1529291643360732,1,-1,-1,-1,-4,0,-2,0
