timestamp,emg1,emg2,emg3,emg4,emg5,emg6,emg7,emg8
1528453369080970,-1,0,0,1,0,2,-1,0
1528453369080970,0,0,0,-2,0,0,-2,-2
1528453369081969,-2,-3,-2,-1,-1,1,-1,-1
1528453369081969,1,-1,-1,0,-3,1,0,-1
1528453369082966,-1,2,-2,-5,-1,-1,-2,0
1528453369082966,-1,-1,-2,0,0,0,0,-1
1528453369085990,0,-2,-1,-1,0,-1,-1,0
1528453369085990,-2,-2,-2,-4,-1,-2,0,0
1528453369092939,1,-2,0,2,0,-2,2,-2
1528453369092939,0,-1,-2,0,0,-1,-1,0
1528453369103908,-1,1,-1,1,0,-1,1,0
1528453369103908,-1,-1,2,1,2,0,0,0
1528453369107898,0,-2,-1,-3,-2,-1,-2,-1
1528453369107898,-2,1,0,-4,-2,-1,-1,-1
1528453369130839,-2,0,-1,-1,-1,1,-2,1
1528453369130839,0,0,-1,0,1,-1,0,0
1528453369131836,0,0,-3,-2,0,0,0,0
1528453369131836,0,1,0,-1,-2,0,-1,-1
1528453369141819,0,-1,-1,1,0,-2,0,-1
1528453369141819,-2,2,-1,-2,-3,-1,-2,1
1528453369155771,-2,-2,-1,0,0,-1,0,-2
1528453369155771,-1,0,-1,1,1,0,-1,0
1528453369159761,0,0,0,-2,-1,-1,-1,-1
1528453369159761,0,-1,-2,-1,0,-1,0,0
1528453369208630,0,0,5,0,-1,0,-1,-1
1528453369208630,1,0,4,0,-1,-1,-1,-1
1528453369209627,0,2,-2,-1,-1,-1,0,1
1528453369209627,-1,0,2,-2,1,-1,-1,0
1528453369210625,-1,-2,-4,-2,0,-2,-1,1
1528453369210625,-1,-1,-1,-1,-1,0,-1,-1
1528453369212620,1,-2,1,0,-1,-1,0,-1
1528453369212620,0,-3,-3,1,0,0,0,-1
1528453369219601,1,2,-2,-1,-1,0,0,-1
1528453369219601,-1,-1,-1,-1,-1,0,-1,1
1528453369227580,1,-1,-1,-1,-1,0,-1,-2
1528453369227580,-1,1,2,-1,-1,-1,-2,0
1528453369236554,-2,-2,1,0,1,0,-1,-2
1528453369236554,-1,-1,-2,-2,-1,-2,0,1
1528453369251514,-2,-1,0,0,-1,0,-2,-2
1528453369251514,1,0,0,0,0,0,-1,0
1528453369258498,0,0,-1,1,-1,0,0,-2
1528453369258498,0,0,-1,-1,-1,-2,0,-1
1528453369264480,0,0,-1,-3,0,-1,0,2
1528453369264480,-1,-1,1,-1,-1,-1,-2,-1
1528453369280437,-2,-2,-1,-2,-1,-2,-1,1
1528453369280437,-1,-2,0,0,0,1,-1,1
1528453369287419,0,-1,2,1,0,-2,-2,-1
1528453369287419,0,0,-3,-1,-1,-1,0,0
1528453369297394,1,-2,-2,0,0,-1,0,-2
1528453369297394,0,0,-1,-1,-1,-1,-3,0
1528453369310357,-1,1,-2,-1,0,2,1,1
1528453369310357,-1,-2,1,0,0,-2,1,1
1528453369319333,1,1,0,0,-2,-1,-1,0
1528453369319333,-1,-1,0,0,0,1,0,-2
1528453369325317,0,-1,-1,0,0,0,-1,-1
1528453369325317,-1,1,-2,-2,0,1,1,0
1528453369340277,-2,1,-1,-1,-1,0,0,0
1528453369340277,-2,-2,-2,0,-1,-3,-1,0
1528453369347258,-2,1,0,-1,0,-1,-1,-1
1528453369347258,0,-1,-2,1,0,0,0,-1
1528453369356235,1,-1,0,0,-2,-1,-1,-1
1528453369356235,0,0,-1,-1,0,-2,-1,-1
1528453369370197,0,-1,-2,0,-1,-2,-1,0
1528453369370197,-2,-2,-1,-2,-2,-2,-1,-1
1528453369379174,-1,-2,-2,0,1,0,-1,-1
1528453369379174,0,0,0,0,-1,2,0,-1
1528453369393136,-3,-1,-2,0,0,1,0,-2
1528453369393136,-1,0,0,-1,-3,-2,-3,-1
1528453369400117,-1,-2,0,1,-1,1,-2,0
1528453369400117,0,0,0,1,-1,1,-2,-1
1528453369407099,0,-1,0,0,-2,-2,-1,-1
1528453369407099,0,-2,-1,1,0,0,-1,-2
1528453369416075,-1,0,-1,0,-1,-2,-1,0
1528453369416075,1,0,-2,-1,1,-3,1,0
1528453369430038,-2,0,1,-1,1,1,0,0
1528453369430038,-2,0,0,-2,-2,-1,-1,-2
1528453369439013,-2,0,0,-1,0,0,1,1
1528453369439013,-1,-2,-1,1,0,-2,0,-2
1528453369444998,1,-1,-1,0,0,-2,0,0
1528453369444998,0,-1,0,-1,0,1,-1,0
1528453369459960,-1,-1,-1,1,1,0,-1,-2
1528453369459960,-2,-1,-1,0,-1,0,-1,-1
1528453369466939,1,-1,-1,-1,-1,-2,0,-1
1528453369466939,1,-2,0,1,0,0,0,-2
1528453369483896,0,-1,-1,-1,-1,0,0,0
1528453369483896,0,0,-1,-2,0,-1,0,-1
1528453369489878,0,-2,0,0,-1,-1,0,0
1528453369489878,-2,-2,-2,0,-1,-1,1,0
1528453369498854,1,0,0,-2,0,-1,-1,-1
1528453369498854,0,-1,1,0,-1,0,0,-1
1528453369504840,-1,-1,-1,-1,0,-1,-1,0
1528453369504840,0,-1,0,-1,0,0,0,-1
1528453369519799,0,-2,-1,0,-1,0,0,-1
1528453369519799,-2,0,-2,-2,-1,-1,-3,0
1528453369527778,0,-1,-1,-1,0,0,-1,0
1528453369527778,0,1,-1,-1,0,0,-1,-1
1528453369543746,-1,1,0,0,-2,0,0,-2
1528453369543746,1,0,0,0,-1,0,0,-1
1528453369549719,0,-2,0,-1,0,2,0,-1
1528453369549719,-1,-1,-2,0,-1,-1,-1,1
1528453369558694,-1,-2,-2,-2,-2,-2,1,1
1528453369558694,-2,-2,-1,-2,-1,-1,0,0
1528453369564679,0,1,-1,0,0,0,-3,-2
1528453369564679,0,0,-1,-1,1,0,-2,0
1528453369579640,-1,-1,0,-2,0,-1,0,-1
1528453369579640,-1,1,-1,-1,-1,1,0,1
1528453369596594,-2,-2,-1,-3,0,-2,-1,-1
1528453369596594,-1,-1,0,-1,-1,1,-1,-2
1528453369597590,0,0,-1,-1,1,-2,-1,-1
1528453369597590,1,0,-1,0,0,-1,0,0
1528453369609560,1,0,1,0,-2,-1,0,-1
1528453369609560,-2,0,1,-2,-1,-2,0,1
1528453369618535,-1,-1,2,-1,-1,2,-1,0
1528453369618535,-1,-1,-1,0,-1,0,-1,0
1528453369633496,0,-1,-1,1,-2,0,0,-1
1528453369633496,-1,2,-1,-1,0,-1,-1,-1
1528453369639480,0,0,-3,0,0,-1,-1,0
1528453369639480,0,0,0,-1,0,-3,-2,0
1528453369647458,-1,-1,-1,-1,-1,2,0,-1
1528453369647458,-1,-3,-1,-1,-1,-2,-1,-2
1528453369656439,0,0,-1,-1,0,0,0,0
1528453369656439,-1,0,-1,0,-1,0,-1,-1
1528453369669399,0,0,-1,0,0,-3,0,1
1528453369669399,0,-1,-1,1,0,-2,-1,0
1528453369678383,-1,1,0,1,2,-1,-1,-1
1528453369678383,1,-1,-3,-4,-2,-1,0,-1
1528453369685357,1,-1,-1,-1,-1,-2,0,-2
1528453369685357,0,-2,-2,-2,-1,0,-2,0
1528453369700317,0,-2,0,2,-2,-1,0,0
1528453369700317,0,-1,-2,0,1,0,-1,0
1528453369707297,-1,-3,1,-1,0,1,-1,0
1528453369707297,0,1,0,1,-1,1,0,-2
1528453369716277,0,0,0,-3,-1,-1,0,-2
1528453369716277,-3,0,1,0,0,0,-1,-2
1528453369730236,-2,0,-1,-1,0,0,-1,0
1528453369730236,0,-1,1,-1,-1,-2,0,-2
1528453369739212,0,-3,-1,-1,-2,-1,-1,-1
1528453369739212,1,-1,0,-1,0,0,0,-1
1528453369745196,-2,0,-2,2,0,-1,0,-1
1528453369745196,-1,-1,-1,0,-1,0,0,-1
1528453369760156,0,0,-2,-2,-1,0,-2,0
1528453369760156,1,-2,0,1,0,0,-1,0
1528453369768134,-1,0,0,-1,0,-1,-1,-2
1528453369768134,0,-1,0,-1,-1,-2,0,0
1528453369776121,-1,-2,0,0,0,0,-1,-1
1528453369776121,-2,-2,0,-1,-1,-2,1,-2
1528453369790078,1,-1,-1,1,-2,-1,-1,1
1528453369790078,-1,0,0,2,0,-2,0,-1
1528453369799052,0,-2,-4,-7,0,-1,-1,-1
1528453369799052,0,0,-1,-1,-2,-1,-1,0
1528453369813014,0,-1,1,-1,-1,0,-1,-1
1528453369813014,-1,-1,1,2,-3,0,-1,0
1528453369820300,-2,1,-3,2,-1,-2,0,-1
1528453369820300,1,-1,-1,-1,0,-1,-1,-1
1528453369827238,-1,0,2,0,-1,-1,0,0
1528453369827238,0,0,1,0,1,1,1,0
1528453369836208,-1,0,1,0,-1,1,-2,-1
1528453369836208,-1,0,-1,-2,-1,0,0,-1
1528453369850170,0,-1,-1,-2,-1,-1,-3,-2
1528453369850170,-1,0,-2,-1,0,-2,0,-2
1528453369859147,-2,0,2,2,0,-1,-2,0
1528453369859147,0,0,1,1,0,-1,-2,0
1528453369873423,0,-2,-1,-1,0,-1,-2,0
1528453369873423,0,0,-3,-2,0,2,-2,-2
1528453369880653,0,-1,-1,0,-1,0,-1,1
1528453369880653,-1,-3,-2,0,-2,0,-2,0
1528453369887631,-1,-1,-2,0,0,-1,-1,0
1528453369887631,-2,0,-2,-1,-1,-2,0,0
1528453369896388,1,-2,1,0,0,-1,0,-1
1528453369896388,0,-1,0,0,-1,-1,-1,-1
1528453369909672,0,0,-2,-2,-1,1,0,-2
1528453369909672,0,-1,-1,0,-2,1,0,1
1528453369918625,-1,-1,0,-1,-1,0,-1,0
1528453369918625,-1,0,0,-1,-1,-1,0,-2
1528453369932592,0,0,-2,0,0,-1,-2,0
1528453369932592,-1,-1,-1,-1,-1,-1,0,0
1528453369939538,0,0,-2,0,0,-1,-1,-1
1528453369939538,-1,0,0,-1,0,0,0,0
1528453369947517,-2,-1,0,1,-2,0,1,-1
1528453369947517,-1,-1,-1,1,-1,-1,0,-1
1528453369963482,1,-1,-3,-9,-1,0,-2,0
1528453369963482,-2,1,1,-1,1,0,-1,-1
1528453369969490,-2,0,-1,-1,-1,-1,-1,-1
1528453369969490,0,0,2,0,-1,-1,0,0
1528453369979432,0,-1,1,0,0,-1,2,-2
1528453369979432,-1,-1,-2,0,-2,-1,-1,0
1528453369993637,-1,-1,-1,-1,0,-1,-1,-1
1528453369993637,0,0,0,0,0,-1,-3,-1
1528453370000590,0,1,-1,0,0,0,-1,0
1528453370000590,0,0,-1,-1,1,-2,-1,-1
1528453370007357,0,1,1,0,-1,-1,-2,0
1528453370007357,0,-1,-1,-1,1,0,0,-1
1528453370016596,1,0,2,1,-1,-2,1,-1
1528453370016596,-1,-1,-1,0,0,0,0,0
1528453370038785,-2,-2,0,-2,0,-1,-1,-1
1528453370038785,-1,-2,-2,-2,-1,0,-1,0
1528453370040517,0,0,0,1,-1,0,-1,0
1528453370040517,1,-1,0,0,1,-1,0,-1
1528453370053877,-1,-1,-1,-1,-2,0,-1,-2
1528453370053877,-1,0,0,-3,1,-1,-1,-1
1528453370060758,-1,-2,-1,1,0,-2,-3,-2
1528453370060758,1,0,-1,-1,-2,-2,0,0
1528453370067709,1,1,0,0,-1,-2,-1,-1
1528453370067709,-1,-1,-2,-1,-1,-1,-1,-1
1528453370090383,0,0,1,0,0,0,0,0
1528453370090383,-1,-2,0,0,0,0,-1,-1
1528453370091395,0,-1,-1,-1,-1,0,0,0
1528453370091395,0,-1,-3,-3,-1,0,-1,1
1528453370099625,-1,-1,-2,-1,-1,0,0,0
1528453370099625,0,-1,1,-2,0,1,0,-1
1528453370113322,1,-2,-1,-1,2,-2,0,0
1528453370113322,0,-1,0,0,-1,-2,-1,-1
1528453370120581,-2,0,-1,1,-1,-2,-1,0
1528453370120581,-1,-2,-1,0,-1,0,-1,-1
1528453370127524,-2,0,-2,-2,0,0,-1,-1
1528453370127524,1,0,1,-1,-2,0,1,-1
1528453370142539,0,-1,-1,-1,1,-2,-1,0
1528453370142539,0,-2,-1,1,-1,-1,-1,0
1528453370150492,1,-1,1,-1,0,1,0,0
1528453370150492,1,-1,-2,0,0,-2,-3,-2
1528453370166362,0,2,3,-1,-1,1,-1,0
1528453370166362,-2,0,-3,-3,0,1,0,-2
1528453370173168,0,-2,-1,0,-1,0,-1,-2
1528453370173168,-1,-1,-1,0,1,-1,1,-2
1528453370180150,0,0,-1,-1,-1,2,-1,-2
1528453370180150,1,-1,0,-1,-2,-1,-1,-1
1528453370196288,0,-2,-1,-1,-1,0,0,0
1528453370196288,0,1,0,0,-1,0,0,1
1528453370203114,-1,-3,0,-1,0,0,0,-1
1528453370203114,-1,0,1,0,0,-1,-1,-1
1528453370210064,0,1,-2,0,0,0,-1,0
1528453370210064,0,0,0,0,0,-2,-1,0
1528453370219040,-2,-1,-2,-2,0,-1,-1,-2
1528453370219040,0,0,-2,-2,-2,-1,-1,0
1528453370242026,-1,-1,0,-1,-2,0,-2,0
1528453370242026,0,-3,1,-1,0,0,-1,-2
1528453370242976,0,-1,-2,-2,0,-1,-1,1
1528453370242976,1,0,2,-2,-1,-2,0,-1
1528453370255941,-1,-1,-1,0,-1,-1,-1,-1
1528453370255941,-1,0,-1,-3,-3,-1,0,0
1528453370263299,-2,-1,-2,1,-2,-1,-1,-1
1528453370263299,-1,0,-3,0,0,-1,-1,0
1528453370278879,0,0,0,-1,0,0,0,0
1528453370278879,1,-1,-1,0,0,1,-1,-1
1528453370280875,-1,0,0,-1,-1,-2,0,0
1528453370280875,-1,0,-1,-2,1,-1,-1,0
1528453370293100,-1,0,0,0,-2,-2,-1,0
1528453370293100,-1,-2,-1,-1,1,-1,0,-1
1528453370300082,-3,-2,0,0,-2,-1,1,1
1528453370300082,0,-1,-2,0,-1,-1,1,0
1528453370316398,-1,-2,-1,-1,1,1,0,-1
1528453370316398,-1,0,-1,-1,-1,0,-1,0
1528453370322022,0,1,0,-1,-2,1,-1,-1
1528453370322022,0,0,1,0,-2,-1,-1,-1
1528453370339201,-1,-1,-1,1,-2,0,-1,0
1528453370339201,1,0,-2,-2,1,0,-1,0
1528453370339975,-2,0,-3,-1,0,0,-2,-1
1528453370339975,0,0,-2,0,-1,1,-2,0
1528453370353667,-2,0,0,-2,-1,-1,-1,-1
1528453370353667,-2,-1,-1,-1,0,-2,-1,0
1528453370360618,-1,-1,0,1,0,0,2,0
1528453370360618,-1,0,1,-1,1,-1,-1,-1
1528453370375911,-1,-2,-2,-1,0,-1,0,-1
1528453370375911,-1,-2,-1,0,-3,1,-1,-1
1528453370382891,0,-2,-2,0,0,-1,-2,0
1528453370382891,-1,-3,-1,0,-2,-1,-2,-1
1528453370399228,-1,-2,1,-2,-1,0,0,-2
1528453370399228,-1,1,0,-1,0,-2,0,-2
1528453370401188,0,-1,-1,-1,-3,-1,-1,0
1528453370401188,0,-1,1,0,-1,-2,-2,0
1528453370412948,0,0,0,2,-1,-3,-2,0
1528453370412948,-1,0,-1,-1,0,-3,0,0
1528453370421480,-2,-1,1,-2,0,11,-1,0
1528453370421480,-1,1,0,1,0,1,1,-1
1528453370436289,0,0,-1,-1,-1,0,-1,0
1528453370436289,-1,0,0,-1,-3,-1,1,0
1528453370444192,1,0,-1,1,-1,-2,-2,-1
1528453370444192,-2,1,-2,-2,0,0,-2,-1
1528453370459433,0,0,-1,-2,0,-1,-2,-1
1528453370459433,0,-3,-1,-1,0,-1,-2,0
1528453370460157,0,1,1,1,-1,-3,-1,0
1528453370460157,0,-1,0,-1,-1,-1,1,-2
1528453370472117,1,-1,-1,0,0,-3,-2,0
1528453370472117,-1,0,-1,-1,0,1,-1,0
1528453370481094,0,-1,0,1,0,-1,0,-1
1528453370481094,1,-1,-1,0,0,-3,-2,-1
1528453370496053,-3,0,-1,0,-1,-1,-1,0
1528453370496053,0,-1,-2,0,0,-1,-1,-3
1528453370503073,-2,-2,-1,-2,-1,-3,-1,-1
1528453370503073,0,0,0,0,-4,-2,-1,0
1528453370518991,0,1,0,-2,-1,0,-1,0
1528453370518991,0,0,-1,0,-1,-1,-1,0
1528453370519989,-1,0,-2,0,-1,-4,0,-1
1528453370519989,-1,0,-2,0,0,0,1,-2
1528453370531959,0,-1,0,-1,-1,-1,-1,-2
1528453370531959,0,0,0,-1,0,1,0,-2
1528453370540948,0,-1,-2,-1,0,0,-1,-1
1528453370540948,-1,-1,-2,-2,-1,0,-1,1
1528453370555893,-2,-1,0,0,0,-1,1,-1
1528453370555893,0,-1,0,1,0,-1,-2,-1
1528453370562875,-1,0,1,-1,-1,-1,0,1
1528453370562875,-2,-3,-1,0,-1,0,0,-1
1528453370578832,0,-1,-2,-1,-1,1,0,-1
1528453370578832,1,-1,0,0,0,0,-2,1
1528453370580826,-1,0,0,-1,0,-1,-1,-1
1528453370580826,0,0,-1,-1,-1,1,-3,-2
1528453370592794,-2,-2,-1,-1,0,0,1,-2
1528453370592794,-2,-1,-1,-2,-1,-2,0,0
1528453370601770,0,-1,0,-2,0,-2,-1,0
1528453370601770,-1,0,0,-1,0,-1,-1,0
1528453370615733,0,1,0,-1,0,1,0,1
1528453370615733,-1,-1,0,-1,-1,-1,1,-3
1528453370622714,-1,-3,-3,0,-2,-1,0,-2
1528453370622714,0,0,-1,-2,1,0,0,-2
1528453370638672,-2,1,0,0,-1,-1,0,-1
1528453370638672,-2,-1,-1,-2,0,-1,0,1
1528453370640666,-1,1,-1,0,0,0,-2,-1
1528453370640666,0,0,0,0,-1,-1,-1,-1
1528453370652634,1,-1,0,-1,-2,0,-1,0
1528453370652634,-2,0,0,0,-2,-1,1,-2
1528453370661610,-1,0,-1,-1,0,-2,-1,-1
1528453370661610,1,-1,-2,-1,-1,-1,-1,0
1528453370675574,-1,-1,-1,0,0,-1,-1,-1
1528453370675574,-1,-1,0,0,1,1,0,-1
1528453370682556,-1,1,-1,-1,-1,0,0,-1
1528453370682556,-1,-2,-2,-1,-1,-2,1,-1
1528453370698513,-1,-1,-1,0,-1,0,0,-1
1528453370698513,1,0,0,0,-2,0,-2,0
1528453370700508,-1,-2,0,-1,-1,-1,0,0
1528453370700508,-2,0,0,-2,-1,0,-1,-1
1528453370712527,-1,-2,0,-1,1,-1,-1,-1
1528453370712527,-2,-2,-1,0,0,-1,0,-1
1528453370721457,1,-2,-2,0,0,1,-1,0
1528453370721457,-1,-1,0,1,-1,-1,0,0
1528453370735468,0,-2,-2,-1,-1,0,0,0
1528453370735468,-1,-1,0,0,-1,0,-2,-1
1528453370742449,1,0,1,-1,-2,-1,-1,-1
1528453370742449,-2,0,-4,-2,-2,-1,-2,0
1528453370758406,1,0,0,-1,-1,-2,-2,-1
1528453370758406,0,-1,0,-2,0,0,0,0
1528453370760347,-2,0,-1,-1,-1,-2,-1,-1
1528453370760347,0,-1,0,0,-1,0,0,-1
1528453370781346,-1,0,0,0,-1,0,1,0
1528453370781346,-1,0,0,0,0,-2,-1,1
1528453370783339,0,1,1,0,1,0,0,-3
1528453370783339,-2,-2,-1,0,0,-1,0,0
1528453370795254,0,0,-1,-2,-1,-1,-1,-1
1528453370795254,0,-2,-1,0,-1,-2,-1,0
1528453370802290,-2,-2,-2,-2,-3,-2,1,0
1528453370802290,1,0,0,-3,-2,0,0,0
1528453370819222,-1,0,-1,1,0,-1,0,0
1528453370819222,-1,-2,-1,-1,-1,0,-1,1
1528453370820190,0,-2,-2,-1,-1,-1,-1,0
1528453370820190,-1,0,0,1,-1,-1,-1,-1
1528453370832210,-1,-1,0,0,-1,0,-1,0
1528453370832210,-1,0,-3,-2,-1,-1,-2,-2
1528453370841404,-1,-1,0,-1,0,-1,-1,-1
1528453370841404,-2,-1,-1,-1,0,-1,0,-1
1528453370856093,-1,-2,-1,1,-1,2,-1,-2
1528453370856093,0,0,-2,-2,-1,-1,0,-2
1528453370870316,-2,-1,-2,-1,-1,0,0,-1
1528453370870316,1,-1,0,-1,0,-1,0,0
1528453370879030,0,-2,-2,-1,0,-1,-2,-1
1528453370879030,-2,0,0,-2,-2,-1,-1,0
1528453370880043,-1,-1,0,0,-1,0,0,-1
1528453370880043,-2,-2,0,-1,-1,-2,-3,0
1528453370893166,-1,0,-1,0,0,-2,2,-1
1528453370893166,-2,-1,0,-2,-1,0,0,-2
1528453370901185,-1,-1,1,0,-1,-1,0,-1
1528453370901185,1,1,0,-1,0,-1,-1,-1
1528453370916395,-1,0,0,-2,-2,-1,0,1
1528453370916395,-1,0,-2,0,-1,-1,-1,0
1528453370922341,-1,-2,-1,0,0,-2,-1,-1
1528453370922341,0,0,-1,1,0,0,0,1
1528453370939124,0,0,-1,-1,-1,0,0,0
1528453370939124,0,-1,-1,-2,-1,1,0,0
1528453370939931,0,0,-1,-1,0,0,0,-1
1528453370939931,0,-2,0,-1,-2,0,1,-1
1528453370953165,-2,-1,-2,-1,0,-1,2,-1
1528453370953165,1,-1,1,1,0,1,0,1
1528453370961885,2,0,-1,-1,-1,0,-2,0
1528453370961885,-2,-2,0,-2,-1,0,-1,0
1528453370976415,-1,-1,-1,-1,-2,-2,0,-1
1528453370976415,-1,-1,-1,-1,0,0,1,-1
1528453370982131,-1,1,-1,-1,1,-1,-1,-2
1528453370982131,0,-1,0,0,-1,0,-1,-1
1528453370998836,1,-1,-1,0,-1,1,-1,-2
1528453370998836,0,0,0,0,-1,-2,0,0
1528453371000576,-1,1,-1,1,-1,-1,-1,1
1528453371000576,0,0,-1,-1,-2,-1,-1,-1
1528453371012850,-2,0,0,0,-1,-2,-2,0
1528453371012850,0,0,-1,0,-1,0,-2,0
1528453371021531,-1,-3,-1,1,0,0,-1,0
1528453371021531,0,-1,0,-1,1,-2,-1,-2
1528453371035786,1,-2,0,0,0,-1,-1,1
1528453371035786,-1,-1,-1,-2,-2,-1,-1,-3
1528453371043038,0,0,-1,-2,-1,1,-2,0
1528453371043038,0,0,-1,0,-1,0,-1,0
1528453371058200,-1,2,-1,-1,1,-1,-3,-2
1528453371058200,0,0,0,0,1,1,0,-1
1528453371065326,-2,0,1,1,-1,-1,0,-1
1528453371065326,-1,-1,-1,0,-2,0,0,0
1528453371072874,0,-3,-1,-2,-2,1,-1,-1
1528453371072874,1,-1,-1,-1,-1,-1,1,1
1528453371081850,0,-1,-1,-1,-2,-1,-1,-2
1528453371081850,0,-1,-1,0,2,-1,1,-1
1528453371095844,0,-1,0,0,-2,-1,0,0
1528453371095844,0,-1,-1,-1,-1,-2,-2,0
1528453371102793,-2,-2,0,-1,-2,1,-1,0
1528453371102793,1,-1,0,-1,-2,1,-1,1
1528453371117787,0,0,-1,0,0,0,0,-1
1528453371117787,-1,-1,0,-1,0,-1,0,-1
1528453371133828,0,-2,0,0,-1,-3,0,0
1528453371133828,-1,-1,-2,1,1,-1,-2,1
1528453371133828,0,0,-1,-1,0,-1,-1,0
1528453371133828,0,-3,-1,-2,0,0,1,-1
1528453371149157,0,-1,-1,-2,-1,-2,0,-1
1528453371149157,-1,0,-2,-2,-2,1,0,-1
1528453371155500,0,-1,0,-5,-1,1,1,-2
1528453371155500,-2,2,-2,2,-1,0,-1,0
1528453371162493,1,0,-1,-3,-1,-1,-1,-1
1528453371162493,0,0,1,-1,-2,-1,1,-1
1528453371178211,-1,0,1,7,1,-2,0,2
1528453371178211,0,-1,0,-1,0,-1,-1,0
1528453371185301,-1,0,-1,-1,-1,1,0,0
1528453371185301,-1,-1,-2,-2,0,-1,-1,-2
1528453371201903,-1,-1,0,-6,-1,-2,-1,1
1528453371201903,-1,-1,-1,-1,-1,-2,-1,-1
1528453371203684,-1,-2,-2,0,0,-1,0,-1
1528453371203684,0,0,0,-3,-1,-1,0,-1
1528453371216140,0,0,-1,1,0,-1,1,-1
1528453371216140,-3,-1,0,-1,0,-1,0,-1
1528453371222919,0,-1,-1,1,-3,-3,0,-1
1528453371222919,1,-1,-1,0,0,-2,0,-1
1528453371238841,-2,-2,-2,-1,1,-2,0,-1
1528453371238841,0,0,-1,-2,-1,0,0,-1
1528453371245097,-1,-1,0,-1,-1,-1,1,-1
1528453371245097,-1,-1,-1,2,-1,0,-1,1
1528453371262093,-1,0,-1,-1,-2,-1,-2,0
1528453371262093,-2,0,0,-2,-1,-1,0,-2
1528453371263053,0,0,-2,-1,0,0,0,1
1528453371263053,-1,-1,-1,1,-1,0,-2,0
1528453371276286,0,-2,0,-2,-2,1,-2,-2
1528453371276286,-1,1,0,1,-1,0,0,1
1528453371283179,-2,-1,-2,-1,0,-2,-1,0
1528453371283179,-2,-1,0,1,0,0,1,-1
1528453371298221,1,0,-1,-2,0,-1,-1,-1
1528453371298221,0,0,0,0,-1,0,-2,0
1528453371305203,0,-1,1,-1,-1,-1,0,1
1528453371305203,0,1,-2,-2,0,-1,1,0
1528453371321209,-1,-1,-1,-1,-2,0,-1,0
1528453371321209,0,-2,-3,0,0,-2,0,-1
1528453371322893,-1,0,-2,0,0,0,-1,-1
1528453371322893,-2,0,0,0,0,-1,-2,0
1528453371336232,0,-2,-1,0,0,1,0,-1
1528453371336232,0,-3,-1,-2,-1,-1,-1,-1
1528453371350796,-1,0,-1,-1,2,0,-1,1
1528453371350796,-1,-2,-1,0,-2,-1,0,-1
1528453371358779,-1,-1,-1,-1,-3,-1,0,-1
1528453371358779,0,-3,0,-1,-2,0,0,-1
1528453371365027,-2,-2,0,0,0,-1,0,0
1528453371365027,-1,0,0,-1,-2,0,0,-1
1528453371380969,-1,0,-1,-1,0,-1,-1,0
1528453371380969,0,0,-1,-1,-1,-3,0,0
1528453371381943,0,-2,2,-1,-1,0,-3,-1
1528453371381943,0,-1,-1,-1,-1,-1,-1,0
1528453371403006,-1,1,0,0,-1,-1,-2,-2
1528453371403006,-2,0,-1,1,-1,0,0,-1
1528453371426910,-1,-1,0,0,0,-2,0,0
1528453371426910,-2,0,0,-1,-1,-1,-1,-1
1528453371428904,0,-1,0,-1,0,-1,0,0
1528453371428904,1,-2,-1,0,0,-3,-2,-1
1528453371429902,-1,1,0,-1,-2,0,-1,0
1528453371429902,0,-3,-2,-1,-2,0,1,0
1528453371440872,0,-2,0,-1,1,-1,-1,-1
1528453371440872,0,2,0,0,0,-1,-2,0
1528453371441870,1,-1,0,-3,-1,-1,0,0
1528453371441870,0,0,0,0,-2,-1,-1,0
1528453371462812,-1,-2,-2,0,-2,0,-1,0
1528453371462812,-2,0,-1,0,0,1,0,-1
1528453371463809,-1,0,-2,0,0,0,-1,0
1528453371463809,0,-2,-2,-2,0,-1,-1,0
1528453371478770,-1,1,-3,-1,0,-2,0,-1
1528453371478770,0,-1,-6,-4,-2,-1,-2,-2
1528453371484757,-1,-1,4,0,0,0,-2,-1
1528453371484757,0,1,-2,-1,0,0,0,0
1528453371501263,1,-1,2,0,0,0,0,-1
1528453371501263,-1,-1,-2,0,0,-1,1,0
1528453371502139,1,-1,0,5,-1,-1,0,-1
1528453371502139,-1,0,-1,-3,-1,-1,-3,-1
1528453371522942,-1,0,-3,-2,-1,0,0,0
1528453371522942,-1,0,1,-1,1,-2,-1,0
1528453371523939,-1,-1,-2,-2,0,0,0,0
1528453371523939,0,-1,0,1,1,-1,-1,-1
1528453371539178,0,0,1,-1,0,-1,-1,-1
1528453371539178,0,0,2,0,-1,0,0,-2
1528453371545424,-3,0,1,0,-2,-1,-1,-1
1528453371545424,-1,-2,-3,-2,-1,-1,-1,-2
1528453371560120,0,-2,-3,-3,-1,-1,-1,0
1528453371560120,0,1,-2,-1,-2,1,0,1
1528453371561118,2,0,-3,-2,-1,-1,-1,-1
1528453371561118,-1,0,0,0,0,0,-1,-2
1528453371576393,0,-1,1,-2,0,-1,-1,-1
1528453371576393,1,-1,2,2,0,-1,0,-2
1528453371582276,-1,-1,-3,-1,0,0,0,-1
1528453371582276,1,-1,-1,0,-2,-1,0,0
1528453371599018,-2,0,1,0,0,-1,1,-1
1528453371599018,-1,-1,-1,-1,-1,0,-2,-1
1528453371605248,0,0,-1,-3,0,-2,-1,1
1528453371605248,-1,-1,0,-2,0,0,-1,-1
1528453371621303,-3,0,0,1,-1,0,0,-1
1528453371621303,0,-1,0,-2,-3,-2,-1,0
1528453371622261,-2,-1,0,-2,0,2,0,0
1528453371622261,0,-2,0,-1,0,0,-3,-2
1528453371643471,-2,0,-1,-2,-1,-2,1,-1
1528453371643471,-2,-3,-1,0,-1,1,0,-2
1528453371644203,-1,1,-2,-1,0,-2,-1,0
1528453371644203,1,-1,0,-2,-1,-1,1,0
1528453371659194,0,-2,-1,1,-1,1,-2,-1
1528453371659194,-1,-1,0,-1,0,-3,0,2
1528453371665409,0,-1,-1,1,-2,-2,1,-1
1528453371665409,-2,-1,1,0,0,-2,-1,0
