timestamp,emg1,emg2,emg3,emg4,emg5,emg6,emg7,emg8
1529296758941228,0,-5,8,7,-15,-3,-2,-2
1529296758941228,2,1,-5,-23,3,1,-1,-2
1529296758954193,-2,-12,-19,-5,-4,5,-2,-4
1529296758954193,0,7,25,3,1,-6,-1,0
1529296758962171,-2,10,5,3,2,-9,-3,-1
1529296758962171,-1,0,-6,6,-1,5,-1,-2
1529296758969154,-1,-2,1,1,-2,-9,-1,1
1529296758969154,-3,-9,-7,-9,-7,4,-1,-2
1529296758982119,0,2,1,1,10,4,3,-1
1529296758982119,-2,-1,2,8,1,0,-1,-2
1529296758992092,5,0,-2,-5,-6,1,0,1
1529296758992092,-1,6,6,8,6,7,2,4
1529296759007054,2,9,21,-3,0,-2,0,-1
1529296759007054,-2,-3,-3,13,5,0,-1,-1
1529296759014032,-3,-15,-42,-6,2,1,-2,0
1529296759014032,-4,-16,15,-8,0,-3,-2,-3
1529296759031986,4,25,18,29,-5,-19,2,0
1529296759031986,-1,6,4,-21,-5,4,0,-3
1529296759036972,-1,-5,-7,-12,0,2,0,-3
1529296759036972,-4,-13,-14,-7,-11,-4,-1,-3
1529296759051931,1,5,-2,-5,4,5,-1,2
1529296759051931,2,3,0,3,-5,-5,1,0
1529296759074871,-1,0,3,-6,8,5,-1,0
1529296759074871,1,2,-12,2,3,1,1,-1
1529296759081853,-2,6,-4,0,-2,-1,0,-2
1529296759081853,1,-7,11,4,1,-3,-2,0
1529296759096812,0,-3,-2,-2,-5,2,0,2
1529296759096812,1,-4,0,8,3,1,1,1
1529296759104790,-7,3,-4,-4,-3,-5,-2,-3
1529296759104790,3,6,15,2,-1,0,1,-1
1529296759111770,4,-2,11,9,-6,-2,2,0
1529296759111770,0,2,-6,-3,7,0,-1,0
1529296759126730,-5,-17,11,-6,-18,-2,-1,-2
1529296759126730,-2,6,-16,2,-7,-2,1,-1
1529296759134710,3,5,-2,0,6,1,0,1
1529296759134710,-3,-1,11,-2,-2,-1,-1,-1
1529296759149671,2,3,-8,-5,7,3,0,-2
1529296759149671,-2,6,8,0,-7,-1,-3,-2
1529296759156651,-3,-22,-4,-4,2,-1,-2,-2
1529296759156651,-8,-1,10,1,-11,-1,0,0
1529296759171612,3,9,2,3,0,1,0,3
1529296759171612,-1,2,-12,0,2,-1,0,-1
1529296759186570,-3,-14,-17,-2,-5,0,-2,-1
1529296759186570,-3,-11,7,-10,-3,-3,0,-3
1529296759197548,3,12,21,17,0,2,2,1
1529296759197548,-2,4,-8,0,2,0,0,-1
1529296759209509,3,18,16,-1,3,0,-1,2
1529296759209509,-1,-9,-9,-5,5,0,-1,0
1529296759216491,-6,-24,-19,-7,-2,-1,-2,-3
1529296759216491,-1,3,16,3,5,-1,0,-4
1529296759231450,-4,4,8,-4,-2,-2,0,-2
1529296759231450,1,-5,-19,-3,-1,0,-1,0
1529296759246411,-1,-1,-2,-5,-9,-3,0,-1
1529296759246411,-3,6,21,13,9,2,2,0
1529296759269350,5,2,-22,-6,3,-1,-1,0
1529296759269350,-2,6,33,4,6,1,-1,1
1529296759276331,-2,-4,-9,-6,-5,-1,-2,-4
1529296759276331,-5,-10,-8,-2,-4,1,-1,-1
1529296759284310,-3,-19,-8,-2,1,1,-1,-2
1529296759284310,3,19,-4,-1,0,-1,-1,1
1529296759292332,-1,0,15,5,-4,0,1,0
1529296759292332,-1,-6,-2,0,4,1,-1,-1
1529296759307291,-2,-5,-9,1,-3,-1,0,-1
1529296759307291,0,3,-2,-9,-10,-5,-2,-2
1529296759314284,-1,0,-4,-4,7,0,-1,0
1529296759314284,2,0,-14,-1,-6,-3,-1,-3
1529296759329191,1,4,14,-5,4,2,0,2
1529296759329191,-3,4,11,11,6,0,-1,0
1529296759337169,-2,4,13,-1,-5,-5,-3,-3
1529296759337169,-1,-17,-5,-4,-19,0,1,0
1529296759352129,-1,5,7,3,4,-1,-2,-2
1529296759352129,-5,-2,-3,-3,6,1,0,-1
1529296759367124,-3,-30,-8,9,9,0,-2,0
1529296759367124,-6,-1,-8,-25,-35,-8,-1,-3
1529296759374099,4,23,12,10,15,1,-1,3
1529296759374099,3,3,-1,6,7,2,1,1
1529296759389030,-2,-1,3,4,2,3,-1,0
1529296759389030,0,2,2,4,6,3,0,-1
1529296759397009,-5,-16,-26,-13,-10,-2,-2,-5
1529296759397009,-4,-7,-8,-3,-5,-2,-3,-3
1529296759411971,-1,4,-3,-9,-14,0,0,1
1529296759411971,2,-2,14,1,1,0,0,1
1529296759426929,1,7,-23,-2,3,-1,-2,-1
1529296759426929,-2,-6,6,8,-11,-3,-2,-1
1529296759433909,1,-3,-2,0,-13,-3,1,-1
1529296759433909,-5,-4,-8,-7,6,0,-1,-2
1529296759448872,2,2,-1,2,8,0,1,0
1529296759448872,-6,2,-17,-10,-4,-2,0,-2
1529296759456850,0,-7,13,3,-2,0,-1,-2
1529296759456850,-3,-2,-11,-4,-7,-4,0,1
1529296759471835,-1,8,8,3,3,0,-1,-1
1529296759471835,0,9,-5,4,10,2,-1,-2
1529296759486770,-6,-19,-6,-4,3,0,-2,-1
1529296759486770,3,12,9,7,-2,2,0,2
1529296759494753,4,-2,0,-5,-1,-1,0,1
1529296759494753,-2,0,0,1,-14,-2,1,-3
1529296759509709,-8,-11,-8,-6,10,-3,-2,-4
1529296759509709,-3,-10,-4,-2,-2,-2,-2,-1
1529296759516748,2,9,-7,-1,10,3,0,0
1529296759516748,6,17,28,6,-8,-4,-1,1
1529296759531650,-2,-7,-11,-6,-15,-1,1,-2
1529296759531650,-7,-9,3,-11,-3,2,-2,-1
1529296759546863,-3,-8,-9,8,16,4,0,-1
1529296759546863,2,-7,-21,-6,-12,-5,-2,0
1529296759561568,-7,-16,-1,4,-3,-1,-1,-2
1529296759561568,-2,-6,11,1,-1,0,0,-1
1529296759576531,4,6,-6,1,-2,0,-1,2
1529296759576531,2,14,8,-6,0,1,1,0
1529296759584510,-3,-2,-8,1,-10,-4,-2,-1
1529296759584510,-2,-18,-6,-1,14,5,-1,-1
1529296759599740,3,12,-2,-2,2,-2,-2,1
1529296759599740,-6,-20,-7,-1,5,1,1,-1
1529296759614427,2,6,16,-1,-17,-3,0,0
1529296759614427,0,7,11,1,8,0,0,-1
1529296759629639,-5,-11,3,-4,3,-1,1,-5
1529296759629639,-5,3,-15,-3,3,-1,-2,-3
1529296759637382,2,-12,5,3,-10,0,1,2
1529296759637382,4,12,5,-1,7,0,-1,1
1529296759652325,2,15,7,4,2,-1,-1,-1
1529296759652325,-4,-17,-4,1,6,2,0,-1
1529296759659332,0,-1,-8,-10,-12,-3,-2,-1
1529296759659332,-5,-11,-33,-1,-8,-1,-1,-2
1529296759674804,-7,-6,4,-1,13,1,-1,0
1529296759674804,2,8,29,3,-4,-2,0,-2
1529296759689861,-1,-3,-23,-1,9,3,0,1
1529296759689861,-3,-8,2,1,-12,-5,-3,-2
1529296759697651,6,12,-5,7,-3,-4,0,0
1529296759697651,-2,-4,-10,-3,0,1,1,1
1529296759711586,2,8,1,3,1,-1,-2,0
1529296759711586,-1,-10,2,1,-1,0,1,-1
1529296759719566,-6,-15,-10,-9,-10,1,-1,-3
1529296759719566,4,18,-2,-7,1,-2,-2,-2
1529296759734524,-6,-3,-6,-3,-12,-8,-2,0
1529296759734524,2,-4,4,-3,-2,0,-2,0
1529296759749484,-2,-5,3,0,-4,-2,-3,-4
1529296759749484,0,1,1,9,21,3,1,-3
1529296759756495,5,14,15,-2,-18,-4,-1,1
1529296759756495,-1,-2,-20,-6,14,5,0,0
1529296759771427,-3,-1,14,-1,-26,-6,-2,0
1529296759771427,1,-5,-2,9,7,1,-3,0
1529296759779405,0,-6,-7,0,9,3,1,2
1529296759779405,-1,7,13,-3,4,-7,-2,0
1529296759787517,-1,-5,-17,-10,1,2,0,-1
1529296759787517,-2,3,-1,-4,-13,-2,-2,-1
1529296759794606,1,8,16,4,13,4,2,1
1529296759794606,-1,-3,1,8,-12,-1,-3,-1
1529296759809324,-1,-7,-9,0,1,-2,-2,0
1529296759809324,2,10,17,-8,-8,-5,-1,-1
1529296759824303,-7,-13,-37,-5,10,2,-1,-3
1529296759824303,-6,-16,3,-5,1,0,1,-1
1529296759839490,8,30,35,11,-3,0,1,1
1529296759839490,2,6,3,-2,-3,-4,-2,-1
1529296759847452,0,3,11,-8,-13,-1,0,-2
1529296759847452,0,-5,-20,4,9,3,1,-1
1529296759854205,-4,-19,0,-5,-10,-2,0,-2
1529296759854205,-5,-15,-16,-4,-10,-1,-2,-4
1529296759862675,-4,0,-3,-3,1,-1,-2,-4
1529296759862675,8,6,5,4,-17,-3,0,0
1529296759877593,-4,-6,33,0,1,-6,-2,-4
1529296759877593,-5,-11,-29,3,-9,0,-3,-2
1529296759891943,-2,-3,3,-4,-5,-2,-2,-2
1529296759891943,7,18,8,-2,-5,-2,2,5
1529296759899246,5,9,4,5,3,3,0,2
1529296759899246,-2,-10,-12,-9,-8,-5,-1,0
1529296759906998,-2,-3,-16,8,1,-1,-1,0
1529296759906998,-10,-17,-10,-4,3,2,-2,-3
1529296759915012,0,-2,-16,3,6,-1,0,-1
1529296759915012,4,17,26,-5,-2,2,-1,1
1529296759929988,-2,-8,-10,-8,-28,-10,-2,0
1529296759929988,-1,1,11,-1,2,2,0,-1
1529296759937120,-2,-7,-3,0,0,-3,-1,-2
1529296759937120,-11,-4,-14,-1,8,-3,-1,-2
1529296759951840,2,-1,8,-1,-3,2,-1,1
1529296759951840,5,7,6,4,-7,1,2,4
1529296759959858,-2,5,-17,-7,4,0,-1,-4
1529296759959858,-2,-14,-3,-1,-4,-3,-1,-3
1529296759966800,10,10,2,-2,9,1,1,2
1529296759966800,-2,6,13,3,5,3,2,-2
1529296759974778,2,0,-22,-6,-1,-2,-3,-1
1529296759974778,-4,-3,29,6,-1,1,-1,-3
1529296759989769,-3,-9,-20,2,-2,-1,-1,-2
1529296759989769,0,-4,4,-1,3,-1,0,1
1529296759996750,0,2,1,6,4,1,1,1
1529296759996750,-2,3,-25,-3,-9,-4,-1,1
1529296760019901,0,5,29,1,8,0,0,-1
1529296760019901,-7,-2,-13,-10,-24,-5,-4,-1
1529296760026880,1,-8,10,3,-1,0,0,1
1529296760026880,8,10,1,12,22,7,3,2
1529296760034618,-2,-4,-13,-24,-39,-12,-2,-3
1529296760034618,-5,1,-9,3,5,1,-1,-2
1529296760041841,-9,-9,4,-1,2,2,0,-1
1529296760041841,7,11,-5,-1,5,0,-1,1
1529296760056799,0,-6,-12,2,-1,2,1,-3
1529296760056799,-1,0,2,-2,-7,-2,0,-1
1529296760071519,2,10,6,-2,7,2,1,-1
1529296760071519,3,0,6,0,1,-2,-1,1
1529296760079497,-5,-2,-1,-1,3,0,1,-2
1529296760079497,-3,2,10,-1,-4,-1,-1,-3
1529296760086535,-3,-4,13,7,0,2,-1,-1
1529296760086535,-2,-5,-8,-3,-9,-1,-1,-2
1529296760094458,5,4,3,4,15,1,2,1
1529296760094458,0,-7,-2,-11,-7,-3,0,1
1529296760109418,-4,-1,-10,-4,3,0,-1,1
1529296760109418,-6,-5,-5,5,3,3,-1,-5
1529296760116399,7,4,4,-4,-7,-1,-1,0
1529296760116399,-6,-2,0,4,0,-4,3,4
1529296760131359,4,-6,-4,-4,-12,1,-5,-1
1529296760131359,-4,-3,-13,-3,-1,-5,0,0
1529296760139339,4,19,24,0,-3,0,0,-1
1529296760139339,-1,0,10,-5,11,4,0,0
1529296760146320,-1,2,3,3,2,-3,1,-1
1529296760146320,1,0,-7,-2,1,1,1,-2
1529296760154299,-5,-14,-17,-4,-8,-3,-5,0
1529296760154299,-1,-3,3,3,-8,-2,-1,-2
1529296760169268,-4,-4,9,-3,6,0,2,0
1529296760169268,5,1,-4,5,4,0,-2,1
1529296760177282,0,-1,-10,2,8,1,1,2
1529296760177282,2,3,4,-2,-5,-1,-1,2
1529296760192644,1,3,4,-2,-13,-3,-1,-2
1529296760192644,-2,-7,2,5,17,2,1,0
1529296760200215,-3,-2,-2,-9,-35,-4,0,0
1529296760200215,1,1,-12,3,23,3,-2,0
1529296760207585,-3,-3,-16,4,11,3,0,-2
1529296760207585,-2,3,2,-1,-15,-5,-3,-1
1529296760214696,0,-3,7,-5,-2,-4,0,2
1529296760214696,1,6,3,-6,-14,-2,-2,-1
1529296760229974,-3,0,-4,1,26,2,-2,1
1529296760229974,2,7,-1,7,-23,-5,0,1
1529296760237621,-3,-11,-3,1,14,3,0,-2
1529296760237621,-2,-5,-1,-6,-5,-3,-2,-2
1529296760252583,0,1,-4,1,23,2,-1,-1
1529296760252583,1,-5,-1,-3,-17,-8,-2,-3
1529296760259548,1,9,6,6,-6,1,1,-1
1529296760259548,-2,-4,-8,1,5,1,0,0
1529296760267493,-4,-1,-4,-9,2,3,1,-2
1529296760267493,-1,-4,4,-3,7,-1,2,1
1529296760274737,1,6,1,0,7,1,-1,1
1529296760274737,-1,-4,-14,4,-4,3,-1,0
1529296760289674,-2,0,8,6,-19,-5,0,2
1529296760289674,6,2,-17,3,22,6,2,2
1529296760296961,-2,6,36,3,-5,-4,-2,0
1529296760296961,-1,-1,12,-4,-17,-6,-2,-2
1529296760312264,-5,-3,-18,-6,-1,0,-1,-2
1529296760312264,1,-8,-2,-5,1,1,0,1
1529296760318978,3,6,-20,-1,5,1,-1,1
1529296760318978,1,-4,7,4,10,4,-1,-2
1529296760326972,-2,-1,9,2,-18,-5,-2,-2
1529296760326972,-4,0,-3,8,19,4,0,-4
1529296760333900,-2,-10,-16,-8,1,1,-1,-2
1529296760333900,0,3,4,-1,-4,1,0,1
1529296760348859,5,-1,3,1,0,0,1,-1
1529296760348859,2,7,10,6,16,4,1,0
1529296760356839,-2,-6,-9,-1,4,-2,1,0
1529296760356839,-6,-6,-8,-6,-6,-2,0,-3
1529296760371799,-1,5,17,9,9,2,0,0
1529296760371799,0,-9,-1,-11,-7,-1,0,2
1529296760379815,1,15,8,5,-1,-2,0,0
1529296760379815,5,1,-7,1,-2,-2,-1,1
1529296760386811,-4,-9,-12,-2,-5,0,-1,-1
1529296760386811,-2,1,5,-2,-12,-4,-2,1
1529296760394791,-1,-8,-7,-5,0,2,1,0
1529296760394791,-1,-5,4,-2,13,2,-1,-3
1529296760409753,-1,1,-14,-2,-18,-2,-1,-4
1529296760409753,-3,2,20,-2,-16,-4,-1,-1
1529296760416732,4,2,-2,10,22,0,-1,0
1529296760416732,5,15,30,-2,6,4,1,2
1529296760431696,0,-5,-10,-4,-1,-2,-2,1
1529296760431696,-6,-9,-20,-7,-11,-2,-2,-2
1529296760439670,-3,-4,-13,-3,-5,-2,-2,-3
1529296760439670,-2,0,17,5,7,-1,0,-4
1529296760446651,-1,-5,1,3,8,4,2,3
1529296760446651,0,3,-7,-5,-4,-4,-2,-1
1529296760454631,-3,-5,-4,0,-4,0,0,-2
1529296760454631,1,0,-8,-4,-11,-3,-1,-2
1529296760469591,-1,1,-6,-4,-6,-3,1,1
1529296760469591,2,-3,-1,-4,11,3,2,-1
1529296760476572,-3,-6,-7,-2,-21,-6,0,-1
1529296760476572,-5,-14,-14,1,0,2,-1,-2
1529296760491532,7,32,73,9,8,-5,-2,0
1529296760491532,3,-2,-5,-5,-15,2,-1,-1
1529296760499511,-1,1,-2,-7,-5,1,-1,1
1529296760499511,-1,-7,-39,-3,-2,-2,0,0
1529296760506492,-1,-14,-17,-1,-4,0,-1,0
1529296760506492,-4,-7,27,1,10,2,-3,-3
1529296760514472,0,11,22,12,2,0,0,-1
1529296760514472,0,3,0,-10,-5,-6,-2,0
1529296760529433,3,1,-25,-5,1,1,-1,1
1529296760529433,-2,3,0,1,1,0,0,-1
1529296760537405,-3,-17,-28,-3,9,3,0,-2
1529296760537405,-4,1,15,9,9,3,-2,-1
1529296760552316,0,5,16,-7,-26,-7,-3,-3
1529296760552316,1,3,0,4,5,-1,-1,3
1529296760559350,-4,-4,3,-1,-3,0,-2,-1
1529296760559350,-5,-9,-9,4,1,0,-1,-2
1529296760567277,-4,-3,-2,-6,4,0,-2,-1
1529296760567277,1,5,-20,0,-2,-2,0,0
1529296760574318,6,18,15,-3,8,1,0,-1
1529296760574318,3,-5,5,-3,-5,-3,-3,0
1529296760589217,-6,-15,-28,-2,4,3,1,0
1529296760589217,-4,4,-1,0,0,-2,1,0
1529296760597248,-3,-2,25,6,-3,-3,-1,-1
1529296760597248,-10,11,7,1,0,-1,0,-2
1529296760612210,11,0,-12,-2,3,3,0,-2
1529296760612210,5,9,23,3,-9,-3,1,2
1529296760619161,-3,-12,-15,-4,2,1,-1,-3
1529296760619161,0,-5,4,3,-8,-4,-1,1
1529296760627149,-8,-1,-9,4,3,-3,-1,-1
1529296760627149,-1,-5,0,-4,4,1,-2,-3
1529296760634097,4,3,-1,-4,-1,-1,1,2
1529296760634097,3,-2,-8,-3,-6,-4,-1,1
1529296760649060,6,10,24,10,5,1,0,2
1529296760649060,0,-3,-8,-6,-1,2,0,0
1529296760657038,-3,0,0,-3,-10,-2,-1,-1
1529296760657038,1,-12,-22,-5,5,1,1,-1
1529296760672280,-2,-5,-13,0,-8,-3,-1,-1
1529296760672280,1,8,20,4,1,0,0,-1
1529296760680203,2,7,-6,-6,-18,-4,-1,-1
1529296760680203,-1,5,11,0,17,2,2,1
1529296760687198,-8,-2,4,-3,1,-1,2,-3
1529296760687198,8,-7,-21,-3,4,1,-3,-1
1529296760695118,-4,-8,5,0,0,-1,-2,-1
1529296760695118,3,13,27,1,-4,-1,-2,0
1529296760709463,-4,-1,2,-1,-3,-2,1,1
1529296760709463,-13,0,-5,-1,-2,1,2,-1
1529296760717501,12,-3,-12,-3,-2,-1,0,-3
1529296760717501,-5,-10,-11,-2,-8,-3,-1,-3
1529296760732134,-5,-3,1,0,-4,-4,-2,-2
1529296760732134,3,-1,-2,3,-4,1,0,1
1529296760739384,-2,6,3,0,13,0,-1,1
1529296760739384,-1,5,0,-4,-12,-2,1,-3
1529296760747652,1,-5,-17,-3,8,4,2,-2
1529296760747652,-3,-4,5,-1,-8,-7,-1,-1
1529296760754838,0,4,12,2,0,0,-1,3
1529296760754838,6,4,8,3,-9,0,0,1
1529296760769685,0,-4,-7,-2,3,1,-2,0
1529296760769685,-2,-10,-8,1,8,1,-1,-3
1529296760784329,-5,-4,-7,0,6,1,0,0
1529296760784329,1,8,1,4,-4,-1,-1,1
1529296760792308,1,-8,-2,1,-2,-1,-2,-1
1529296760792308,-2,-1,-4,-4,-10,-2,-1,1
1529296760807304,1,2,5,-2,-1,-1,-1,1
1529296760807304,-1,1,0,1,3,0,-1,-2
1529296760822460,-2,-2,-3,-1,-8,-1,0,-2
1529296760822460,-5,-10,-30,-10,4,2,0,-3
1529296760829448,4,7,47,9,1,-2,0,0
1529296760829448,3,2,-13,-6,-2,-1,2,1
1529296760844682,-1,1,20,0,2,-1,-2,0
1529296760844682,-3,-8,-15,-3,0,-2,-1,-1
1529296760852626,1,-5,-16,0,-8,0,0,0
1529296760852626,3,5,13,2,3,1,1,1
1529296760866947,-6,2,-17,-4,-7,-2,-2,-2
1529296760866947,-1,-7,3,0,0,-1,-1,-3
1529296760882175,2,6,-21,-2,-4,-1,1,-1
1529296760882175,3,6,40,7,1,1,-1,0
1529296760889464,-2,-5,-13,-2,7,1,-2,-3
1529296760889464,-1,3,2,-1,1,-1,-1,0
1529296760912472,-3,-9,-5,1,-8,-2,-1,-2
1529296760912472,0,-3,-6,0,11,4,-1,0
1529296760919701,-1,0,-10,-7,0,0,-1,-1
1529296760919701,-2,0,-3,0,0,-1,-1,0
1529296760934213,0,-1,3,-2,1,-1,2,0
1529296760934213,0,-1,-5,-6,-1,-2,-2,-1
1529296760949755,0,-2,2,-1,-3,-3,-1,1
1529296760949755,0,-1,-2,1,-2,-1,-3,0
1529296760965035,1,2,3,-2,2,0,-1,0
1529296760965035,-1,-4,-3,-1,0,-1,0,0
1529296760972093,-1,-2,-2,-2,-2,0,-2,-1
1529296760972093,1,3,3,3,-2,-2,-1,0
1529296760987165,0,0,3,3,-1,-1,-1,-1
1529296760987165,-5,-2,-4,3,1,0,-3,-4
1529296761002174,-3,-1,-1,2,0,0,8,0
1529296761002174,3,6,3,1,-3,-1,-4,2
1529296761009195,-2,0,-2,-2,0,1,-12,-3
1529296761009195,1,-3,1,-2,0,-1,-2,-2
1529296761024172,-1,-3,-2,-6,-2,1,-5,-4
1529296761024172,-1,-2,1,-1,1,2,7,0
1529296761039407,-1,0,7,8,-2,-3,9,2
1529296761039407,-1,-3,-5,-9,-1,2,-7,0
1529296761055096,-1,-3,-9,-7,-5,2,1,0
1529296761055096,-1,0,0,5,-2,-4,-3,-2
1529296761062013,-1,-1,6,3,-3,0,0,0
1529296761062013,2,-1,-8,-11,-1,2,2,2
1529296761077294,-2,-3,-3,0,0,0,0,-1
1529296761077294,-1,1,6,13,2,-4,2,1
1529296761091934,0,1,1,-3,2,-1,0,0
1529296761091934,-2,-2,-1,-5,-2,1,2,1
1529296761107179,-2,-4,-3,-3,-1,-1,-1,0
1529296761107179,-2,-6,0,0,-2,-1,0,-1
1529296761114483,2,9,5,-2,-2,-1,3,0
1529296761114483,-1,-2,1,-1,0,3,0,-2
1529296761130010,0,-4,-5,-8,-1,0,-3,-2
1529296761130010,3,3,3,4,1,-1,0,0
1529296761145021,0,0,4,3,2,1,-1,-2
1529296761145021,-3,-1,-5,-3,-1,0,-2,-3
1529296761151758,0,-2,-5,-1,2,1,1,-1
1529296761151758,0,1,0,2,-5,-2,1,-2
1529296761167012,-3,-8,-1,-2,-2,0,0,-1
1529296761167012,-4,-2,-2,0,1,-1,-1,0
1529296761182740,3,6,3,0,-5,-2,-2,2
1529296761182740,0,1,4,0,0,0,-1,1
1529296761189714,0,-4,-2,-3,-1,-3,-1,-1
1529296761189714,-4,-7,-8,-4,-1,-2,-1,-3
1529296761204385,-3,-3,4,0,0,1,-1,0
1529296761204385,2,6,4,2,-2,2,-1,0
1529296761212585,0,0,1,-4,-1,0,-2,0
1529296761212585,-1,-6,-4,0,-2,-3,-1,-2
1529296761226809,0,7,31,0,2,8,2,0
1529296761226809,2,4,-5,-2,-1,-10,0,1
1529296761249387,-4,-6,-2,4,-2,-8,-3,-3
1529296761249387,2,4,18,-1,-1,-2,-2,0
1529296761257480,3,1,-4,7,2,5,2,0
1529296761257480,1,16,18,1,-1,4,2,2
1529296761272316,-2,-10,-14,-6,0,0,0,0
1529296761272316,-2,-8,-16,-3,-1,-6,-2,-1
1529296761280093,0,-1,-6,0,-2,-2,-2,-1
1529296761280093,0,-5,5,2,1,-1,1,0
1529296761294260,-4,-7,-8,-5,2,0,-2,-1
1529296761294260,2,-2,-5,1,-1,1,-3,-1
1529296761309483,-3,0,-10,1,-1,-3,-1,-1
1529296761309483,0,-5,-4,-3,0,2,0,-1
1529296761324189,-2,2,6,1,3,3,0,-1
1529296761324189,-1,1,-1,1,-2,0,1,-1
1529296761332407,-4,-4,-8,0,-2,-4,0,-2
1529296761332407,0,4,6,-1,2,0,0,-1
1529296761347379,-3,-6,-5,3,-2,-2,-1,1
1529296761347379,-1,3,-2,-1,-2,-1,-2,-2
1529296761362307,-1,0,-1,-2,-1,0,1,1
1529296761362307,-1,-3,0,-5,1,-1,0,-2
1529296761370081,0,1,2,1,0,-3,-2,-1
1529296761370081,-1,-3,-2,1,-1,-2,-2,1
1529296761384026,-1,-3,-1,-3,-1,0,-2,-1
1529296761384026,-2,1,0,-4,1,-1,-2,-1
1529296761392517,-7,0,1,-1,0,-1,-1,-1
1529296761392517,5,-2,-3,-1,0,1,0,3
1529296761407484,1,1,-1,3,-2,-3,5,-2
1529296761407484,-5,-1,-2,-1,-2,0,-8,-3
1529296761422499,-4,-3,-2,-2,-4,0,2,-1
1529296761422499,1,-3,-5,-2,-4,1,-2,-2
1529296761429727,5,-1,-5,-4,-4,-2,2,3
1529296761429727,-1,-5,-4,-3,0,2,4,-1
1529296761444429,1,-1,4,2,1,0,-2,0
1529296761444429,-1,-1,-2,1,0,-1,2,0
1529296761451407,0,0,-1,2,-1,-1,-4,-3
1529296761451407,-1,-3,-6,0,-1,-1,-2,-2
1529296761466768,3,-1,-1,-1,0,2,-2,2
1529296761466768,-3,0,2,2,2,2,-1,0
1529296761482422,-1,0,-1,-3,-1,0,0,-1
1529296761482422,-2,-1,-1,-2,-1,-2,-3,-1
1529296761489400,-1,-2,0,-5,1,-1,-2,-2
1529296761489400,0,-1,1,-3,0,-1,1,0
1529296761504363,-2,1,0,3,-3,0,0,0
1529296761504363,0,4,2,1,0,-1,0,-1
1529296761512456,-1,1,0,-1,-2,-1,-1,0
1529296761512456,-2,-4,-3,-1,-2,0,0,0
1529296761526592,-2,-3,-1,-2,-1,-1,2,0
1529296761526592,0,-1,-2,0,-1,-2,0,-2
1529296761541557,-1,-2,-2,0,-2,-1,-1,-2
1529296761541557,-1,0,-1,-1,1,0,1,-1
1529296761549536,-2,0,-1,-2,-1,-2,-2,-2
1529296761549536,0,1,2,-2,-2,0,0,0
1529296761564752,1,1,-1,-3,-1,-1,-2,-3
1529296761564752,0,0,2,-1,-1,0,-1,0
1529296761572545,0,-1,-1,-2,-2,1,-2,-2
1529296761572545,-1,-3,-1,3,-2,0,0,0
1529296761587246,-1,0,-2,-5,0,-1,0,1
1529296761587246,-2,-1,1,-3,0,-2,-1,-1
1529296761601981,-2,-1,0,0,-1,-2,0,-3
1529296761601981,1,-1,-4,-3,-5,0,-1,-2
1529296761610096,0,2,-1,2,0,0,0,0
1529296761610096,-1,-1,2,3,0,1,-1,0
1529296761624183,-1,-2,0,5,-1,-1,0,0
1529296761624183,-2,0,-1,0,-1,0,0,-1
1529296761632164,0,-1,0,0,0,-1,-1,0
1529296761632164,-2,-1,-2,-3,-3,-3,-2,-2
1529296761647372,1,0,2,-1,-2,-1,-2,-1
1529296761647372,-1,0,-2,0,0,-3,-1,1
1529296761662466,1,0,-3,-3,-1,-2,0,1
1529296761662466,-2,-1,-1,0,-1,-2,0,1
1529296761669539,0,-2,0,2,-1,0,1,-1
1529296761669539,0,0,-2,3,-2,0,0,-2
1529296761684281,0,-2,-1,-3,0,0,-1,-1
1529296761684281,0,-1,0,-1,0,-1,-1,0
1529296761692589,-1,0,-2,2,1,-3,-2,-1
1529296761692589,-1,-2,0,-2,-1,-2,-1,-1
1529296761707506,0,2,4,0,-1,1,0,2
1529296761707506,3,2,-1,1,0,0,1,0
1529296761722476,-1,0,-1,-2,-1,-1,-1,-1
1529296761722476,-1,0,0,-2,0,-1,0,-1
1529296761729441,-2,-2,-2,0,-1,-2,-3,-2
1529296761729441,-2,-2,1,-3,0,1,1,-1
1529296761744618,0,1,-1,-1,-2,-1,1,-1
1529296761744618,0,0,3,1,-1,0,-1,-1
1529296761751605,0,-2,0,-2,1,0,-1,0
1529296761751605,0,-3,-3,-1,0,-1,-1,-2
1529296761766785,-1,-1,-1,0,-1,2,-3,1
1529296761766785,-2,-1,-4,1,-2,-3,0,2
1529296761774764,0,1,-1,-1,0,1,1,-1
1529296761774764,-1,-1,-2,-1,1,1,-1,-2
1529296761789298,1,-1,-3,1,-2,-2,0,-3
1529296761789298,0,-1,-2,-3,-3,-2,-2,-1
1529296761804573,-1,0,0,2,0,-2,-1,-1
1529296761804573,1,0,0,1,-1,1,-1,-3
1529296761812552,-1,-1,0,-6,-2,-1,-2,0
1529296761812552,0,1,1,0,0,-1,0,0
1529296761827246,-1,-1,1,-2,2,2,-2,-2
1529296761827246,1,0,-3,-2,0,-1,1,1
1529296761834227,0,-2,-2,0,-1,1,1,1
1529296761834227,-2,1,-1,4,-2,-2,0,0
1529296761849191,1,1,-2,-2,-2,-3,0,0
1529296761849191,0,1,2,-3,-1,-1,0,2
1529296761864151,0,0,-1,4,-2,-2,1,1
1529296761864151,-2,-2,-2,-2,-2,-1,-1,0
1529296761872377,-2,-4,-2,-4,-1,-1,-2,-1
1529296761872377,0,4,4,-1,0,0,0,-3
1529296761887086,-2,-1,-3,-2,-1,-1,-1,-1
1529296761887086,1,-2,4,-1,0,0,-2,-1
1529296761894311,-3,-2,-4,-1,-1,-1,-1,-1
1529296761894311,1,-3,-4,-4,0,-2,-1,-1
1529296761910120,0,0,2,2,0,0,-2,0
1529296761910120,-2,-1,-2,0,-1,0,0,1
1529296761925162,0,-1,2,4,1,-1,-1,-1
1529296761925162,0,0,-6,1,0,1,-1,-2
1529296761932214,1,1,7,-2,0,0,-1,0
1529296761932214,1,0,0,-4,-2,0,-2,-2
1529296761947171,0,0,-1,-3,-2,-1,0,0
1529296761947171,-1,2,-2,2,0,-2,-1,-1
1529296761955093,-2,0,-4,0,0,0,0,-1
1529296761955093,-2,-1,-2,-2,1,0,0,-1
1529296761969399,0,0,-1,-1,0,-1,-1,0
1529296761969399,1,-2,0,-1,0,-1,-1,-1
1529296761992586,0,-2,0,0,0,-2,-3,-1
1529296761992586,0,0,0,-2,-4,2,-1,0
1529296761999567,-1,-2,-2,1,-2,2,0,-1
1529296761999567,0,-1,-1,4,1,0,-1,1
1529296762014414,-1,-1,-2,1,0,-1,0,1
1529296762014414,0,0,-1,-3,-2,-3,-3,0
1529296762022386,0,0,1,1,1,-2,-2,0
1529296762022386,0,0,-3,2,-2,1,1,-1
1529296762037359,-1,0,-2,0,0,-1,1,-2
1529296762037359,-1,-2,0,-5,-1,-3,-2,0
1529296762060097,-1,-2,-3,-2,-3,0,2,-1
1529296762060097,-1,0,-1,0,0,0,-1,0
1529296762074252,-1,1,1,4,0,-1,1,-2
1529296762074252,-2,-1,-2,4,-1,-1,-1,1
1529296762082269,-1,0,-3,3,2,0,-1,0
1529296762082269,-1,-2,-1,0,0,-1,-2,-1
1529296762097492,-1,0,0,-5,-3,0,0,0
1529296762097492,0,1,-2,-2,0,-1,0,-2
1529296762112483,1,1,2,-1,-1,-2,-2,-1
1529296762112483,0,-1,0,0,-2,-1,-2,-1
1529296762126518,0,-1,-2,2,1,0,1,-1
1529296762126518,-1,-1,0,2,0,0,-1,-1
