timestamp,emg1,emg2,emg3,emg4,emg5,emg6,emg7,emg8
1528281888340289,-2,-2,-1,1,0,2,-1,-2
1528281888340289,0,-3,1,0,-2,-1,-2,0
1528281888346252,1,-1,-2,-1,-2,-1,-1,1
1528281888346252,1,-2,-2,-1,-3,0,0,-1
1528281888355238,-1,-1,-2,-2,-1,2,1,-1
1528281888355238,-2,-1,-1,-3,0,1,-1,-1
1528281888369191,-3,-1,0,0,0,-1,2,-2
1528281888369191,-1,0,-2,-1,1,0,0,0
1528281888376171,1,0,1,1,-1,-2,-2,0
1528281888376171,1,0,-1,0,-1,1,-1,0
1528281888383153,0,-2,0,-1,-1,-2,-2,0
1528281888383153,-3,-3,1,0,-1,-5,-3,0
1528281888400109,-1,-1,0,0,1,-3,0,-2
1528281888400109,0,-1,-1,0,-1,1,0,-1
1528281888406093,0,0,-1,-1,-1,1,-3,-1
1528281888406093,1,1,-1,-1,0,1,0,0
1528281888421054,-2,-1,0,-1,-1,-2,-1,1
1528281888421054,-2,1,0,-1,0,0,0,1
1528281888429031,0,-3,2,0,1,0,1,-1
1528281888429031,-2,-1,-2,-1,0,0,0,-1
1528281888437009,0,-1,1,-2,-1,1,0,-2
1528281888437009,0,-1,-2,0,0,-2,0,-3
1528281888443992,-1,-2,0,0,-1,-5,-2,-1
1528281888443992,0,-2,1,-1,1,-2,-1,1
1528281888458951,0,0,0,-1,-1,-2,-3,2
1528281888458951,1,-2,-2,-1,-1,2,-2,2
1528281888465959,0,0,-2,-1,-1,0,-2,-1
1528281888465959,0,0,-1,1,-2,0,0,-2
1528281888474907,-1,0,1,-1,-1,-1,-1,0
1528281888474907,-1,-1,0,0,-2,-2,-1,1
1528281888488910,1,-2,-1,-2,0,0,-1,-1
1528281888488910,0,0,-1,-3,-1,0,-2,-1
1528281888495888,1,0,-1,-1,0,-1,-2,1
1528281888495888,-1,0,0,0,-1,-3,-1,-1
1528281888503830,-1,1,0,0,1,0,3,0
1528281888503830,-1,-2,0,0,-1,-1,0,0
1528281888518790,-1,0,-2,-1,0,1,0,1
1528281888518790,-1,-2,-2,0,-2,1,0,1
1528281888525811,-1,-1,0,-1,-1,-4,-1,-2
1528281888525811,1,-1,-1,0,0,-1,-2,-2
1528281888534763,-1,-1,-1,-1,-2,0,-1,1
1528281888534763,-1,-1,-1,-2,1,0,-1,-1
1528281888548727,1,0,-2,-1,-2,-1,2,0
1528281888548727,-1,2,0,0,-1,0,0,0
1528281888555710,2,-1,-1,-1,0,-1,-2,-2
1528281888555710,1,-2,0,1,1,-1,-2,0
1528281888563671,-1,-1,-2,-1,0,1,-2,1
1528281888563671,-1,0,-1,-1,0,-2,3,1
1528281888578659,-1,0,-1,-2,-3,1,-1,0
1528281888578659,-1,-1,-1,-1,1,0,-1,0
1528281888585649,-2,0,-1,-1,0,2,-3,-1
1528281888585649,0,1,1,-1,-1,0,-1,0
1528281888594615,-1,0,-1,0,0,-1,0,0
1528281888594615,2,0,0,-1,-2,-3,1,-1
1528281888609549,0,2,-1,-1,-2,-1,-3,1
1528281888609549,-1,-3,-2,-1,-1,0,-1,-2
1528281888616550,-1,0,0,0,0,-2,2,-1
1528281888616550,-2,0,0,-1,1,-3,-2,-1
1528281888623511,-2,-3,-2,-1,-1,-1,0,-1
1528281888623511,-1,-1,0,-1,-3,-2,-1,1
1528281888638470,0,-1,-1,1,-1,-1,-1,0
1528281888638470,0,2,0,-1,-1,1,0,0
1528281888646449,0,1,0,0,-1,2,0,1
1528281888646449,0,-2,-2,0,-1,1,-3,0
1528281888655466,-1,-1,0,-1,0,0,-1,-1
1528281888655466,-2,-3,-1,0,1,0,1,-1
1528281888669415,1,-3,0,-1,0,-1,0,-1
1528281888669415,-2,0,0,0,-1,0,1,-1
1528281888676391,-1,-1,0,0,0,0,-2,-3
1528281888676391,-1,1,0,0,-1,-1,-2,-1
1528281888691386,-2,0,-2,0,-1,-3,-1,-2
1528281888691386,-2,1,-1,0,-1,-1,-2,0
1528281888698339,-1,-3,-2,0,0,0,-2,0
1528281888698339,0,-4,0,0,-2,2,-2,0
1528281888706290,-1,-2,0,-1,0,0,-2,-2
1528281888706290,1,3,1,-1,-1,0,0,0
1528281888715266,-1,-1,-3,0,-2,0,2,0
1528281888715266,-1,-1,0,0,-1,-1,-1,-1
1528281888729256,0,0,2,1,0,0,-1,0
1528281888729256,-2,-3,-2,-3,-1,-1,-1,-4
1528281888736221,-1,-1,-1,-2,1,-3,-1,-1
1528281888736221,0,-2,-2,-1,-1,-4,-1,0
1528281888752248,1,-1,1,-2,-2,0,0,0
1528281888752248,0,0,-1,0,1,2,-2,0
1528281888758179,0,1,0,0,-1,1,-1,0
1528281888758179,-2,0,-1,-3,-2,0,2,-1
1528281888766158,0,0,-1,0,1,0,-2,2
1528281888766158,-1,-1,-1,-1,-2,-1,-1,-2
1528281888775106,-2,-1,2,1,-2,-5,0,0
1528281888775106,-2,1,0,-1,-2,-3,3,-1
1528281888789071,-2,0,0,-2,-2,-1,2,0
1528281888789071,2,-2,-2,0,-1,-2,0,0
1528281888796050,-1,-1,-2,-1,0,3,-1,0
1528281888796050,0,0,-3,-1,-1,0,-2,0
1528281888812035,-2,0,-2,-1,-1,-2,-4,-1
1528281888812035,-2,-1,-2,0,-1,-2,0,-1
1528281888819049,-1,0,1,-1,-2,0,1,-2
1528281888819049,1,-3,2,1,-2,0,0,0
1528281888825974,0,-5,0,0,-1,0,0,-1
1528281888825974,0,0,1,0,-1,0,-1,-1
1528281888834945,2,0,-1,-1,-1,-1,0,-1
1528281888834945,1,4,-1,0,1,-1,0,-2
1528281888848945,-1,1,-3,0,0,-1,1,1
1528281888848945,-2,-1,0,1,-1,0,-1,0
1528281888855928,1,-1,-2,-1,0,-2,-1,0
1528281888855928,0,1,-3,-1,0,0,-3,1
1528281888871900,0,-1,0,0,1,-1,0,-2
1528281888871900,0,-2,1,0,0,-1,2,1
1528281888878883,2,-3,1,-1,-1,-2,-1,-1
1528281888878883,-1,-3,-1,-2,-1,0,-2,0
1528281888894823,-3,0,-2,-1,0,1,-1,0
1528281888894823,3,5,-2,-1,-1,2,1,-3
1528281888896809,-2,-1,-2,0,-1,0,0,-4
1528281888896809,1,-3,0,-1,-2,-1,2,-2
1528281888908754,1,-1,-1,1,1,1,-1,0
1528281888908754,-6,-2,1,-2,-1,-3,-2,-1
1528281888915729,1,2,0,0,1,0,-1,3
1528281888915729,-1,-2,-1,-1,1,1,-2,-1
1528281888931687,1,0,0,0,-3,1,-1,-1
1528281888931687,-1,-3,0,0,1,0,-1,0
1528281888938704,-1,0,2,-2,-1,0,0,-1
1528281888938704,-1,-1,-2,0,0,1,0,0
1528281888954641,0,0,1,-1,-2,-2,-2,-1
1528281888954641,0,-1,0,-1,-1,-2,0,-2
1528281888956621,-1,-2,0,1,1,-2,-2,-2
1528281888956621,0,-1,0,0,0,0,-1,-1
1528281888969638,1,-2,-1,0,-2,-3,-2,-1
1528281888969638,0,0,-2,0,-1,-1,-1,1
1528281888975569,-1,1,-2,0,0,-2,0,-1
1528281888975569,-1,2,0,-2,-2,-2,0,1
1528281888991526,0,-1,-3,-2,1,0,-1,1
1528281888991526,0,-3,-2,0,-2,-1,-1,0
1528281888998512,-2,-2,-1,0,-1,2,1,0
1528281888998512,0,1,-1,-2,-3,-2,-1,-1
1528281889006487,-1,-1,-1,0,-1,-2,1,-4
1528281889006487,2,-1,-1,0,1,0,0,0
1528281889021446,-2,-4,0,-1,-1,1,1,-1
1528281889021446,-2,0,1,-1,0,1,-1,0
1528281889029426,-2,0,1,-2,-2,3,-2,1
1528281889029426,0,2,-1,1,-1,0,-1,-1
1528281889036407,0,0,-1,0,-2,-4,0,1
1528281889036407,-2,-2,1,-1,-1,-3,-3,0
1528281889051367,-3,0,-1,-2,-1,-3,1,-1
1528281889051367,0,0,0,1,-2,0,-1,-2
1528281889058387,-1,1,-2,-3,-1,1,-2,0
1528281889058387,-2,1,-1,0,-1,1,1,-1
1528281889066362,1,-2,-2,-1,-1,0,-2,0
1528281889066362,-1,-2,-1,-4,0,0,-1,1
1528281889081287,-1,0,1,0,-2,0,-2,-3
1528281889081287,1,-2,0,-1,0,-1,1,-1
1528281889089319,1,1,0,1,0,-1,-1,0
1528281889089319,0,-1,2,-1,0,0,0,-1
1528281889096275,-1,-1,1,-1,0,-1,-1,0
1528281889096275,-1,0,0,0,-1,-1,1,-1
1528281889112204,-2,1,-2,-2,1,-3,2,-1
1528281889112204,-3,-2,-2,-1,1,-1,-3,1
1528281889118189,-1,0,-2,0,-1,-1,-2,0
1528281889118189,-1,-4,-1,2,0,2,-2,0
1528281889126168,0,-1,-1,1,0,1,-2,-2
1528281889126168,1,-1,-1,-1,-2,-1,-1,-2
1528281889141128,0,0,-1,-1,-2,1,-2,-1
1528281889141128,0,0,-2,-2,-1,-2,0,0
1528281889157136,-1,-1,-1,0,-1,-2,0,-1
1528281889157136,1,2,0,1,1,-3,1,0
1528281889159081,-1,1,-2,1,1,1,-1,-1
1528281889159081,-1,1,-2,-1,0,1,-2,-1
1528281889172097,0,-4,0,-1,0,-1,-1,-1
1528281889172097,2,0,-1,-1,-1,2,-2,-3
1528281889179076,1,1,-2,1,0,-2,-1,-2
1528281889179076,1,0,-1,-2,0,0,-2,-2
1528281889186060,-2,-2,0,-1,1,-1,1,-2
1528281889186060,-3,-1,1,-1,-1,-1,1,-2
1528281889200967,1,-1,-1,0,0,-2,0,-1
1528281889200967,-2,-2,-1,1,1,1,0,0
1528281889208947,-1,1,0,-1,-1,-1,0,0
1528281889208947,0,-1,1,-1,-3,0,1,0
1528281889215928,0,-1,-2,-3,0,2,-1,0
1528281889215928,0,0,0,0,-2,-1,0,-2
1528281889231886,1,0,-1,-1,-2,1,-1,-3
1528281889231886,-2,-2,1,1,0,0,-1,1
1528281889238866,-2,-3,0,-1,-2,-1,-1,0
1528281889238866,0,0,-1,0,-1,-2,-1,1
1528281889245866,0,0,-2,-2,-1,-3,-1,2
1528281889245866,-1,-1,-2,-1,0,-5,-2,0
1528281889260857,0,-2,-1,-1,1,-1,-1,0
1528281889260857,-2,-2,-1,0,2,-1,1,0
1528281889268785,-3,1,-2,1,-1,-1,1,-1
1528281889268785,-1,1,-3,0,0,0,1,-1
1528281889283749,-1,-1,0,0,1,-3,0,-1
1528281889283749,1,2,1,-1,-2,-2,-2,-1
1528281889291768,-1,-1,-1,-1,-1,0,-1,-1
1528281889291768,0,-1,0,-1,-2,1,-2,0
1528281889299026,-1,-1,-2,0,0,0,-1,0
1528281889299026,-2,-1,0,0,-3,1,1,1
1528281889314144,-1,-2,3,-1,0,1,0,2
1528281889314144,-1,-1,-1,-1,1,1,0,0
1528281889320970,0,-1,0,-1,-2,1,-1,-2
1528281889320970,1,-2,0,0,-1,1,2,-3
1528281889338023,0,2,2,0,-1,0,-2,-1
1528281889338023,0,0,0,-1,-1,-1,-2,-2
1528281889339025,-4,-1,-1,-2,-1,-1,-1,-2
1528281889339025,1,-2,-1,-2,0,-3,-2,-1
1528281889352148,-2,0,-3,-1,-1,0,-2,-1
1528281889352148,-2,2,-2,0,0,-1,0,-1
1528281889358970,0,1,-2,0,-2,0,-1,-1
1528281889358970,0,-2,-1,1,1,0,0,0
1528281889374946,1,-3,-2,-1,0,0,2,1
1528281889374946,0,-4,0,-1,-1,0,0,-1
1528281889381307,0,-3,-1,-1,-1,1,-2,1
1528281889381307,-1,-1,0,-2,0,-3,0,-2
1528281889397263,1,-2,0,0,0,-2,-1,1
1528281889397263,-1,-2,-2,-3,-3,-1,-3,-1
1528281889399094,1,-1,0,0,0,-1,1,1
1528281889399094,-1,2,-2,-2,1,0,-2,-1
1528281889412089,0,0,-1,-1,0,0,0,-4
1528281889412089,-4,-1,-1,0,-2,0,1,-2
1528281889419151,-3,-1,-1,-1,-1,-1,0,-1
1528281889419151,-2,0,-2,-1,0,-2,-2,1
1528281889434002,1,0,0,1,-2,-2,-2,0
1528281889434002,-1,-2,-1,0,-2,0,-2,-1
1528281889441129,2,1,-1,0,-2,-2,0,0
1528281889441129,-2,1,0,-2,-1,-1,0,1
1528281889457105,-2,-1,-3,-1,-3,-2,-1,0
1528281889457105,-2,-1,-4,0,-1,1,-1,0
1528281889458934,-1,1,-1,-1,1,1,-1,-2
1528281889458934,0,-1,1,0,-1,-1,0,-1
1528281889472051,0,0,0,-1,0,1,1,0
1528281889472051,0,-1,1,1,1,1,2,1
1528281889479068,-2,1,-1,-1,0,1,1,1
1528281889479068,1,-1,-1,0,-1,-1,-2,-2
1528281889493250,-1,-2,-2,-2,-1,-1,-3,0
1528281889493250,0,0,-1,0,0,0,-3,-1
1528281889501091,-1,1,0,0,-1,-2,-2,-1
1528281889501091,0,1,0,0,-1,0,-2,0
1528281889517033,-2,2,-1,-1,-1,0,0,1
1528281889517033,1,0,0,0,-1,-1,2,0
1528281889517033,3,0,0,2,3,1,1,0
1528281889517033,-1,-2,-5,-7,-6,-1,-2,-1
1528281889533023,0,-2,-1,2,-2,-1,-2,-3
1528281889533023,1,1,-1,-2,1,-2,-1,0
1528281889539002,-1,-3,0,-1,1,-3,0,-1
1528281889539002,0,0,2,2,2,0,-1,-1
1528281889553926,0,0,-2,-2,0,-1,0,0
1528281889553926,-1,3,-1,-1,0,0,-2,0
1528281889560905,-4,-3,-3,-1,-2,0,-2,1
1528281889560905,2,0,1,-1,1,-1,1,1
1528281889576862,-2,-2,1,-1,-3,-2,-1,-1
1528281889576862,1,0,1,1,0,0,1,-2
1528281889577859,0,0,-3,-1,-2,0,0,1
1528281889577859,-2,-2,-2,0,0,2,-1,-2
1528281889592824,-1,1,-1,1,1,-1,1,-3
1528281889592824,0,-2,-1,-1,1,-2,1,-1
1528281889599105,-2,0,-1,-2,-1,0,-1,-3
1528281889599105,-1,0,1,-1,-2,-3,-1,0
1528281889613986,2,2,-1,0,-4,0,0,-1
1528281889613986,-2,-5,-2,-2,4,-3,-4,-1
1528281889620952,1,0,2,-2,-3,-1,-1,-1
1528281889620952,-1,-2,-2,0,1,0,1,1
1528281889637101,1,-3,0,0,1,1,-2,0
1528281889637101,-4,0,-1,0,0,1,-1,-1
1528281889637101,0,1,-1,0,1,-1,0,-1
1528281889637101,-2,3,-1,0,0,-3,0,-1
1528281889652340,-1,1,1,1,-2,0,0,-2
1528281889652340,2,-2,-1,-1,-2,-1,0,1
1528281889658376,-1,-1,-1,0,-1,-1,0,2
1528281889658376,-1,-2,1,0,-2,2,-1,-2
1528281889673186,-1,-3,-2,-2,0,1,-2,2
1528281889673186,-2,-2,-2,-1,0,0,0,0
1528281889681286,2,3,0,1,0,-1,-3,-4
1528281889681286,-2,0,-2,-1,0,-1,-2,-1
1528281889697333,0,-1,-1,0,-1,-2,-2,0
1528281889697333,0,-1,1,0,-1,-2,-1,-1
1528281889697333,-2,0,-1,-1,1,0,0,0
1528281889697333,0,-1,-2,-2,-4,-3,-1,0
1528281889712295,0,-1,2,1,0,2,-2,-6
1528281889712295,0,2,1,-2,-3,0,-1,1
1528281889718438,-1,1,0,1,1,-2,-3,-1
1528281889718438,0,-2,1,3,2,-2,0,-1
1528281889733436,1,0,-2,-4,-3,0,2,1
1528281889733436,-1,-2,0,-2,-3,-3,-3,-1
1528281889741560,0,-3,-2,-4,-2,1,1,0
1528281889741560,0,-1,0,0,0,2,1,1
1528281889756784,-3,-1,0,-2,-1,-1,1,-3
1528281889756784,2,4,3,6,2,2,1,0
1528281889757613,-3,0,-2,-3,-1,-3,-2,-2
1528281889757613,-2,-2,-3,1,-2,1,0,-1
1528281889772584,-1,0,-1,-2,2,-2,-1,1
1528281889772584,0,0,1,1,2,3,-2,-2
1528281889778716,1,1,0,-2,-4,0,1,-2
1528281889778716,1,1,-3,-3,-1,-3,-1,-1
1528281889793676,-1,1,-1,1,-2,0,2,1
1528281889793676,-1,-2,-5,-4,-2,-2,-1,-1
1528281889800703,1,-2,1,2,0,0,-3,1
1528281889800703,-1,0,0,0,1,0,-1,-2
1528281889817054,-1,-2,-2,0,0,-3,-2,0
1528281889817054,-1,0,0,-1,-1,0,3,1
1528281889818050,-2,-2,-1,-1,-1,-1,1,-1
1528281889818050,1,0,2,-1,0,0,1,1
1528281889832846,0,1,0,-1,0,-2,-5,1
1528281889832846,0,-1,0,0,-3,-3,1,-2
1528281889838989,0,-1,0,-1,-2,0,-1,-1
1528281889838989,-1,-2,1,0,2,1,1,-1
1528281889853931,1,0,0,-1,0,-1,0,0
1528281889853931,0,1,-1,-1,0,-2,-3,-2
1528281889861112,-2,-1,0,-1,-2,-1,-1,1
1528281889861112,0,-1,-3,0,-1,-1,-1,-1
1528281889876936,0,-4,-2,-2,0,1,-5,0
1528281889876936,-1,-3,1,-2,-4,-4,-1,0
1528281889877955,0,-1,-1,-3,-1,0,-1,0
1528281889877955,-1,1,-1,-2,1,4,-2,-2
1528281889892896,-3,-1,0,-2,-2,1,2,0
1528281889892896,8,2,1,3,4,2,0,1
1528281889898865,0,0,0,-1,-1,-4,-1,-1
1528281889898865,-1,-1,0,-2,-3,-4,-2,1
1528281889913984,1,0,1,1,1,0,4,1
1528281889913984,-5,-1,-1,0,-1,-2,2,1
1528281889920967,0,0,0,1,1,0,-1,1
1528281889920967,0,0,0,-1,-3,-2,-2,-3
1528281889936923,0,0,-1,-1,0,-3,-1,-1
1528281889936923,-2,-2,-2,2,3,2,3,1
1528281889937761,-1,1,0,-2,-4,-4,-2,0
1528281889937761,-3,1,1,-4,-4,-2,-1,-2
1528281889952722,-1,1,1,0,-3,-7,-3,-4
1528281889952722,-3,-3,-2,-3,1,-2,0,-2
1528281889958705,-1,-3,-1,1,0,4,0,-2
1528281889958705,0,-1,0,0,3,0,-1,1
1528281889974037,0,-3,-1,1,-1,-1,1,0
1528281889974037,-1,0,-3,-2,-3,-1,-2,0
1528281889989889,-1,0,0,4,5,1,-1,2
1528281889989889,-1,-2,1,1,-6,6,-2,0
1528281889996039,-1,-2,-2,-2,1,-3,-1,0
1528281889996039,-2,0,1,-3,-1,1,1,0
1528281890003867,1,2,-2,-1,-2,-3,-1,1
1528281890003867,-2,1,0,-3,-1,-1,2,-1
1528281890012830,-3,-1,2,-1,0,8,1,0
1528281890012830,10,6,0,-1,-2,-9,-1,-1
1528281890018972,-3,-3,-2,-5,-1,-3,1,-3
1528281890018972,-1,-1,-3,0,1,-2,-1,0
1528281890033939,0,-1,-1,0,-3,2,-1,0
1528281890033939,-4,-3,-1,-5,-2,-1,-4,-1
1528281890040794,-1,1,-2,0,-1,0,-3,-3
1528281890040794,0,-2,-1,-6,-4,-7,1,-1
1528281890064798,1,-2,0,6,4,0,1,0
1528281890064798,-3,-2,1,-3,-4,3,-2,-1
1528281890064798,-1,-2,-1,-1,-2,-1,4,0
1528281890064798,-3,-3,-2,2,1,2,2,1
1528281890072905,-2,0,-2,-4,-3,2,-3,-1
1528281890072905,-1,-3,0,0,0,-6,-4,1
1528281890079205,1,1,0,1,1,-1,2,1
1528281890079205,1,0,0,-2,1,0,-1,0
1528281890094119,-1,0,0,-1,-2,-4,-1,-2
1528281890094119,-2,0,-1,-1,-3,3,-2,-2
1528281890101361,-3,-3,1,-2,-1,-2,-1,-3
1528281890101361,4,3,1,2,3,2,0,-1
1528281890116156,0,1,0,-1,1,-3,-4,-2
1528281890116156,0,-2,0,1,-4,-1,5,-1
1528281890124190,-1,0,0,0,2,0,-1,0
1528281890124190,-5,-3,-2,0,1,-4,0,-3
1528281890139300,-2,0,-3,-7,-5,3,3,1
1528281890139300,-1,-1,-2,4,1,-2,-3,0
1528281890140294,0,-2,1,-3,-6,-2,-3,0
1528281890140294,1,1,-1,0,-1,2,-1,-1
1528281890153399,-1,0,1,-2,1,-1,2,-1
1528281890153399,-1,-4,-1,-5,-2,-4,-1,0
1528281890161377,-1,-1,-1,1,1,0,-2,0
1528281890161377,0,0,1,1,-1,2,1,4
1528281890176198,-1,0,-2,0,1,-6,-2,-2
1528281890176198,0,-2,-1,-2,-2,-1,-3,-2
1528281890184194,-1,0,0,-1,0,0,-3,0
1528281890184194,0,-1,-1,0,2,-1,-5,-2
1528281890199539,3,-1,0,0,-1,-1,-1,-1
1528281890199539,-2,1,0,0,-1,1,0,1
1528281890200607,-1,0,-2,-1,-3,1,2,-2
1528281890200607,0,-1,-2,-1,-1,-2,2,-1
1528281890213650,-2,-1,-1,0,-1,2,-1,1
1528281890213650,4,-1,-2,-1,1,2,2,0
1528281890221629,0,-3,1,-1,-1,-1,-2,0
1528281890221629,-1,-2,2,-2,-1,0,-3,-2
1528281890236600,-3,-1,2,-1,-1,-2,-2,0
1528281890236600,-2,1,-3,0,-1,-1,0,0
1528281890243583,-1,0,-3,0,-1,-1,0,-1
1528281890243583,1,-1,0,0,-2,-3,-1,-1
1528281890259383,0,-1,0,0,2,0,0,1
1528281890259383,-1,0,-1,-1,0,-1,-4,0
1528281890260431,0,-1,-2,-2,-1,1,-1,-2
1528281890260431,-2,1,-4,0,1,-1,-2,-2
1528281890273344,-2,-2,-2,0,1,-1,1,-2
1528281890273344,0,0,-1,-1,0,4,3,-2
1528281890281324,2,0,-1,-2,0,-3,-3,-2
1528281890281324,1,-1,0,0,0,-2,-2,-2
1528281890296283,2,-2,-2,-2,-4,-1,-1,-1
1528281890296283,-3,-3,-2,-1,-2,1,1,1
1528281890303316,1,-1,-1,-2,1,-2,1,2
1528281890303316,-3,-1,1,0,-2,-2,0,0
1528281890319276,-1,1,1,0,0,0,1,0
