timestamp,emg1,emg2,emg3,emg4,emg5,emg6,emg7,emg8
1528443581320299,-4,-3,7,0,-9,-3,-4,-2
1528443581320299,-2,6,-11,-1,-1,-1,3,-2
1528443581324288,-3,-3,-5,-4,-21,-19,-12,-5
1528443581324288,-5,-7,-13,-15,14,2,1,-1
1528443581325285,3,6,11,15,14,19,9,2
1528443581325285,3,-3,-1,-4,-9,1,-6,1
1528443581328277,2,-2,0,5,16,12,10,1
1528443581328277,2,16,-5,-5,10,-14,-4,1
1528443581336256,-8,-28,-7,-5,-13,-4,-6,-5
1528443581336256,0,5,2,4,-2,7,-1,-2
1528443581349221,2,-3,2,-12,-34,-24,-3,-1
1528443581349221,6,13,3,14,52,52,17,4
1528443581356203,0,2,-7,-6,-14,-17,-3,2
1528443581356203,-8,-22,-1,4,13,-12,-8,-1
1528443581366177,-6,-14,0,2,0,-2,-2,-4
1528443581366177,-1,5,2,-3,-15,-3,-7,-4
1528443581387120,-3,8,-6,1,9,19,3,-4
1528443581387120,0,-4,-1,4,33,-2,-4,-3
1528443581389115,2,2,-1,-5,2,10,7,1
1528443581389115,-2,-7,-2,-6,-30,-18,10,0
1528443581434993,1,2,-4,1,3,-8,-7,0
1528443581434993,-1,-1,-2,-7,-21,-44,-16,-3
1528443581435990,-1,0,0,7,21,41,23,3
1528443581435990,0,1,2,-9,-43,-20,-10,-1
1528443581440976,-2,-4,-2,3,35,-4,-8,-1
1528443581440976,0,0,2,0,-14,-9,3,-1
1528443581440976,-2,-1,-2,6,25,8,-3,-2
1528443581440976,-3,-1,0,6,17,19,3,-1
1528443581445963,0,-2,-2,-16,-54,-35,-8,-2
1528443581445963,2,2,6,16,3,-19,-19,-4
1528443581452944,-5,-6,-8,-28,-13,-19,-1,-4
1528443581452944,1,1,3,23,76,59,19,4
1528443581461920,-3,-2,-1,-15,-58,-14,-6,-3
1528443581461920,-3,-4,-3,0,19,7,6,-2
1528443581475883,1,0,-2,12,10,-3,-10,-3
1528443581475883,1,1,4,3,2,-11,-6,-2
1528443581482864,-1,-1,4,4,30,12,1,1
1528443581482864,0,1,1,-7,-31,-3,4,1
1528443581507797,-1,-3,-9,-18,-52,-6,5,1
1528443581507797,-5,-3,3,6,31,-3,-4,-1
1528443581512784,1,4,-7,7,7,22,10,-1
1528443581512784,0,-2,-3,-7,-14,0,-3,2
1528443581520763,-2,-5,-1,-2,-3,-18,-11,-1
1528443581520763,-2,-3,-12,-25,-60,-35,-11,-4
1528443581536730,-3,-5,-4,9,28,5,-1,-1
1528443581536730,-3,-2,0,5,17,7,4,1
1528443581544699,5,2,-5,2,4,22,9,2
1528443581544699,2,0,3,-3,7,3,0,0
1528443581545724,-2,0,4,-3,-11,-4,2,-2
1528443581545724,0,-1,-3,3,18,11,2,-1
1528443581566668,-1,-1,4,0,-5,-11,-8,-2
1528443581566668,0,-1,-5,-7,-19,-10,-1,-1
1528443581568636,2,2,6,5,10,6,2,1
1528443581568636,0,1,-3,-2,3,1,0,-1
1528443581580631,-3,-2,3,-1,-11,-9,-5,-3
1528443581580631,-2,-1,-2,0,5,-2,-5,-2
1528443581589579,-2,-2,-7,-4,-1,-4,-3,-3
1528443581589579,0,-1,4,-1,0,7,2,0
1528443581604586,-1,3,4,1,3,-4,-2,0
1528443581604586,1,-1,-2,-3,-5,-4,-2,1
1528443581606534,-4,-2,-1,-3,-5,-4,-1,-1
1528443581606534,-3,-2,-4,0,4,7,-2,-5
1528443581626480,2,2,0,9,16,9,1,2
1528443581626480,-7,-11,-6,-4,-13,-10,-4,-5
1528443581642437,-1,2,-1,0,0,4,7,5
1528443581642437,0,-1,-1,-6,0,7,-7,-3
1528443581643435,-3,2,2,0,-3,-9,-8,-11
1528443581643435,11,6,1,5,5,9,32,36
1528443581649420,2,-3,-3,-4,-4,-5,4,2
1528443581649420,-3,-9,-11,-3,6,11,8,3
1528443581664433,-3,4,4,1,-3,-5,-11,-5
1528443581664433,-5,-2,-1,-4,-10,-12,-30,-21
1528443581666374,-4,-1,2,0,4,1,-9,-13
1528443581666374,5,-1,-3,-3,1,2,31,26
1528443581687347,7,0,-3,-4,-8,-6,11,-1
1528443581687347,-15,1,-1,-5,-3,2,8,0
1528443581688316,-3,4,8,9,4,-3,-26,-19
1528443581688316,-2,4,7,4,-2,-3,-13,-3
1528443581700328,3,-6,-17,-10,-3,-5,-1,10
1528443581700328,6,-3,-12,-9,-5,3,-1,-3
1528443581709301,-13,14,-4,-4,1,7,-1,-7
1528443581709301,-9,-40,3,3,1,-3,-11,-7
1528443581724219,-5,-3,-5,-7,-5,-8,-8,-6
1528443581724219,1,4,2,7,2,-4,2,-1
1528443581726214,5,-6,-22,-12,-12,-3,8,8
1528443581726214,6,23,29,5,8,3,-2,-2
1528443581754179,-3,-12,-26,-5,-19,-6,-1,3
1528443581754179,2,3,37,-2,3,-5,-4,-7
1528443581756134,-1,-3,-21,-8,-21,2,3,2
1528443581756134,-2,16,17,-10,-18,-17,-7,-5
1528443581761120,-10,-23,-80,-29,-84,-41,-11,-5
1528443581761120,16,39,92,88,94,98,28,13
1528443581770100,-4,-26,-47,-20,-82,-30,-1,8
1528443581770100,9,26,30,38,74,39,6,1
1528443581784113,0,-1,-3,-33,-30,-18,-6,0
1528443581784113,-6,-8,-32,-24,-51,-37,-10,-12
1528443581786070,3,1,11,-13,8,-1,1,4
1528443581786070,-3,-7,-27,-6,0,8,4,-1
1528443581806999,-2,8,18,3,16,3,-2,-2
1528443581806999,-2,-11,-24,-12,-44,-30,-8,-3
1528443581808993,-1,1,39,0,-2,-8,-2,-2
1528443581808993,-1,-4,-18,6,47,17,5,1
1528443581821001,2,7,22,33,1,12,2,0
1528443581821001,1,-6,-35,6,50,12,0,2
1528443581829937,-4,-4,-17,-36,-48,-16,-6,-3
1528443581829937,-1,5,3,5,-30,-22,-6,-4
1528443581844951,0,5,15,-11,27,27,9,5
1528443581844951,-5,-13,-28,-16,-55,-26,-9,-7
1528443581845895,4,2,2,37,81,23,7,2
1528443581845895,-4,-9,-22,-25,-42,-9,-5,-5
1528443581867089,0,2,19,22,12,6,1,-3
1528443581867089,-3,-6,-14,-44,-24,-16,-6,-1
1528443581869068,5,7,9,16,-2,1,-1,1
1528443581869068,-4,-5,-8,4,15,2,-1,-5
1528443581881004,3,5,5,-4,-6,-3,-1,3
1528443581881004,-3,-1,1,8,15,8,1,-1
1528443581889990,0,3,9,3,-14,-3,0,0
1528443581889990,-2,-8,-8,-11,-15,-2,3,0
1528443581904942,-4,0,7,19,25,5,-4,-3
1528443581904942,-2,0,2,-16,-8,-1,0,0
1528443581905936,1,-3,9,6,29,10,4,3
1528443581905936,-1,-1,1,-11,-38,-16,-11,-5
1528443581926933,-1,0,10,5,14,-3,-16,-12
1528443581926933,0,0,7,1,-9,-7,29,13
1528443581928875,-5,-1,-4,-1,12,13,-12,-3
1528443581928875,-2,1,-4,0,-3,-3,9,1
1528443581941029,2,-1,3,-2,0,1,23,14
1528443581941029,-2,0,-3,3,5,-5,-30,-13
1528443581950005,2,-2,2,5,5,-2,6,0
1528443581950005,-15,-11,-4,-11,-16,-10,-21,-21
1528443581963968,17,6,11,3,6,12,61,42
1528443581963968,-18,-19,-5,-6,-6,-2,-27,-12
1528443581965974,9,1,8,1,6,-4,-5,-2
1528443581965974,-8,-3,2,-4,-4,3,-6,7
1528443581986907,-4,-3,-2,-2,0,-11,-29,-23
1528443581986907,1,0,-3,0,0,-4,6,2
1528443581988901,-3,-1,2,2,0,4,2,0
1528443581988901,2,2,-4,-3,-8,-10,-16,-12
1528443582000869,-1,13,10,4,7,5,-6,-2
1528443582000869,5,-2,-8,-3,4,9,12,10
1528443582009846,-7,5,7,4,4,-1,-11,-10
1528443582009846,-1,-30,-6,-1,-7,-1,5,3
1528443582023807,4,5,-4,-1,6,7,5,6
1528443582023807,0,5,-2,-4,-3,-2,-2,-4
1528443582030788,1,2,-6,-5,-7,-6,3,-3
1528443582030788,2,4,-4,0,3,4,10,6
1528443582046779,-10,-10,2,-20,-37,-27,-20,-12
1528443582046779,1,-1,-32,4,28,22,3,-3
1528443582048741,3,11,23,33,50,24,9,7
1528443582048741,3,-11,-19,-7,-12,-5,1,3
1528443582060764,-9,-11,17,-23,-61,-32,-26,-16
1528443582060764,-3,1,-15,21,40,17,5,-1
1528443582069684,-1,10,1,0,-3,-4,1,3
1528443582069684,6,-1,-3,-10,-34,-15,-3,2
1528443582091926,-2,-6,-18,17,34,17,2,0
1528443582091926,-4,-3,4,-6,-2,-6,-3,-5
1528443582093775,-3,-3,-6,-9,-16,-1,1,0
1528443582093775,1,9,-2,-5,-13,-5,-4,-2
1528443582106753,-4,-4,-4,-16,-21,-8,-2,-3
1528443582106753,-1,1,11,-11,-41,-21,-3,-2
1528443582108735,-4,-9,-7,29,48,9,-3,-5
1528443582108735,1,6,0,-14,-4,-5,1,-1
1528443582120955,-1,-3,-2,-34,-41,-3,-1,0
1528443582120955,-2,-1,-1,35,33,-12,-9,-3
1528443582129767,-1,-6,-9,-35,-60,-5,3,2
1528443582129767,10,12,11,65,79,66,21,14
1528443582143888,-4,-3,-11,-21,-28,-5,-4,-5
1528443582143888,4,6,18,37,56,46,11,5
1528443582150710,-3,-8,-2,-26,-82,-49,-15,-6
1528443582150710,-4,-4,-9,-10,-16,-13,-1,-3
1528443582166919,2,1,-3,-16,23,17,0,0
1528443582166919,2,3,10,-14,-14,-17,-2,1
1528443582168915,2,-3,-3,20,4,1,2,2
1528443582168915,-1,3,11,24,79,71,19,2
1528443582180863,-1,2,11,68,28,-11,-7,-5
1528443582180863,-2,-9,-24,-92,-74,-45,-13,-4
1528443582195935,-3,-6,-8,-10,-32,-10,-1,-2
1528443582195935,0,4,7,10,22,-7,-4,-3
1528443582203768,3,5,4,-22,19,21,6,1
1528443582203768,-1,1,39,65,-23,-9,-6,-3
1528443582210749,0,0,-8,-5,8,17,5,2
1528443582210749,0,-1,-1,-69,-53,-33,-11,-2
1528443582226871,-1,2,21,63,67,27,13,4
1528443582226871,1,-3,-19,-56,-57,-19,-7,0
1528443582228701,-2,-1,14,3,15,-5,-3,-2
1528443582228701,-4,-3,5,37,-32,-20,-5,-3
1528443582249991,-4,-2,10,41,-13,-24,-13,-8
1528443582249991,-3,-3,20,-52,15,2,-3,-5
1528443582250916,-2,-4,3,-13,-19,-8,-4,-2
1528443582250916,-7,-7,2,-19,-23,-19,-6,-2
1528443582263969,6,5,-8,-21,15,23,13,11
1528443582263969,-2,-2,10,39,-1,-8,-3,-6
1528443582270949,-2,1,-2,19,49,30,0,-1
1528443582270949,-3,-3,-19,-24,-34,-30,-12,-7
1528443582287462,2,-2,-25,24,20,2,0,1
1528443582287462,-5,-3,-21,-51,-74,-38,-11,-6
1528443582288438,-3,-8,-23,24,77,43,12,-1
1528443582288438,-1,2,-10,36,-25,0,-1,-3
1528443582309948,-4,-10,-21,-26,-58,-24,-6,3
1528443582309948,7,6,-13,-11,36,31,6,2
1528443582311794,-6,-9,-4,6,-44,-40,-8,-7
1528443582311794,-7,-3,-4,-22,-2,-9,-7,-8
1528443582324082,-3,-1,-5,-25,-9,1,1,-5
1528443582324082,0,-3,-9,22,31,-13,-12,-3
1528443582331214,6,7,5,-34,-38,-27,-1,9
1528443582331214,4,5,3,15,-10,-2,-2,-1
1528443582347389,-9,-4,-3,-5,-2,-16,-17,-12
1528443582347389,1,4,-8,25,41,58,34,9
1528443582349220,-9,-4,-18,13,66,39,-1,-13
1528443582349220,0,-2,-17,-1,-22,-21,-5,3
1528443582369540,-3,-6,-13,-23,27,24,1,-3
1528443582369540,-11,-11,-9,-4,-48,-50,-19,-6
1528443582371564,-2,-2,-3,-16,5,7,7,3
1528443582371564,-3,4,8,-16,-44,-25,-12,-2
1528443582391499,5,-3,11,25,47,52,22,7
1528443582391499,-7,-5,2,-13,-51,-44,-18,-9
1528443582392465,0,1,11,7,58,36,-3,-3
1528443582392465,-7,-3,6,12,26,-5,-9,-13
1528443582415654,5,10,11,5,-14,-9,3,5
1528443582415654,3,-4,7,-13,-29,-22,-9,1
1528443582416726,-8,-6,-1,-29,-73,-64,-26,-12
1528443582416726,2,14,11,2,46,42,11,2
1528443582428731,-13,-24,-11,-7,-67,-31,-21,-19
1528443582428731,8,-3,3,40,118,79,37,16
1528443582429587,-1,8,-4,-20,-37,-18,-2,2
1528443582429587,-4,-8,-5,-3,6,7,-2,-10
1528443582451549,-1,19,4,-24,-30,-38,-25,-6
1528443582451549,13,7,5,31,30,30,37,29
1528443582458508,1,-10,-9,-1,-20,-9,-7,-13
1528443582458508,3,5,3,-1,28,17,14,9
1528443582473468,-10,-5,-6,-40,-70,-51,-15,-19
1528443582473468,-11,20,5,25,53,2,-29,-21
1528443582474466,-3,-20,6,8,-10,-7,0,4
1528443582474466,-1,-10,4,-37,-79,-23,3,1
1528443582488428,3,1,0,32,50,32,27,16
1528443582488428,-4,-26,-1,-8,-36,16,4,2
1528443582489428,11,28,8,29,32,31,0,3
1528443582489428,22,29,18,7,3,2,21,24
1528443582511367,-4,-10,-12,-31,-34,-25,-27,-5
1528443582511367,-1,8,9,-20,-88,-44,-4,-1
1528443582519345,14,-4,20,47,108,108,63,38
1528443582519345,-11,-8,-18,-8,-5,-8,-27,-13
1528443582534305,13,10,12,5,39,27,15,29
1528443582534305,6,-8,-2,-19,-43,-7,12,-5
1528443582534305,-10,-5,-2,-25,-49,-33,-20,-16
1528443582534305,-14,-4,-7,-21,-47,-65,-62,-24
1528443582549265,7,10,12,3,-8,37,43,16
1528443582549265,-9,-1,0,33,64,36,-6,-26
1528443582549265,-15,-17,-15,-22,-41,-41,-19,1
1528443582549265,17,0,-12,0,90,34,9,34
1528443582571207,37,7,-7,-6,-33,-35,-23,14
1528443582571207,-2,19,-2,-3,-27,-42,-13,8
1528443582572219,-10,-9,-7,11,14,-2,-10,-30
1528443582572219,-13,-8,-1,6,59,43,22,-7
1528443582594146,-16,-6,-9,-7,-33,-23,-25,-19
1528443582594146,9,-10,-12,-1,70,45,36,18
1528443582594146,-6,1,7,2,-15,-6,0,3
1528443582594146,-5,-18,-11,-5,-68,-57,-23,-9
1528443582609143,-9,-5,-4,-17,0,-7,-14,-18
1528443582609143,6,13,14,64,60,47,12,-4
1528443582609143,-6,-3,-11,-50,-54,-36,-33,-9
1528443582609143,3,4,7,0,12,14,51,19
1528443582631105,-8,-1,2,41,67,-7,-20,-24
1528443582631105,1,-21,-11,-42,-79,-42,-7,11
1528443582632046,2,14,-3,-28,-39,-30,-21,-7
1528443582632046,18,-2,22,77,79,107,101,46
1528443582654040,-1,5,1,23,-8,-11,-15,7
1528443582654040,-2,2,-5,-64,-102,-56,-12,-9
1528443582655022,7,-1,7,40,75,83,39,12
1528443582655022,-14,-5,-11,-49,-99,-93,-66,-34
1528443582668999,-23,-10,-7,-14,-6,-1,-6,-13
1528443582668999,0,-24,-3,28,19,65,27,12
1528443582669997,2,9,4,-11,8,-8,12,2
1528443582669997,-13,3,0,5,18,-2,-26,-26
1528443582699921,-4,-11,-1,9,2,13,14,1
1528443582699921,1,14,-4,-14,-28,-38,-19,-2
1528443582699921,-9,3,-6,-15,-31,-25,-29,-15
1528443582699921,7,-11,-3,-2,-23,-27,2,6
1528443582713883,14,13,10,59,82,90,67,27
1528443582713883,-15,-17,-24,-63,-68,-50,-59,-26
1528443582714881,9,13,11,28,8,21,74,24
1528443582714881,-5,-10,-11,-2,-22,-28,-35,-13
1528443582728844,14,16,15,-35,-77,-15,33,27
1528443582728844,4,13,13,59,113,78,42,16
1528443582736801,2,-6,-3,-11,-5,-7,-20,-3
1528443582736801,1,10,0,-48,-89,-34,-14,-8
1528443582751782,-8,-7,-1,3,37,18,-3,-8
1528443582751782,2,-3,-3,0,29,14,16,14
1528443582751782,11,15,5,5,-32,-10,17,13
1528443582751782,-7,-18,4,28,27,31,2,-10
1528443582773667,4,-4,-14,-9,31,15,13,10
1528443582773667,-14,-12,-1,-24,-40,-23,-22,-14
1528443582774682,1,-2,-12,-10,-58,-73,-48,-10
1528443582774682,13,14,6,0,27,31,18,15
1528443582790622,-1,2,2,5,-40,-23,-19,-7
1528443582790622,-1,3,-1,-3,-2,21,19,3
1528443582791768,-12,-11,-2,0,-2,-28,-22,-10
1528443582791768,-8,-2,-5,16,17,1,-17,-7
1528443582811707,-8,-10,0,-18,-12,-8,-19,-9
1528443582811707,-5,4,6,39,16,-26,-22,-13
1528443582812654,3,-9,-7,3,-20,-2,-5,-4
1528443582812654,13,26,11,-23,-44,-26,3,10
1528443582833802,-13,-8,-8,-15,-28,-7,-10,-18
1528443582833802,3,8,6,16,44,26,9,9
1528443582834801,-5,-24,-5,6,20,16,-1,-1
1528443582834801,-7,-10,-11,-22,-29,-16,9,-3
1528443582848922,-11,-7,-4,-7,-25,-26,-21,-15
1528443582848922,1,6,-3,-17,-43,-39,-29,-8
1528443582849760,14,15,11,-9,-21,30,40,24
1528443582849760,-4,1,-3,30,62,26,8,-5
1528443582871232,-3,-10,-3,-6,-26,-12,-7,-7
1528443582871232,-5,-3,-12,-26,-40,-48,-34,-14
1528443582872089,4,6,2,8,81,38,33,11
1528443582872089,-6,-8,-3,-6,-20,10,14,0
1528443582894919,5,5,2,10,15,1,-1,0
1528443582894919,-5,-4,1,0,-18,-13,-16,-9
1528443582895918,-9,-8,-9,-17,-33,-19,-16,-12
1528443582895918,4,11,6,2,36,33,9,5
1528443582909048,-8,-22,-12,-30,-25,-32,-38,-19
1528443582909048,7,10,11,25,14,20,44,17
1528443582909882,-6,-9,-6,2,18,5,-19,-13
1528443582909882,-4,-7,0,-6,-21,2,-7,-4
1528443582931860,-3,4,0,18,30,12,7,0
1528443582931860,0,-1,-5,-17,-19,-17,-15,-8
1528443582931860,-1,-1,1,-1,-12,-12,-3,4
1528443582931860,-2,3,-2,3,18,8,-6,-5
1528443582954330,-8,-7,-5,-14,-18,-27,-26,-15
1528443582954330,2,-4,4,17,39,29,17,2
1528443582955175,0,8,2,12,27,21,10,2
1528443582955175,-4,-9,-8,-10,-4,-6,-12,-5
1528443582969370,1,4,1,2,13,4,8,1
1528443582969370,-4,2,-2,-3,2,-2,-10,-1
1528443582969370,0,-1,-2,-5,-15,-8,-10,-5
1528443582969370,-6,-13,-4,-3,-5,-10,-5,-3
1528443582991050,3,0,-2,9,17,11,14,9
1528443582991050,-2,2,0,-1,1,4,2,0
1528443582991920,-1,1,-1,-3,-9,-5,-3,-3
1528443582991920,-3,-5,-3,2,3,1,-1,0
1528443583014015,6,8,4,8,16,8,13,8
1528443583014015,-4,-6,-3,-4,-5,2,-1,-5
1528443583021013,-3,-3,-2,-3,-4,-8,-5,-1
1528443583021013,-1,0,0,2,4,-2,-1,-2
1528443583029099,2,3,2,2,3,5,5,4
1528443583029099,0,-3,-1,-2,-10,-3,-5,-1
1528443583030096,-3,-1,-4,-1,-5,-9,3,-3
1528443583030096,3,1,-9,0,7,9,1,1
1528443583051238,0,1,-30,2,2,1,3,-1
1528443583051238,-2,-5,-24,-5,-5,-1,-4,-10
1528443583052094,3,1,9,3,8,5,-5,13
1528443583052094,-1,-1,34,-1,-4,-4,4,-10
1528443583074433,3,4,59,3,5,6,18,21
1528443583074433,-1,-1,41,-2,1,-2,-5,-3
1528443583075246,-3,-3,17,-3,-9,-8,-16,-12
1528443583075246,1,1,0,-1,-3,-3,15,11
1528443583089155,3,0,-6,2,5,2,-16,-29
1528443583089155,1,13,-1,-5,-4,-1,22,2
1528443583096508,-20,-10,0,3,3,7,15,30
1528443583096508,-3,0,-11,-1,-1,-5,-10,5
1528443583111462,2,-5,-7,3,5,4,27,21
1528443583111462,11,1,-6,-1,-4,-1,-17,-9
1528443583112303,6,2,-11,-3,-1,-4,-9,-21
1528443583112303,-29,-11,-14,0,-1,-4,-7,-9
1528443583134474,22,5,-16,-5,-2,1,-1,6
1528443583134474,4,-1,-6,2,0,-3,-11,-6
1528443583135475,-5,-13,-8,-2,-6,-3,10,10
1528443583135475,-5,17,-4,2,0,-12,-44,-39
1528443583148630,3,5,-2,-1,4,15,43,28
1528443583148630,-27,-36,-6,0,5,4,-9,-4
1528443583149644,9,4,-3,2,-1,-1,22,20
1528443583149644,5,-5,-5,-5,-3,0,-17,1
1528443583171859,-3,-3,-9,-5,-8,-9,-20,-24
1528443583171859,-1,16,-1,2,0,-2,-19,8
1528443583171859,-6,0,-7,-2,-2,2,13,-22
1528443583171859,1,-11,-8,-1,-1,-3,-3,-9
1528443583194864,-2,-7,-2,-1,0,-1,-8,9
1528443583194864,7,2,-7,-3,-1,5,46,19
1528443583195673,6,-1,-1,5,5,-2,-18,-8
1528443583195673,5,4,0,1,1,6,23,14
1528443583208837,-10,-11,-2,-3,-1,0,-6,-16
1528443583208837,-10,-8,-3,-1,-5,-8,-16,-4
1528443583209838,7,10,0,-3,-1,-1,7,13
1528443583209838,12,2,1,1,-1,1,16,6
1528443583231036,-14,-2,2,1,4,1,-13,-7
1528443583231036,1,4,2,-1,3,3,-3,-10
1528443583231987,-11,0,-2,-1,1,3,-3,-10
1528443583231987,1,5,3,-1,-1,-3,-10,0
1528443583255095,-6,-20,0,2,0,-3,4,5
1528443583255095,5,2,-3,-6,-8,-7,-3,-4
1528443583255095,3,-1,-3,-2,-5,-4,-22,-10
1528443583255095,-3,-3,-3,1,0,-1,-6,-7
1528443583269394,0,13,4,1,1,0,6,5
1528443583269394,1,-3,-3,0,2,1,-2,-2
1528443583269394,0,-11,-4,1,2,2,-4,1
1528443583269394,-1,14,-1,-3,-5,-6,0,0
1528443583291458,7,3,0,1,1,4,-2,-3
1528443583291458,-8,5,-4,1,1,2,3,5
1528443583292292,-1,0,0,-4,-6,-4,-11,-12
1528443583292292,0,-6,-1,-1,-1,2,11,12
1528443583314595,-5,0,-3,-4,-7,-11,-14,-12
1528443583314595,1,3,0,-2,0,6,20,9
1528443583315431,0,1,1,-2,-5,-6,-12,-8
1528443583315431,3,-4,-1,3,5,2,0,3
1528443583328693,-5,0,-2,0,1,-1,-4,-5
1528443583328693,-2,-5,0,-1,4,6,-13,-9
1528443583336738,2,3,1,-2,-3,1,12,4
1528443583336738,0,-3,2,-1,-6,-4,-1,2
1528443583351910,2,1,-1,-2,-1,0,7,9
1528443583351910,0,-2,1,-1,-7,-7,-6,-3
1528443583351910,0,0,-2,-1,1,-2,1,3
1528443583351910,-1,-4,-1,0,-1,7,0,-3
1528443583374221,-3,1,-1,-1,-3,-7,-5,-4
1528443583374221,0,-3,-1,0,-1,-3,4,4
1528443583375207,-2,-1,-3,-1,-3,-1,0,1
1528443583375207,1,-1,0,-1,1,-1,4,4
1528443583388331,-1,3,-1,0,-2,-1,-4,-1
1528443583388331,-1,-5,-1,-1,1,0,0,-1
1528443583396309,-2,-1,-1,-4,-4,-6,-6,-3
1528443583396309,-4,-1,1,2,3,1,3,-1
1528443583411272,-1,0,-1,3,5,6,5,0
1528443583411272,-3,-1,-1,0,1,1,-1,-1
1528443583412111,-1,0,-1,1,3,2,-5,-8
1528443583412111,2,-2,-1,-4,-5,-3,5,5
1528443583435098,0,-2,-1,-1,-1,0,-2,0
1528443583435098,3,-1,-1,1,-1,-3,-2,0
1528443583435098,-5,-2,-3,-1,0,-1,-2,-2
1528443583435098,0,-4,-1,-2,-4,-2,-2,-2
1528443583448171,-2,0,0,-1,-1,-2,-2,-1
1528443583448171,-3,-3,-2,0,0,0,0,-1
1528443583456200,1,-1,-2,-1,-1,2,1,2
1528443583456200,-1,-3,-1,-1,0,-1,0,-2
1528443583471316,-1,-2,1,1,-3,-5,-5,-1
1528443583471316,1,0,1,0,-4,-1,-3,-1
1528443583472175,-2,-1,1,-1,-1,-1,-2,-9
1528443583472175,3,-1,-1,-1,1,5,8,13
1528443583494727,-2,0,-1,-4,-4,-4,-5,-6
1528443583494727,-4,-3,0,-1,-2,-5,-1,-2
1528443583495569,1,-1,0,0,1,4,0,1
1528443583495569,-2,0,1,-1,1,-2,-3,-3
1528443583508690,0,-1,0,-1,-3,-3,-1,-2
1528443583508690,1,0,-1,-3,-1,-3,-3,-1
1528443583516516,0,-1,-1,0,-2,-1,1,2
1528443583516516,-1,-2,-2,1,3,3,-3,-3
1528443583531611,-1,1,-3,-1,1,1,0,-1
1528443583531611,-1,-1,-2,0,-2,-3,-2,-3
1528443583532609,-3,-1,-2,-4,-2,-4,0,2
1528443583532609,-1,-1,-2,-1,-3,-4,-3,-1
1528443583554830,0,2,0,-2,-3,-2,-4,-5
1528443583554830,-1,-2,-1,1,-1,1,2,2
1528443583555719,0,0,-3,-1,0,0,3,0
1528443583555719,-1,0,-1,0,-1,-1,1,-2
1528443583568686,-3,0,-1,-2,-3,-1,-1,-1
1528443583568686,0,-1,-2,-3,-1,-2,-2,0
1528443583576771,0,-1,1,0,-1,-3,0,-1
1528443583576771,-1,-2,-2,-3,-2,-1,-3,-3
1528443583590805,-1,-2,-1,1,-1,-2,-3,-4
1528443583590805,0,0,-2,-3,-2,0,1,1
1528443583591791,-1,-2,-3,-2,0,1,0,0
1528443583591791,0,-1,0,5,6,0,-3,-1
1528443583614733,-2,-2,-5,-7,-6,-2,0,-2
1528443583614733,-1,0,0,1,2,0,-2,-8
1528443583615727,2,0,1,0,-1,-1,3,10
1528443583615727,-2,-1,0,-1,-2,-3,-1,-4
1528443583627696,-3,-2,-1,2,0,-1,0,0
1528443583627696,0,-1,-2,0,-1,1,1,0
1528443583636670,0,-2,-3,-1,-1,-2,-4,-3
1528443583636670,1,-1,-1,-4,-3,-1,-1,-2
1528443583651664,-1,-1,1,0,-1,-4,-1,0
1528443583651664,0,0,-2,-4,-1,-2,-1,-1
1528443583652627,-2,0,0,-1,0,0,-1,-3
1528443583652627,-1,0,0,-2,-2,0,-1,0
1528443583674951,-3,-2,-4,-2,-2,-1,-3,-4
1528443583674951,1,2,5,2,1,-2,-2,0
1528443583675863,-2,-3,-5,-5,-6,0,1,1
1528443583675863,-3,-3,-6,-7,-4,-1,-2,-4
1528443583696884,0,0,0,1,-1,2,3,4
1528443583696884,-3,-2,-2,-1,-1,-3,-2,-1
1528443583697724,-2,1,1,0,-3,-3,-2,-3
1528443583697724,-2,-1,-2,0,-1,0,1,-1
1528443583711051,1,-2,0,-1,1,0,-1,-3
1528443583711051,-3,-5,-4,-3,-2,-2,-5,-1
1528443583711909,-1,0,0,0,1,-1,5,3
1528443583711909,-1,1,1,-1,-1,-2,-2,-1
1528443583734324,-2,0,1,-2,2,1,-1,-3
1528443583734324,0,-1,-1,0,-2,-2,-1,-1
1528443583735165,-1,0,0,0,0,1,1,3
1528443583735165,-2,1,1,1,-2,-3,-13,-11
1528443583757107,-2,-2,-1,-2,-3,-3,-4,-4
