timestamp,emg1,emg2,emg3,emg4,emg5,emg6,emg7,emg8
1528453304512604,-1,-1,2,0,0,-1,-1,-1
1528453304512604,0,1,1,-2,0,0,1,-1
1528453304512604,-1,-2,-1,-1,-1,-1,-1,-1
1528453304512604,0,-1,0,-2,1,-1,-1,-1
1528453304513586,-2,-1,1,0,0,1,0,0
1528453304513586,-1,-1,0,-1,-1,-2,-1,-1
1528453304514584,0,0,-1,0,0,-1,1,-2
1528453304514584,-2,-1,0,-1,0,0,0,-1
1528453304525554,2,2,-1,0,-1,-2,0,-1
1528453304525554,0,-3,-4,0,-2,0,-2,-2
1528453304537521,-2,-1,0,-3,-2,0,1,-1
1528453304537521,-1,2,0,1,0,0,-1,1
1528453304540515,-1,-2,-3,-1,0,-1,-1,0
1528453304540515,0,-1,1,-1,0,0,-2,-1
1528453304555476,0,-1,0,1,0,0,-2,0
1528453304555476,-2,-1,-1,-2,-1,0,0,-1
1528453304565454,-2,-3,-5,-3,-1,-1,-2,0
1528453304565454,-1,1,0,1,0,-1,0,0
1528453304570434,-2,-1,0,0,0,1,-1,0
1528453304570434,1,-1,-2,-1,-2,-2,-1,-1
1528453304585394,-1,2,-1,0,-1,-1,-1,0
1528453304585394,0,1,-1,0,-1,-1,1,-1
1528453304601351,0,1,-2,1,-3,0,-1,0
1528453304601351,-1,-2,-3,3,-1,0,1,0
1528453304633266,0,1,0,0,1,0,0,0
1528453304633266,-1,1,-1,-3,0,-1,-1,-1
1528453304634264,-1,-5,-3,-1,0,0,1,-1
1528453304634264,0,2,3,-2,-2,0,0,0
1528453304635261,-1,2,4,0,-2,-1,1,0
1528453304635261,-1,-2,0,-2,-2,0,0,-1
1528453304639250,-2,-1,-1,-1,0,0,-1,0
1528453304639250,-2,-3,-2,-1,0,0,-1,0
1528453304645234,-2,0,-1,1,-2,-2,-2,-2
1528453304645234,0,0,0,1,-1,0,1,0
1528453304652215,-1,0,1,0,1,-1,-1,0
1528453304652215,1,-1,-2,-2,-1,-1,-1,-2
1528453304660195,-1,-2,-2,-2,-1,-2,0,0
1528453304660195,-1,0,2,0,-2,-1,0,-2
1528453304676152,0,0,-2,0,0,1,0,1
1528453304676152,0,0,3,0,0,-2,-1,0
1528453304684130,2,-2,-2,-1,-2,-1,-1,0
1528453304684130,1,-2,-1,0,0,-1,0,-2
1528453304690114,0,-1,2,0,0,-1,-2,-2
1528453304690114,-1,-1,-3,0,-1,-1,0,-1
1528453304706107,-2,-2,-2,-1,-1,0,0,2
1528453304706107,-1,-2,-1,0,-2,1,0,0
1528453304712093,1,2,1,0,0,-2,-2,-2
1528453304712093,0,-1,-1,0,1,0,-1,1
1528453304720067,-1,-3,0,0,0,0,-1,-2
1528453304720067,0,-1,-1,0,1,-1,-1,0
1528453304736026,-2,-1,-1,-1,0,2,1,-1
1528453304736026,0,0,-1,-1,-3,-1,-1,-1
1528453304750985,-1,-1,-1,-2,-1,1,0,-2
1528453304750985,-1,0,0,-1,-1,-1,-1,0
1528453304752980,0,0,0,-1,-1,-1,0,-1
1528453304752980,-1,0,-2,-1,0,-2,-1,0
1528453304765964,-1,-1,1,-1,1,-1,-1,-1
1528453304765964,-3,0,-1,-1,0,-1,0,1
1528453304772960,-2,-1,-1,-3,0,-1,0,-1
1528453304772960,-2,-2,-2,-1,0,0,0,0
1528453304779908,1,1,2,0,0,0,2,0
1528453304779908,1,0,-1,1,0,0,-2,0
1528453304794869,-1,0,-1,1,-2,-1,1,0
1528453304794869,-2,-2,-2,-1,0,0,-1,-1
1528453304802848,-1,0,-4,0,-1,1,-1,0
1528453304802848,-1,0,-1,0,0,0,1,-1
1528453304811833,-1,0,0,0,-2,0,-2,-1
1528453304811833,0,-1,-2,1,-2,-1,0,-2
1528453304825784,0,-1,1,0,-1,-2,1,-2
1528453304825784,-1,-2,-1,-1,0,0,-2,1
1528453304832768,0,1,0,-2,-1,1,-2,0
1528453304832768,-1,-1,1,0,1,0,-2,0
1528453304839749,-1,-1,-3,-1,-1,-2,-3,0
1528453304839749,0,-1,-1,0,-1,-1,-1,-3
1528453304854709,0,0,-1,-1,0,0,-1,0
1528453304854709,-2,-1,-1,-2,0,0,-2,-1
1528453304862687,-1,-2,-2,-1,1,-1,-1,-3
1528453304862687,-2,0,3,1,0,-2,-1,-1
1528453304869669,-1,-1,-1,-1,-3,-2,0,-3
1528453304869669,1,-1,-1,1,-1,-1,0,-2
1528453304885626,-2,-2,-2,-1,-2,0,-3,-1
1528453304885626,-1,0,-2,-1,0,0,-1,0
1528453304892608,0,-2,-2,1,-1,-3,-1,-1
1528453304892608,0,0,0,-1,-2,-2,-1,-3
1528453304899589,0,0,-1,-2,-1,0,0,0
1528453304899589,0,-1,-1,0,-3,-1,-2,0
1528453304914549,-1,-1,-1,0,-2,0,1,0
1528453304914549,0,-1,0,-1,0,-1,-2,0
1528453304923525,0,-1,0,1,1,1,-1,-2
1528453304923525,-2,-1,-1,-2,1,-1,-1,-2
1528453304929509,-1,1,-1,2,1,-1,0,-1
1528453304929509,0,1,0,-1,-1,-1,0,0
1528453304946462,0,0,-1,-1,0,-2,0,1
1528453304946462,1,1,3,-1,-2,-1,0,0
1528453304952447,0,-2,-1,-1,0,-1,0,-1
1528453304952447,-1,0,0,0,-1,0,0,-1
1528453304969401,-1,0,-1,0,0,-1,0,0
1528453304969401,0,0,-1,-2,1,-1,-1,-3
1528453304974390,-1,0,-1,-2,0,-2,-2,0
1528453304974390,0,-2,1,-3,-1,-1,0,0
1528453304984372,1,0,0,0,0,-1,1,-2
1528453304984372,1,1,-1,0,0,1,0,0
1528453304997327,0,-2,-1,-2,0,0,-1,-2
1528453304997327,-1,0,-2,-1,1,-2,0,0
1528453305006303,-1,0,0,-2,0,0,-1,0
1528453305006303,-1,-1,-2,1,-1,-2,-1,0
1528453305012289,-2,-1,-1,-1,0,-1,-1,-1
1528453305012289,-1,-1,-3,-1,-1,0,-1,0
1528453305029250,0,-1,0,-2,-1,0,-2,-1
1528453305029250,-1,1,-2,-1,0,-2,-1,1
1528453305035226,0,-1,-1,-2,-1,1,0,-1
1528453305035226,-1,-1,2,1,0,-2,-1,0
1528453305044203,0,-1,0,-1,-2,-3,-1,-1
1528453305044203,0,-2,-2,-1,-1,2,0,-1
1528453305057168,0,-1,-1,0,-1,-1,-2,-1
1528453305057168,-1,-2,-2,0,-1,-1,1,0
1528453305066144,-1,0,-1,-2,2,1,-1,0
1528453305066144,0,0,1,-1,0,-1,-1,-1
1528453305072128,-1,-1,0,-2,0,0,-2,-1
1528453305072128,-1,-2,-1,-1,-2,0,0,-3
1528453305089083,0,-2,-2,-1,-1,1,-2,-1
1528453305089083,-2,-2,-1,-1,0,-1,-1,0
1528453305104043,2,0,1,0,-1,-2,-2,1
1528453305104043,0,2,1,0,0,0,-2,0
1528453305105038,-1,0,-1,0,-1,0,-1,0
1528453305105038,-2,-1,-1,-1,0,-2,0,-2
1528453305117017,-1,-1,0,2,-1,0,0,-1
1528453305117017,-1,0,-3,-2,-1,0,-2,-1
1528453305125985,0,-2,-3,-1,0,1,0,0
1528453305125985,0,2,2,-1,2,-1,-2,1
1528453305131967,0,2,2,-1,-1,0,-2,-1
1528453305131967,0,0,0,0,0,0,-1,0
1528453305148923,-1,-1,-1,2,1,-2,-2,0
1528453305148923,0,-1,-4,0,-1,0,0,-1
1528453305154906,1,0,0,0,-2,1,0,-1
1528453305154906,1,0,0,-1,0,0,0,-2
1528453305163888,0,0,-1,0,-1,-1,0,-1
1528453305163888,0,-2,-2,-2,1,-1,0,0
1528453305177887,0,0,-1,0,0,0,-1,-2
1528453305177887,-1,-1,2,-1,0,0,-1,0
1528453305186857,-1,1,-1,1,-1,-1,0,-1
1528453305186857,-1,-2,-1,1,-2,-2,-2,-1
1528453305192842,-1,-2,-2,-1,-1,1,0,1
1528453305192842,-1,0,2,1,0,-2,0,0
1528453305208855,-2,0,0,-2,-1,0,-1,-2
1528453305208855,-1,-3,-1,-3,-1,1,0,0
1528453305214783,-1,-3,-3,0,1,-2,-1,-1
1528453305214783,-1,0,-2,0,1,0,0,-2
1528453305231209,-1,0,-3,0,0,-1,0,-2
1528453305231209,1,2,4,1,0,0,0,-1
1528453305237192,0,0,4,1,0,-1,-1,0
1528453305237192,-1,-1,0,-3,-2,-1,-1,-2
1528453305246169,0,0,1,-1,-2,0,-3,-1
1528453305246169,0,-1,-5,-1,-1,-1,-1,0
1528453305252154,-2,-1,-3,-1,0,0,-2,0
1528453305252154,-1,-3,-4,0,0,-3,0,0
1528453305269108,-1,1,-3,-4,0,0,-1,0
1528453305269108,-1,-2,0,1,-1,0,-3,-2
1528453305275494,-1,1,0,-1,-1,-1,-1,1
1528453305275494,0,1,2,1,2,1,0,-1
1528453305284067,0,-1,0,-1,0,-1,0,0
1528453305284067,-1,-1,0,-1,2,1,1,-2
1528453305306008,0,-1,-3,-1,0,-1,-1,-2
1528453305306008,0,1,-1,-1,0,-1,-2,1
1528453305308003,-1,0,1,0,0,0,2,0
1528453305308003,0,0,-3,-3,-2,-2,1,0
1528453305312037,-1,0,-1,-1,0,-2,-1,-2
1528453305312037,-1,0,-1,-2,-1,0,1,-1
1528453305328947,-2,0,1,1,-1,-1,-1,-1
1528453305328947,0,-1,-1,2,-1,-1,0,0
1528453305334932,-1,-1,-3,-1,0,-1,-2,0
1528453305334932,-1,-1,-1,0,0,0,-1,0
1528453305343917,1,-2,0,-1,0,-1,0,-1
1528453305343917,-1,-1,-2,1,0,-1,-1,-2
1528453305356873,0,1,1,-2,0,1,0,0
1528453305356873,1,0,-1,0,-1,-1,0,1
1528453305366848,0,-1,-2,2,-1,0,-1,0
1528453305366848,-1,0,0,0,0,-1,-1,-2
1528453305372832,-1,-1,0,0,0,0,0,-1
1528453305372832,0,-1,-2,0,0,0,-2,-1
1528453305388815,0,0,0,-1,-2,-1,-1,-1
1528453305388815,-1,0,-1,-1,-1,-1,-2,-1
1528453305394770,0,-1,-1,-1,-2,-1,1,0
1528453305394770,-1,-1,0,-1,-1,-1,1,0
1528453305403748,0,-2,-2,-1,0,-1,1,0
1528453305403748,-2,-1,-2,-4,-1,-1,0,-1
1528453305417709,1,0,2,0,1,-2,-3,-1
1528453305417709,-1,-1,0,0,-1,-1,-1,-1
1528453305426686,-1,0,1,-1,0,-1,-2,-1
1528453305426686,-1,0,0,1,0,-1,0,1
1528453305432711,-2,-1,-1,-1,-1,-1,0,0
1528453305432711,0,-1,-1,-1,-2,0,-1,-3
1528453305448673,1,-1,1,-1,-1,0,-2,-1
1528453305448673,0,-1,1,-1,-2,1,-1,1
1528453305454923,0,-2,-1,-1,1,1,1,-1
1528453305454923,-2,1,0,0,-1,-1,0,-2
1528453305463941,0,0,-1,0,-1,-1,0,-1
1528453305463941,0,0,0,-2,1,0,-2,1
1528453305478066,1,-1,1,0,-2,-2,-1,1
1528453305478066,1,-1,-2,-1,-1,0,-2,-1
1528453305486818,-1,-2,0,0,0,0,-2,-2
1528453305486818,0,-1,1,0,0,-1,1,0
1528453305493071,-1,-1,-3,-1,0,1,1,-1
1528453305493071,-1,-1,3,1,1,0,-1,0
1528453305509791,1,0,-1,0,0,0,-1,-1
1528453305509791,0,-1,1,1,-1,0,-1,-1
1528453305515743,2,1,-2,-3,-1,-1,-1,0
1528453305515743,0,-1,-3,0,0,0,-2,0
1528453305524769,-1,1,1,0,-1,-1,-2,-1
1528453305524769,-2,-1,1,1,0,-1,1,0
1528453305537951,-1,0,-1,-1,-2,-1,-1,-2
1528453305537951,-2,0,-1,0,-3,0,1,0
1528453305547176,0,-1,1,3,-1,-1,-2,-1
1528453305547176,1,1,0,-2,-1,-4,-1,-3
1528453305552384,0,2,1,-5,0,0,-1,0
1528453305552384,0,-3,-4,-3,0,-2,-1,1
1528453305569066,-1,-1,-1,0,0,-2,-2,0
1528453305569066,-1,-3,-3,-2,-2,0,-1,0
1528453305584025,-1,-1,-2,0,0,-1,-1,0
1528453305584025,1,0,0,0,0,1,-2,-3
1528453305585023,-1,-1,-1,-2,-1,0,0,1
1528453305585023,-1,2,0,1,-1,-2,-2,1
1528453305596992,1,-1,-2,0,0,-2,-1,-1
1528453305596992,-1,0,1,-2,-1,0,0,-1
1528453305605967,0,1,-2,0,-1,0,1,1
1528453305605967,2,0,-1,0,-1,-1,0,-1
1528453305620944,0,-2,0,0,0,1,-1,-2
1528453305620944,0,1,0,0,0,-1,-1,-1
1528453305627969,-1,0,-1,-3,0,0,0,-2
1528453305627969,-2,-2,-2,-4,-3,-2,0,-2
1528453305643674,-2,-1,-3,1,-1,0,-2,-1
1528453305643674,-1,-2,0,3,0,-1,-1,-1
1528453305645609,-1,0,1,-1,0,0,-1,-2
1528453305645609,0,-1,-2,1,-1,0,-2,0
1528453305657577,-1,-1,0,-3,-2,-2,-1,-2
1528453305657577,0,-2,0,6,2,0,0,-2
1528453305666552,-1,-1,-1,4,1,0,0,1
1528453305666552,0,0,-1,-2,0,-2,0,-1
1528453305680515,-2,-1,1,-1,-2,-2,1,0
1528453305680515,-2,0,-2,-6,-1,-1,-1,-1
1528453305687497,0,1,-1,-3,-1,0,1,1
1528453305687497,0,-2,-1,-17,-4,0,-1,0
1528453305703453,0,-1,-1,1,-2,-1,1,-2
1528453305703453,0,-1,1,13,2,1,-1,-4
1528453305705449,0,-1,-3,1,0,0,-1,2
1528453305705449,0,0,-1,3,0,0,-1,-1
1528453305717418,0,1,-1,-4,0,0,0,0
1528453305717418,0,0,-1,-7,-3,-1,-1,2
1528453305726393,-1,-1,-4,-8,-5,-4,-1,1
1528453305726393,1,-1,-1,-8,-2,-2,-2,-12
1528453305740355,1,1,5,23,5,2,1,-2
1528453305740355,-1,-1,-1,1,0,-2,-1,0
1528453305749353,1,-1,1,3,2,-3,-2,0
1528453305749353,-1,0,0,-5,0,-1,-1,0
1528453305763349,-2,-1,-1,0,-1,-1,-1,-1
1528453305763349,-1,1,-2,3,0,1,-1,0
1528453305765297,-1,-1,-2,-23,-6,0,0,-1
1528453305765297,-2,1,2,2,-1,-1,0,2
1528453305786232,-2,-2,-4,-7,-2,0,-1,0
1528453305786232,1,-1,-2,1,1,0,1,2
1528453305788227,-1,0,3,3,2,1,-1,0
1528453305788227,0,0,0,2,0,0,-1,-1
1528453305800195,-1,-2,-1,2,-2,1,0,0
1528453305800195,-1,-3,1,-2,-4,-1,-1,0
1528453305807178,0,0,2,5,2,0,-1,-2
1528453305807178,-1,-3,-2,6,2,-1,0,-2
1528453305824131,0,-1,-1,-4,0,-2,0,2
1528453305824131,-1,-2,1,-8,-3,-2,-2,-2
1528453305825129,1,-1,-1,2,-1,1,0,-2
1528453305825129,-1,2,0,0,1,0,-3,3
1528453305837150,-2,0,-1,-3,-1,-3,-3,3
1528453305837150,-1,-2,-1,0,-1,0,2,-26
1528453305846109,-1,-1,0,12,3,0,0,6
1528453305846109,-3,-3,3,9,5,0,-1,1
1528453305861089,1,-3,-5,-4,-1,-1,-1,2
1528453305861089,-1,-2,-4,-19,-5,-2,1,2
1528453305867074,-2,0,6,7,-1,-1,-1,-3
1528453305867074,1,0,1,3,-3,-1,1,3
1528453305883972,-4,-2,1,1,-1,-3,-3,-2
1528453305883972,2,1,-2,-1,-1,0,-2,7
1528453305884970,2,0,-9,-11,-2,0,2,0
1528453305884970,0,-2,-3,-2,-1,-1,-1,-1
1528453305897936,1,2,2,3,-1,1,-1,-1
1528453305897936,-2,0,0,-2,-3,-1,0,3
1528453305906911,-2,-3,-3,0,-1,1,0,0
1528453305906911,-3,-1,2,5,2,2,0,-1
1528453305920874,-1,0,-1,-4,-3,-2,-2,-2
1528453305920874,-1,-2,-5,-5,-1,0,-1,2
1528453305936831,-1,0,3,3,1,-1,-2,4
1528453305936831,-4,0,-2,2,0,-1,-3,-2
1528453305943813,6,1,0,-6,0,2,2,-14
1528453305943813,4,1,0,-4,1,-1,3,22
1528453305945807,-1,-1,0,10,-3,-4,-1,-2
1528453305945807,-2,-3,0,5,2,0,1,11
1528453305957775,-3,-2,0,-2,-1,-3,0,-5
1528453305957775,-2,0,1,-2,0,1,-1,-3
1528453305966751,-2,-4,-5,-9,-2,-2,0,-1
1528453305966751,2,2,-6,-8,-5,0,-1,-9
1528453305988691,-1,3,10,0,1,0,0,2
1528453305988691,0,-1,1,3,1,0,1,1
1528453305990686,-3,-1,-3,0,-1,0,-1,-1
1528453305990686,0,-3,-1,0,0,-1,-2,0
1528453306003651,-2,-2,-5,-5,-3,-1,-2,2
1528453306003651,1,3,-2,1,0,0,-1,4
1528453306005653,1,-4,1,2,1,1,-1,0
1528453306005653,-4,0,1,-4,-3,-4,-5,-20
1528453306017614,0,-2,-6,-1,1,1,6,3
1528453306017614,-3,-2,3,7,3,-2,-3,-9
1528453306026697,-2,0,-6,-14,-4,-1,0,-4
1528453306026697,2,-1,3,8,-2,-2,1,12
1528453306048638,-2,1,-1,-17,-1,-1,-4,-6
1528453306048638,-2,-3,0,18,0,-1,-2,-4
1528453306050664,-1,-1,2,17,5,2,0,3
1528453306050664,-2,-1,-4,-12,-4,-2,-1,-10
1528453306064151,1,-1,-2,4,-2,0,0,3
1528453306064151,0,-1,0,-13,-2,-1,1,2
1528453306065169,1,1,1,-7,-3,-2,-1,-4
1528453306065169,3,-2,0,5,1,0,1,5
1528453306077110,1,-1,-1,2,1,0,0,1
1528453306077110,-2,-2,-2,-2,0,0,-1,5
1528453306086459,0,-1,0,3,-2,-1,1,-15
1528453306086459,1,0,0,-4,0,-1,1,4
1528453306101368,-1,1,3,-4,-2,1,0,4
1528453306101368,0,-1,3,0,-2,-2,-3,-8
1528453306108290,-9,-2,-6,-5,0,-2,-2,0
1528453306108290,7,-2,-10,5,0,-1,2,-1
1528453306124065,1,1,2,10,4,1,0,9
1528453306124065,-1,4,6,3,-5,-3,-4,-21
1528453306125116,3,-2,-1,-6,1,2,4,34
1528453306125116,-3,-2,-2,2,-1,0,1,-2
1528453306137994,-1,-1,-10,-23,-4,-2,-1,-1
1528453306137994,2,-2,-4,6,0,-1,0,4
1528453306146397,0,5,14,16,5,1,-1,-11
1528453306146397,-1,0,1,-4,-2,0,-2,0
1528453306160748,0,-2,0,3,-2,-1,-1,4
1528453306160748,-3,-2,-7,-11,-2,-2,-2,2
1528453306167675,2,0,-6,-9,-5,-2,1,-11
1528453306167675,-1,2,4,2,1,-1,0,6
1528453306183122,-2,-4,-1,3,1,0,-1,-8
1528453306183122,0,-1,-3,-5,-3,-1,1,2
1528453306190106,0,1,2,4,0,-1,-2,-7
1528453306190106,0,0,0,-7,-1,-2,0,15
1528453306197087,1,0,-3,3,-3,-2,4,17
1528453306197087,-2,0,2,10,3,0,-1,-6
1528453306206081,3,-2,1,-4,-1,0,3,7
1528453306206081,-4,-2,0,-6,-1,2,-2,-4
1528453306221293,-1,-1,-3,-1,-1,-1,-2,-4
1528453306221293,1,-2,-2,-2,1,1,1,3
1528453306227008,-2,1,-7,-11,-3,-2,-3,-3
1528453306227008,-1,2,5,13,1,-3,-1,-6
1528453306244001,-2,-3,1,14,4,-1,-1,0
1528453306244001,-1,-1,3,-18,-1,1,0,0
1528453306250187,2,-1,-5,-32,-7,-1,0,8
1528453306250187,-2,0,-3,5,-2,1,0,-3
1528453306257955,1,2,0,9,4,-1,1,0
1528453306257955,-3,-2,-3,7,0,-1,0,9
1528453306266922,-1,-3,-1,-3,-3,-3,-3,-2
1528453306266922,2,3,3,-5,-2,2,0,-3
1528453306280888,-2,-1,2,3,0,-3,-2,-3
1528453306280888,0,-1,-1,-2,-1,-1,-1,-8
1528453306287870,1,-1,-4,-8,1,-1,-1,1
1528453306287870,-1,-2,-5,3,1,1,-1,-2
1528453306303088,-2,0,0,4,-2,0,-2,-9
1528453306303088,0,1,-2,-2,0,0,0,1
1528453306310380,-3,-1,0,11,1,-2,-4,-12
1528453306310380,3,1,0,-9,-2,0,2,17
1528453306318151,-1,-1,0,-7,0,0,1,-1
1528453306318151,-1,-1,-1,3,-1,0,1,-1
1528453306326405,0,0,-2,3,-3,-1,0,1
1528453306326405,0,-2,-2,-1,1,-1,-1,0
1528453306340609,-2,1,0,-3,-2,-1,-2,-3
1528453306340609,-1,-2,-2,-1,1,-1,-2,4
1528453306349321,-2,0,3,26,4,0,1,-3
1528453306349321,-1,-2,-4,-17,-1,-1,0,-6
1528453306363572,-1,-3,-6,-17,-7,-2,-2,-2
1528453306363572,0,2,6,4,0,0,0,4
1528453306369559,-1,0,1,-5,-2,-1,-1,1
1528453306369559,0,-1,-2,12,2,-2,-1,-3
1528453306377569,-1,0,-1,6,1,-1,0,1
1528453306377569,-1,-1,-3,-4,-3,0,-1,-7
1528453306386513,-2,-1,3,4,-1,-1,-2,-1
1528453306386513,-2,-1,0,-3,-3,-1,-1,-2
1528453306400716,-1,-1,-3,-9,-3,-1,-1,-4
1528453306400716,-1,0,-2,-3,0,-2,0,0
1528453306407700,-2,-2,-2,6,1,0,0,-5
1528453306407700,-2,-1,3,5,1,0,-2,-12
1528453306423654,1,0,3,0,0,0,2,15
1528453306423654,0,0,0,-1,0,-1,1,-1
1528453306430496,-1,-2,-5,-9,-1,-2,-1,0
1528453306430496,1,0,3,-3,-1,-1,0,-4
1528453306446644,-3,-1,-1,1,0,0,-1,-8
1528453306446644,2,0,0,3,-1,-1,2,5
1528453306447600,1,0,-1,-1,0,1,1,-1
1528453306447600,-2,-2,-3,0,-1,0,-2,-2
1528453306460790,0,0,3,7,1,0,0,-6
1528453306460790,-3,-1,-2,-8,-1,-1,-2,4
1528453306468020,0,0,-1,1,-2,1,1,-10
1528453306468020,0,0,-4,0,-1,0,1,3
1528453306483764,-1,0,-2,-4,-1,1,-1,0
1528453306483764,-1,-1,1,8,1,0,0,-3
1528453306489736,0,-1,-1,0,0,-1,-2,4
1528453306489736,0,-2,-2,-3,-2,-3,0,1
1528453306506400,-2,1,-1,2,0,0,-1,-3
1528453306506400,0,-3,-2,-1,-1,0,-1,-10
1528453306508584,0,0,0,-1,1,1,1,11
1528453306508584,0,0,1,0,0,-1,0,1
1528453306520362,-1,-4,-5,-2,-3,-2,0,-3
1528453306520362,-1,-2,-4,-5,-4,-2,-2,-10
1528453306527391,2,1,6,1,0,1,-1,11
1528453306527391,-1,2,0,11,0,1,0,-3
1528453306551541,-2,-1,0,-8,0,-2,-1,2
1528453306551541,0,0,-3,-1,-1,-2,0,3
1528453306553274,-1,-2,-3,-2,-2,-1,-1,-6
1528453306553274,-2,-3,-5,-2,1,0,-1,3
1528453306566543,-1,1,2,8,4,2,0,-3
1528453306566543,-1,2,0,-17,-3,-1,2,3
1528453306567541,-1,0,-3,1,1,0,0,-3
1528453306567541,1,0,1,-1,1,-1,-1,1
1528453306580506,-1,-1,-1,4,-2,0,-1,-3
1528453306580506,-1,-2,-2,4,2,1,1,1
1528453306587908,-1,-3,-5,-4,0,0,-2,-1
1528453306587908,-1,3,6,1,1,1,-1,-2
1528453306603472,0,-1,0,-5,-3,-3,0,-1
1528453306603472,0,1,1,-1,-1,-1,-1,1
1528453306618039,-2,0,-1,6,0,0,-2,-2
1528453306618039,-2,-2,-2,-4,-3,-3,0,0
1528453306627012,-1,-2,1,1,1,-1,0,1
1528453306627012,-1,-1,2,-3,0,0,-1,-2
1528453306628010,2,1,-2,3,-1,0,1,3
1528453306628010,0,-2,-1,-6,0,0,0,0
1528453306641235,-2,0,-1,-2,-2,0,0,1
1528453306641235,-1,-2,0,2,-2,-1,-1,-1
1528453306647270,-2,1,1,0,-1,-1,-2,-2
1528453306647270,1,-1,-1,-1,-2,-1,2,0
1528453306663272,0,0,0,1,-1,0,0,-1
1528453306663272,2,0,-3,3,-1,0,-2,2
1528453306670210,-1,-2,-1,-6,-1,-2,0,-1
1528453306670210,-1,0,0,2,0,-1,-2,0
1528453306686200,-2,-3,-2,-2,-1,-1,0,-2
1528453306686200,0,-3,-1,1,1,-1,-1,-1
1528453306688161,-1,0,1,-3,-1,-1,0,-2
1528453306688161,0,-2,-2,-2,-2,0,-2,0
1528453306701322,0,2,3,0,1,-2,0,-2
1528453306701322,-1,0,-1,2,2,0,-1,2
1528453306707669,-1,-1,-2,-1,-2,-1,0,-2
1528453306707669,-1,-1,-4,-2,-1,0,-2,1
1528453306723682,0,-1,-1,-1,-1,-1,-2,0
1528453306723682,1,1,-1,0,-1,-1,-2,1
1528453306730065,-1,0,-2,-2,0,0,-1,0
1528453306730065,-2,-1,-2,0,0,-1,0,-2
1528453306753843,1,0,0,-2,-2,-2,-1,0
1528453306753843,0,1,2,2,-1,0,0,0
1528453306755598,0,-1,-2,-2,-2,-2,-1,-2
1528453306755598,1,0,0,-2,0,-1,1,-2
1528453306760829,1,-3,-2,0,1,-1,-2,1
1528453306760829,-1,-1,0,2,1,-1,-1,-1
1528453306767814,0,-2,0,-3,-1,-2,0,1
1528453306767814,-1,-2,-2,1,-3,1,-2,-1
1528453306783759,-1,1,0,2,-2,-1,-1,0
1528453306783759,-1,0,-1,-1,-1,-1,0,-1
1528453306790584,-1,0,1,-1,-1,1,-2,0
1528453306790584,0,1,-3,-4,-1,0,-1,0
1528453306807005,1,0,-1,0,0,0,1,0
1528453306807005,-2,-1,1,0,-1,-1,0,-1
1528453306807752,1,-2,0,1,-1,0,-1,0
1528453306807752,-2,-2,0,-2,-3,-1,-2,0
1528453306820731,-1,-2,-1,0,1,1,0,-1
1528453306820731,0,-1,0,0,0,-3,1,-2
1528453306828155,0,0,1,1,-2,-2,-1,-1
1528453306828155,-1,0,0,0,0,-1,1,-1
1528453306843994,0,-1,0,-1,0,-1,-1,-1
1528453306843994,0,0,0,0,-1,-1,0,0
1528453306850735,-2,-1,-2,-1,1,-3,-2,-2
1528453306850735,1,1,0,0,-1,-2,0,-1
1528453306866716,-3,0,-2,-2,-2,0,0,-1
1528453306866716,-1,-1,-2,0,0,-1,-1,-1
1528453306867831,-1,-1,-1,-2,0,-1,0,1
1528453306867831,-1,-1,0,-1,-1,0,-1,-1
1528453306879929,-1,0,-1,-1,-1,0,-1,-1
1528453306879929,-2,0,-1,-2,0,-1,-2,-2
1528453306888847,-3,-2,-1,-1,1,-1,1,-1
1528453306888847,-1,-1,-2,-7,-2,-1,0,0
1528453306903423,-1,-1,-1,2,-2,1,-1,-2
1528453306903423,0,0,-1,-1,-1,1,-1,1
1528453306910169,0,2,-1,-1,0,0,0,0
1528453306910169,-1,0,0,0,-1,-1,0,-1
1528453306926660,0,-1,-3,-5,-2,-2,0,1
1528453306926660,-1,-3,0,6,2,2,0,1
1528453306927404,0,-2,-1,2,0,0,-2,-1
1528453306927404,-1,-2,-2,0,-1,-1,-1,-1
1528453306940601,-1,-1,0,-1,0,-2,-2,1
1528453306940601,-1,0,-2,-2,-2,-2,2,0
1528453306949345,0,0,1,-1,-2,0,0,-2
1528453306949345,-1,-1,0,3,-1,-3,-2,2
1528453306971547,1,2,0,-3,-1,1,1,-1
1528453306971547,-1,2,0,-4,-1,0,0,0
1528453306973281,-2,-1,-1,-1,-1,1,-1,-1
1528453306973281,-1,-2,-1,0,1,-1,-1,0
1528453306986499,0,-1,-1,0,1,-1,0,-1
1528453306986499,-1,-1,-1,0,-2,0,0,-1
1528453306988492,0,-1,0,-3,-1,-3,-2,-1
1528453306988492,0,-1,-1,0,0,-2,-1,-2
1528453307000433,0,0,-1,-2,-1,0,0,-1
1528453307000433,-1,-1,-2,-1,-3,0,0,0
1528453307009619,-1,0,3,1,0,0,0,0
1528453307009619,-1,-1,1,4,3,0,0,0
1528453307023784,-1,0,-1,4,0,0,-1,-1
1528453307023784,0,-2,-2,0,-1,0,-1,0
1528453307029799,0,0,-1,-1,-2,0,0,-1
1528453307029799,1,-1,-2,-5,-2,1,0,-1
1528453307046754,-1,-2,-1,-3,0,-1,-2,-2
1528453307046754,-1,-3,-3,-3,-1,-1,-1,-1
1528453307047519,-1,0,-2,2,-1,-1,0,0
