timestamp,emg1,emg2,emg3,emg4,emg5,emg6,emg7,emg8
1528279167319144,-1,1,0,0,0,-1,-1,-1
1528279167319144,0,-1,0,-2,0,-1,-1,-1
1528279167328119,1,0,-1,-1,-1,0,-1,0
1528279167328119,-1,0,-1,2,1,0,1,-1
1528279167341085,0,0,1,-1,-2,-2,-1,0
1528279167341085,-1,-1,-1,0,-2,0,-1,-1
1528279167348067,-2,-2,0,-1,-1,-1,0,-1
1528279167348067,-1,-2,1,-1,-1,-1,-2,1
1528279167361031,0,0,0,0,0,1,1,-1
1528279167361031,1,-1,0,-1,1,2,0,-1
1528279167373001,-2,0,-1,0,0,0,0,-1
1528279167373001,0,-1,-1,-3,0,-1,0,-1
1528279167384994,-1,-2,-2,0,1,-2,-1,0
1528279167384994,-2,0,-2,-1,-3,0,-1,1
1528279167425860,1,0,0,-1,-2,-2,-1,0
1528279167425860,-1,-1,-1,0,-1,0,0,-1
1528279167429848,-2,-2,-2,0,-2,1,0,0
1528279167429848,0,0,-1,0,-2,-2,-1,0
1528279167430845,0,-1,-1,-1,-1,-1,-3,-2
1528279167430845,0,-2,-1,0,0,0,0,0
1528279167431843,-1,-1,0,0,-1,-2,-1,-1
1528279167431843,-2,-1,0,-3,-1,-1,0,-1
1528279167435832,-1,-1,0,-1,0,-1,0,0
1528279167435832,-1,-2,0,0,-1,0,-2,-1
1528279167444809,0,0,1,-1,-1,-1,-1,0
1528279167444809,1,-1,1,1,0,0,1,0
1528279167450840,-1,-3,-1,0,-2,1,0,-1
1528279167450840,0,0,1,-2,0,-1,2,-1
1528279167467748,0,0,-2,-2,0,0,0,-2
1528279167467748,1,-1,-1,0,0,0,-2,-2
1528279167473731,0,0,-1,-2,1,-1,-1,1
1528279167473731,0,1,0,0,-1,0,-3,-3
1528279167496673,-1,0,-1,0,1,0,0,0
1528279167496673,-1,-1,-1,-1,-1,0,-1,1
1528279167497667,0,1,-2,1,-2,1,-3,-1
1528279167497667,-1,0,-1,0,-2,-1,0,1
1528279167511637,1,-1,0,-2,0,0,1,0
1528279167511637,-2,-1,0,-1,-1,-2,-2,-2
1528279167512628,0,1,-1,-1,0,-2,1,-1
1528279167512628,0,0,-1,-2,-1,-2,-1,1
1528279167534569,0,-1,-2,1,-2,-2,0,-1
1528279167534569,0,-1,-1,-1,-1,-1,3,1
1528279167535566,0,-1,-1,-1,1,0,-7,-1
1528279167535566,-1,0,0,-1,0,-1,0,-1
1528279167556510,-1,-1,0,-1,-1,0,0,0
1528279167556510,0,-1,-1,-1,1,0,-1,0
1528279167557506,0,-1,-1,0,1,-1,1,-2
1528279167557506,-1,-1,-1,-1,0,-2,0,0
1528279167571471,0,-1,0,0,-1,-2,-2,-1
1528279167571471,-1,-2,-1,0,-1,1,-1,-1
1528279167572470,-3,0,-1,0,-1,-1,1,0
1528279167572470,0,-1,1,-1,0,-2,0,-1
1528279167594463,1,-1,0,-3,0,-1,0,-2
1528279167594463,-1,-1,-1,-1,0,0,-2,-2
1528279167595406,0,0,0,0,-2,-1,1,0
1528279167595406,0,-1,-2,0,-1,-1,-1,-1
1528279167616350,-1,-2,-1,-1,-1,-1,-2,-1
1528279167616350,0,0,-1,-1,-1,-2,0,-2
1528279167617347,1,0,-1,0,0,1,0,-1
1528279167617347,-1,1,-1,0,0,0,-1,-1
1528279167632308,0,0,-1,0,-1,-1,-1,0
1528279167632308,1,0,-1,-2,-1,0,-1,0
1528279167632308,-1,-2,1,0,1,-1,-1,0
1528279167632308,-2,-1,0,-1,-1,0,0,-1
1528279167654257,-1,0,0,0,0,0,-1,-1
1528279167654257,-1,0,-1,-1,0,-1,-1,-1
1528279167655248,0,0,0,-2,-1,-1,0,0
1528279167655248,0,0,-1,-1,-1,-1,-2,-1
1528279167677228,0,0,0,1,-2,-1,0,0
1528279167677228,-1,1,1,0,-1,-1,-1,-3
1528279167677228,0,-1,0,0,-1,-1,1,0
1528279167677228,1,-3,-3,-2,0,-1,-1,0
1528279167692147,-1,0,-1,-1,-1,0,0,0
1528279167692147,-1,0,0,-1,0,1,0,0
1528279167693146,-1,-2,0,0,-1,-1,-1,-1
1528279167693146,0,-1,-2,-1,0,1,-1,-1
1528279167714088,-1,-1,0,-1,-1,-3,1,-2
1528279167714088,-1,-1,-2,-2,0,-1,0,0
1528279167715086,-1,-1,-1,-1,-1,-1,1,-2
1528279167715086,0,0,-1,0,0,0,0,0
1528279167737028,0,1,-1,0,-1,-1,-1,0
1528279167737028,0,-2,0,0,0,-2,0,0
1528279167738028,-3,-1,0,1,0,0,-1,-1
1528279167738028,1,0,-1,0,-1,-1,-1,-1
1528279167751988,-1,0,-1,-2,0,1,0,-2
1528279167751988,0,-1,0,0,-1,0,-1,-1
1528279167752986,0,0,0,-1,-1,-1,0,0
1528279167752986,-1,-1,0,0,-1,0,-1,0
1528279167773930,-1,1,-2,-1,-2,0,-1,1
1528279167773930,-1,-1,-1,0,0,0,1,1
1528279167774925,0,0,-1,-1,-1,-2,-2,-1
1528279167774925,-2,0,-1,-1,0,-2,2,-1
1528279167796869,0,-1,0,0,-1,-1,-1,-1
1528279167796869,0,-1,-1,-1,-1,-2,-1,1
1528279167797866,0,-2,1,1,-1,-1,-1,1
1528279167797866,-1,-1,-2,-1,0,-1,-1,0
1528279167810831,-1,-2,1,1,1,1,-2,-2
1528279167810831,0,0,0,0,0,-1,-1,0
1528279167818826,0,-1,-1,-5,-5,0,1,-1
1528279167818826,0,0,-1,1,-1,0,0,1
1528279167834767,-1,-1,0,-2,-1,0,0,-1
1528279167834767,-1,0,0,-1,-1,-2,0,0
1528279167834767,1,0,-1,1,0,-1,-1,2
1528279167834767,1,-3,0,-2,-1,-2,-2,-3
1528279167856711,0,-2,-1,-2,-2,-1,-2,0
1528279167856711,-1,0,-1,0,-2,0,-2,-1
1528279167857705,-2,0,-1,-1,1,0,-1,2
1528279167857705,-1,-2,0,0,-1,-1,0,0
1528279167871668,-1,-1,-2,1,0,-2,0,-1
1528279167871668,1,-1,-1,-1,-1,-1,0,0
1528279167878648,-1,-2,-1,-2,0,-1,-1,-2
1528279167878648,-1,1,1,-2,-1,-1,0,0
1528279167894606,-2,-3,0,-2,-2,-2,-1,-1
1528279167894606,0,0,0,0,-2,1,1,0
1528279167895605,0,-1,0,2,-1,0,0,-1
1528279167895605,0,-1,0,-1,-1,0,-2,0
1528279167916599,0,-2,0,-1,-2,-2,0,0
1528279167916599,0,-1,-1,-1,-1,-1,-1,1
1528279167917554,-1,-1,0,3,0,0,-1,-1
1528279167917554,0,-1,-1,0,0,0,1,1
1528279167931761,-2,1,2,-1,0,-2,-1,0
1528279167931761,-1,-1,0,-2,0,0,-2,0
1528279167939494,-1,0,-4,-2,-2,-1,0,-1
1528279167939494,-1,0,-1,-1,0,0,0,0
1528279167954784,-1,-1,-1,-1,0,-1,-1,0
1528279167954784,0,-2,0,-1,-1,-2,-2,0
1528279167955596,0,0,0,-1,0,0,-1,-1
1528279167955596,-1,-1,0,0,0,-1,-2,0
1528279167976544,2,1,-2,0,2,2,0,1
1528279167976544,-1,0,0,-1,0,-1,0,0
1528279167977540,0,0,0,-1,-1,-1,1,1
1528279167977540,-1,-1,-1,-1,-1,-2,-1,-1
1528279167991504,-1,1,0,-1,0,-1,-2,-1
1528279167991504,-1,-1,0,0,0,1,-1,-1
1528279167998483,-2,-1,-1,0,0,-1,-2,-1
1528279167998483,0,-2,-1,0,-1,1,-1,-1
1528279168014741,0,-3,-1,-2,-1,0,-1,2
1528279168014741,-1,-1,-1,0,0,-1,0,-1
1528279168022420,1,0,0,-2,2,0,0,0
1528279168022420,-1,-2,0,-1,0,-1,-1,0
1528279168037737,0,-1,-1,-1,-1,-2,-1,-1
1528279168037737,0,0,0,-1,-1,0,-1,-1
1528279168038378,1,-2,-1,0,0,-1,0,-1
1528279168038378,-1,0,-1,-1,-1,0,-2,0
1528279168051773,-1,-2,-1,2,-1,0,-1,0
1528279168051773,-1,-1,-2,-1,0,-3,-2,0
1528279168058325,0,-1,2,0,-2,0,-2,0
1528279168058325,0,0,0,-1,-1,-1,-1,-1
1528279168083312,0,0,-1,0,-1,0,-2,-1
1528279168083312,-1,-1,-1,2,-1,0,0,0
1528279168083312,-2,1,-1,-1,-1,1,0,-1
1528279168083312,1,0,-1,0,-1,0,1,2
1528279168096601,-1,0,0,0,-2,1,0,0
1528279168096601,0,-1,0,0,-1,-1,-1,-1
1528279168097599,-1,-1,-1,0,0,0,0,0
1528279168097599,-2,0,-1,1,0,1,0,-1
1528279168111576,0,0,-2,-1,0,-1,0,-1
1528279168111576,0,-1,-2,-1,-1,1,0,0
1528279168118899,-2,-3,1,1,-1,-2,-1,-2
1528279168118899,-1,-1,-1,-1,0,-1,0,-1
1528279168135132,0,-1,-1,0,-2,0,-1,-1
1528279168135132,0,-3,0,0,-1,0,0,-1
1528279168135132,0,-2,0,-1,-1,1,-1,-1
1528279168135132,-1,-1,0,-2,0,-1,0,0
1528279168165872,0,0,0,-1,-1,-2,2,-1
1528279168165872,1,0,-3,-1,-1,-1,0,0
1528279168165872,-1,-1,1,0,-2,-1,0,-1
1528279168165872,0,0,0,-2,-2,-1,-2,-1
1528279168171992,0,0,-1,1,0,0,0,-1
1528279168171992,0,1,-1,-1,1,1,-1,-1
1528279168179966,1,-1,0,1,-2,-1,1,-1
1528279168179966,0,-1,-1,-1,0,-1,0,0
1528279168194657,-2,-2,1,-2,-1,0,-3,1
1528279168194657,-3,-1,-1,-1,-1,-1,0,-2
1528279168194657,-1,-2,-1,-2,-1,-1,-1,2
1528279168194657,1,-3,-1,0,-2,0,0,0
1528279168217648,1,-2,-2,-1,0,-2,-1,-1
1528279168217648,0,-1,-1,0,0,0,-1,-2
1528279168217648,-1,0,-3,0,-1,-1,-2,-1
1528279168217648,-2,-1,1,1,-3,-1,0,-1
1528279168240037,-1,2,-1,0,1,-1,1,1
1528279168240037,1,-2,-1,0,-2,-2,-1,0
1528279168241020,0,0,-1,-1,-1,-2,-1,1
1528279168241020,0,0,1,2,0,0,0,-1
1528279168254003,-1,-2,1,-1,0,0,-1,-2
1528279168254003,0,-2,0,-1,0,0,-1,0
1528279168254984,0,-1,-2,-1,0,0,1,-3
1528279168254984,-1,0,-1,-1,0,-3,-2,-1
1528279168277169,0,-1,3,-1,-1,-1,0,-1
1528279168277169,-2,0,0,-1,-1,-2,0,-1
1528279168277928,-1,0,-2,-1,1,-1,0,0
1528279168277928,-1,-2,-2,-2,-1,1,-1,0
1528279168300806,0,-1,-1,1,-2,0,1,-1
1528279168300806,-1,0,0,-1,-2,-1,-1,0
1528279168300806,-1,0,-1,-1,-2,-1,-2,0
1528279168300806,0,-1,0,0,0,0,0,1
1528279168322803,1,0,-2,-2,0,0,-2,-2
1528279168322803,-1,-1,0,1,0,0,-1,-1
1528279168323752,0,-1,-1,0,0,-1,0,-3
1528279168323752,0,-1,0,-1,-1,-1,0,-1
1528279168337053,0,0,-1,0,-1,-2,-1,-1
1528279168337053,0,-2,0,-1,-1,0,0,1
1528279168337710,-1,0,0,0,0,2,0,0
1528279168337710,-2,-1,-2,0,-1,-1,-2,-1
1528279168360526,-2,0,-2,-2,0,0,2,0
1528279168360526,-1,-1,0,-1,0,-2,-1,-3
1528279168361120,0,1,0,-1,0,-1,0,-1
1528279168361120,1,1,-2,-1,0,-1,-1,-1
1528279168374447,-3,-1,0,-1,0,0,-1,0
1528279168374447,1,-1,-2,-1,-1,0,0,-2
1528279168376078,1,-2,1,0,-2,-1,1,-1
1528279168376078,-1,0,-1,0,-1,0,-1,0
1528279168396024,0,0,-2,0,0,-1,0,-1
1528279168396024,0,0,-1,1,0,0,0,0
1528279168404034,-2,-2,-2,-1,0,1,-1,-1
1528279168404034,-1,0,0,-2,0,-1,-1,0
1528279168419000,-1,-1,1,-3,-2,-2,-3,-1
1528279168419000,-1,-2,0,-2,0,0,-1,0
1528279168426983,0,1,0,-1,-1,0,-1,0
1528279168426983,0,-1,-1,0,-1,0,-1,-2
1528279168442898,-1,-2,0,-1,0,1,-1,-1
1528279168442898,-1,-1,-3,-1,0,0,1,1
1528279168442898,0,0,0,-1,-1,0,-2,1
1528279168442898,1,-1,-2,0,0,-1,-1,0
1528279168455863,-3,-1,2,2,1,-2,-1,0
1528279168455863,0,1,1,0,-2,-2,0,-1
1528279168470853,0,-1,-1,-2,0,0,0,-2
1528279168470853,-1,-1,1,-2,-2,0,0,1
1528279168478834,0,0,-3,-2,-1,2,-2,-1
1528279168478834,-1,-1,1,-1,0,0,-1,1
1528279168487778,-2,-1,-1,-1,0,-1,0,0
1528279168487778,-1,-1,0,0,-1,-1,1,-2
1528279168502793,-1,-1,-1,1,0,-1,0,0
1528279168502793,-1,-2,-3,-1,-1,0,-1,-1
1528279168503765,0,-2,-1,0,1,-1,-1,-1
1528279168503765,0,-1,-2,-2,-1,-1,-1,0
1528279168515742,3,-1,-2,-1,-3,-1,1,-1
1528279168515742,0,0,1,-1,-1,0,0,-1
1528279168525713,0,-1,-1,1,-1,0,-1,-1
1528279168525713,-2,-1,1,0,0,0,1,-1
1528279168538641,-2,0,0,-2,-1,2,-1,-1
1528279168538641,0,-1,-2,1,0,-1,-2,0
1528279168547633,-1,-1,-2,-1,1,-2,-2,-2
1528279168547633,-1,0,-1,-1,0,0,-2,-2
1528279168562577,0,-3,-1,-1,-2,0,-1,0
1528279168562577,-2,0,0,-1,-2,-1,0,-1
1528279168564572,1,0,-2,0,-2,-1,0,0
1528279168564572,0,0,-2,1,0,-2,1,-1
1528279168576540,0,0,2,-1,-1,-2,0,0
1528279168576540,0,0,-2,-1,-1,-2,1,0
1528279168585516,-1,0,0,-1,0,1,-1,-2
1528279168585516,-1,0,0,0,-2,1,-1,-1
1528279168599479,-1,-1,-1,1,-1,-2,0,-2
1528279168599479,-1,-1,1,-1,1,-3,-1,-1
1528279168606461,1,-1,-1,1,-1,-1,0,0
1528279168606461,0,-1,0,-1,-1,-1,0,-1
1528279168622433,-1,-1,-1,0,0,0,0,-1
1528279168622433,0,-2,-2,-1,0,-1,0,-1
1528279168624414,-1,0,2,2,0,0,-1,1
1528279168624414,-2,0,-1,0,-1,0,0,-1
1528279168636382,1,1,-1,-2,-2,0,0,0
1528279168636382,0,1,0,-1,-1,-1,-1,0
1528279168645358,0,-1,-1,-3,-1,0,-1,-1
1528279168645358,1,-2,0,0,-1,-1,-1,-1
1528279168659320,-3,-1,-1,0,1,-1,-2,0
1528279168659320,-1,-1,-1,0,-1,0,-1,0
1528279168666302,0,1,0,-1,-1,0,0,1
1528279168666302,0,-1,-2,0,-1,-1,-2,0
1528279168682259,0,0,0,0,-1,0,-1,-2
1528279168682259,-2,-1,0,-1,0,0,-2,-1
1528279168684254,-2,-1,-1,1,-2,-1,0,0
1528279168684254,1,-1,1,-1,0,-1,0,0
1528279168705198,-1,-2,0,-2,-1,-2,0,-1
1528279168705198,0,0,1,-2,-2,-1,-1,-1
1528279168706205,0,0,-2,0,0,-2,-2,-2
1528279168706205,0,0,-1,-2,0,-1,-1,0
1528279168719161,-1,-1,1,0,0,-2,0,0
1528279168719161,-1,-1,0,-1,-2,0,1,-1
1528279168726154,-1,-1,1,-1,1,-1,0,-1
1528279168726154,0,0,-1,-1,-1,0,-1,-1
1528279168743096,-1,-1,-1,-1,0,0,-1,-2
1528279168743096,-1,-1,0,0,-2,-1,-3,-1
1528279168744094,0,-1,-1,-2,-1,-1,0,0
1528279168744094,1,0,0,-1,1,0,-1,0
1528279168765038,1,-1,0,-1,0,0,1,1
1528279168765038,0,-1,0,-1,0,-2,-1,-2
1528279168767032,0,0,0,0,-3,-1,1,-1
1528279168767032,-1,-2,0,1,1,0,-2,-1
1528279168779000,-1,-1,-2,0,-1,-2,-1,-2
1528279168779000,0,2,-1,1,0,0,0,0
1528279168785982,-1,1,-2,-2,-1,-2,-1,-2
1528279168785982,-2,-1,0,-2,-1,0,1,-2
1528279168802937,-2,-1,-2,-1,-1,0,0,0
1528279168802937,-2,-2,-1,-1,0,-1,0,0
1528279168803933,0,-1,-2,-1,0,0,0,-1
1528279168803933,0,-1,-1,0,-1,-2,-1,0
1528279168825136,-1,0,-1,1,0,-2,-2,1
1528279168825136,-1,-2,0,1,-1,1,-1,0
1528279168826906,-2,0,1,0,0,0,-2,2
1528279168826906,-1,-1,-2,-1,0,0,2,-1
1528279168839202,0,-1,-1,-1,-1,-1,0,-1
1528279168839202,0,-1,0,-1,1,-1,0,-1
1528279168846106,-2,-1,-2,-1,-1,0,-1,-2
1528279168846106,-1,0,-1,0,-2,-1,-2,0
1528279168863449,-1,0,0,0,-2,0,-1,0
1528279168863449,0,-2,-1,-1,0,-2,-1,0
1528279168864058,-1,-1,-1,-1,0,-2,-1,-2
1528279168864058,0,-2,-2,-1,0,-1,0,2
1528279168885242,-1,0,-1,-2,-2,0,0,0
1528279168885242,0,-1,-1,-1,0,1,1,-1
1528279168886997,-2,-2,0,0,-1,0,0,-1
1528279168886997,-1,-1,-1,-2,0,-2,0,-4
1528279168908187,0,-1,-1,0,2,-2,0,-1
1528279168908187,-1,-1,0,-3,-1,0,-2,-1
1528279168908939,-2,-1,2,0,0,-1,-1,0
1528279168908939,1,1,-1,1,-1,-1,-1,-2
1528279168929882,1,-1,-2,-2,-2,-2,-2,-1
1528279168929882,0,-1,-2,-2,-2,0,-1,-1
1528279168931877,-2,1,-1,-1,0,0,-1,0
1528279168931877,-2,-2,1,-1,1,0,1,-2
1528279168944843,1,0,0,0,1,0,-3,1
1528279168944843,-1,0,-1,2,1,-1,1,3
1528279168946837,-1,-2,0,-2,-2,-1,-1,-7
1528279168946837,-2,0,-1,0,-1,-1,-1,0
1528279168958805,-2,-1,-1,-1,-1,1,0,-1
1528279168958805,-2,-2,0,0,-1,0,-1,-2
1528279168967782,1,-1,-2,-1,-1,0,2,2
1528279168967782,0,0,-1,0,0,-1,0,0
1528279168983354,-1,-1,-1,-1,-1,-2,-1,-2
1528279168983354,1,-1,-1,0,-1,-2,-1,0
1528279168984057,1,0,-2,1,0,-2,-2,0
1528279168984057,2,0,-1,-1,-1,1,-1,1
1528279169005245,0,0,0,0,1,0,0,0
1528279169005245,-2,0,-1,-1,-1,0,0,-1
1528279169007011,0,-2,-1,-1,0,0,-1,0
1528279169007011,-2,-1,0,-1,-1,0,-1,0
1528279169018967,0,-1,2,0,0,0,0,-1
1528279169018967,-1,-1,-2,-1,-1,-1,-1,-1
1528279169027941,-1,-1,-1,-2,-1,0,-1,0
1528279169027941,-2,0,0,1,-1,0,-2,0
1528279169042936,-1,0,0,-2,-1,0,0,-1
1528279169042936,-1,0,-1,0,1,-1,-1,-2
1528279169043898,0,-1,1,-2,1,-1,0,1
1528279169043898,1,-1,-1,-1,-1,-2,-3,1
1528279169064841,-1,0,0,0,0,-1,0,-2
1528279169064841,-1,0,0,0,0,1,0,0
1528279169067172,0,0,-3,-1,-2,-1,-2,0
1528279169067172,0,-2,0,-2,-2,-1,0,-1
1528279169079336,-1,1,-1,0,-1,-1,-1,0
1528279169079336,1,0,0,-4,-1,-1,-1,0
1528279169088216,-2,-1,-1,1,-1,-1,1,-1
1528279169088216,0,-1,-1,-2,-1,-2,-1,-1
1528279169103088,0,-1,-3,-2,-2,-1,0,-1
1528279169103088,-2,0,0,-1,0,0,-1,-1
1528279169104076,1,-2,0,0,-1,-1,-1,0
1528279169104076,0,0,1,-1,-1,-2,0,0
1528279169125285,-1,-1,1,0,1,-1,0,0
1528279169125285,-2,-2,-1,0,-1,-1,0,0
1528279169127015,0,-2,0,-1,1,-1,-1,1
1528279169127015,0,-1,-2,-2,0,1,-2,-2
1528279169139207,-1,-1,1,-1,0,0,0,-1
1528279169139207,0,0,0,0,0,-1,-1,-1
1528279169147612,0,1,-1,1,-1,0,0,-1
1528279169147612,-2,-1,0,-1,-1,-1,0,0
1528279169162657,-1,0,-1,-2,-2,1,0,0
1528279169162657,1,-2,0,-1,-1,-2,-2,-2
1528279169164651,-1,-1,0,-2,1,0,-1,0
1528279169164651,-1,-2,-2,-1,-1,0,0,-1
1528279169184853,0,-1,-2,-2,-1,1,0,0
1528279169184853,1,2,-1,-1,0,-1,-1,0
1528279169186848,-2,1,-2,0,0,0,1,-1
1528279169186848,-2,0,0,-1,0,1,-2,-1
1528279169198819,0,0,0,0,1,0,1,1
1528279169198819,-1,0,-1,-1,-3,-1,0,-1
1528279169207791,-1,-1,-2,-4,-1,-2,-2,-1
1528279169207791,-1,0,1,-1,1,-1,-2,-1
1528279169222752,-1,-1,-1,0,1,1,0,-1
1528279169222752,1,0,-1,-1,0,0,-1,0
1528279169223749,0,-1,-1,1,1,0,0,-1
1528279169223749,-1,-1,-1,-1,-1,-1,0,-1
1528279169244693,1,0,0,0,-1,-1,-2,-2
1528279169244693,-1,-1,0,0,0,1,-1,-2
1528279169246687,0,1,1,1,-1,0,-2,0
1528279169246687,0,-1,-3,0,0,0,-1,0
1528279169258655,-1,-3,-1,-4,-4,-3,-2,-1
1528279169258655,-1,-1,-1,-1,-2,-1,0,1
1528279169267633,-1,-1,1,0,-1,1,2,0
