timestamp,emg1,emg2,emg3,emg4,emg5,emg6,emg7,emg8
1528446656548343,-1,2,3,9,13,5,6,0
1528446656548343,-13,-13,0,4,4,-16,-11,-8
1528446656555323,18,1,-5,-9,-12,4,-1,1
1528446656555323,8,22,1,-7,-2,-4,-10,0
1528446656570322,-3,3,6,18,9,1,7,4
1528446656570322,15,11,1,-13,4,1,-2,1
1528446656585284,-2,-1,4,11,-6,2,3,4
1528446656585284,2,2,3,17,11,-2,-4,-2
1528446656593261,3,6,0,10,-20,-10,-11,-4
1528446656593261,4,6,4,8,10,7,6,1
1528446656608184,-16,-16,-7,-9,-23,-3,2,-3
1528446656608184,-6,-12,-6,-3,5,-6,-3,1
1528446656615203,-10,2,-1,28,15,2,-5,-7
1528446656615203,19,7,6,-3,0,1,-2,0
1528446656630123,-16,-17,-8,2,-1,2,-1,-10
1528446656630123,9,9,6,2,-1,-7,-1,6
1528446656646089,-3,-6,-4,-1,-11,15,18,5
1528446656646089,-7,3,30,-4,-30,-2,2,0
1528446656653063,6,7,6,2,4,-7,-9,-4
1528446656653063,-6,8,7,3,28,8,3,1
1528446656668021,-6,-6,-5,-3,-12,-13,-14,-8
1528446656668021,11,2,-4,10,-23,-11,0,10
1528446656676198,11,20,4,-5,25,8,3,3
1528446656676198,-6,-3,9,-19,-27,-7,-3,-2
1528446656690998,2,-7,-7,-8,-29,-1,1,9
1528446656690998,6,6,-3,12,12,10,9,-2
1528446656705957,10,4,0,-12,27,12,5,6
1528446656705957,-6,-3,-17,21,27,1,-3,-7
1528446656712939,-3,-9,-19,-4,1,4,6,3
1528446656712939,-2,3,-3,-41,-37,-17,-13,-9
1528446656728115,37,18,14,-18,-18,-1,1,3
1528446656728115,-46,-25,-3,2,5,-2,-3,1
1528446656735871,-7,2,22,-6,-1,-3,-7,-15
1528446656735871,-8,-20,-64,11,0,2,-1,-3
1528446656750801,7,9,8,-1,-22,-6,1,13
1528446656750801,2,-3,8,45,48,8,3,3
1528446656765761,-12,-5,-15,63,-21,1,-3,-14
1528446656765761,7,1,2,114,51,12,6,2
1528446656772782,-7,-10,-27,90,-1,16,16,4
1528446656772782,11,12,15,65,-20,-5,-4,-6
1528446656787702,-3,3,8,44,-10,-9,-1,3
1528446656787702,-3,-5,-6,-16,-5,1,-1,-5
1528446656795719,5,5,12,-52,4,-9,-7,-2
1528446656795719,5,2,7,-66,8,8,10,9
1528446656810640,15,6,9,-70,6,-15,-13,-10
1528446656810640,-25,-12,-18,-52,-13,-5,-5,-3
1528446656825603,-7,-10,-10,-30,12,9,4,2
1528446656825603,7,10,14,-9,-17,-8,-2,-5
1528446656833580,-6,-15,-14,-31,-15,3,5,2
1528446656833580,4,27,11,-10,4,-7,-6,-4
1528446656848801,17,0,28,20,34,8,6,10
1528446656848801,-8,-9,-4,-6,4,5,1,1
1528446656855534,3,22,16,4,-15,-4,-1,5
1528446656855534,-8,2,1,-5,-6,-3,-4,-11
1528446656870835,-7,-21,-16,20,33,8,1,-1
1528446656870835,1,-4,5,8,-6,1,1,5
1528446656885540,-8,4,-1,-4,-5,-1,1,-4
1528446656885540,0,-9,-28,8,-4,-4,0,-2
1528446656893765,-5,3,-14,-2,-14,-6,-3,-4
1528446656893765,2,-4,-7,-5,1,4,1,-1
1528446656908837,-2,0,-12,3,-5,-4,1,1
1528446656908837,16,13,14,13,13,4,-2,-4
1528446656915467,-26,-10,8,22,-3,-7,-7,-4
1528446656915467,0,-11,-19,-11,13,8,5,0
1528446656931089,2,-8,-54,52,-3,6,6,3
1528446656931089,6,-9,-4,14,37,4,-1,2
1528446656953084,-10,-6,-19,-7,-3,1,-1,-2
1528446656953084,6,15,-20,23,9,6,2,-1
1528446656961011,3,1,17,-8,-3,-5,-4,-2
1528446656961011,1,-1,17,-12,-8,-10,-4,1
1528446656975970,-2,-3,-12,3,4,1,0,-2
1528446656975970,-4,2,17,-2,-8,-3,-4,-3
1528446656982953,0,-4,11,-15,-3,-3,-1,-1
1528446656982953,5,3,11,20,-7,-2,-2,3
1528446656998168,0,2,4,-15,-15,-6,-3,-1
1528446656998168,-4,-5,-7,-8,-7,-3,-1,-1
1528446657013895,4,0,-1,-9,-13,-2,3,4
1528446657013895,1,7,3,24,24,-4,-4,-3
1528446657028860,-2,-7,-4,-31,-10,-4,-1,2
1528446657028860,6,3,16,39,33,4,5,6
1528446657037805,-4,4,11,-28,8,8,6,0
1528446657037805,-2,-4,9,6,-19,-5,-2,-4
1528446657050803,2,-2,0,3,12,3,0,2
1528446657050803,1,0,-3,-8,-19,1,8,1
1528446657072711,-2,-1,-2,12,23,3,1,2
1528446657072711,-6,-5,-2,-13,-10,-10,-2,-4
1528446657080691,-3,3,11,7,-10,-6,-8,-7
1528446657080691,2,3,2,1,-1,5,-1,3
1528446657096648,19,12,7,17,14,5,5,4
1528446657096648,-24,-13,9,38,5,2,-1,-5
1528446657102631,-4,0,21,3,-10,-8,-2,-3
1528446657102631,-7,-4,14,-17,4,-11,-11,-7
1528446657118598,-2,-2,-5,15,0,-11,-5,-7
1528446657118598,2,3,5,15,-13,-4,-2,-1
1528446657132551,6,32,22,-27,12,-1,-4,-3
1528446657132551,1,-13,-24,8,-10,7,7,6
1528446657147511,-8,-9,5,-56,-24,-14,-8,-5
1528446657147511,5,18,-11,-13,-6,1,1,1
1528446657155489,4,-8,-7,8,16,12,8,4
1528446657155489,-1,1,5,11,11,-12,-8,-7
1528446657178428,-1,-9,-18,10,3,4,3,0
1528446657178428,2,5,-29,-5,-3,8,6,4
1528446657193388,-2,7,31,2,7,-4,-3,-2
1528446657193388,4,-15,-25,5,9,3,6,5
1528446657200369,3,21,2,-4,-15,-6,-6,2
1528446657200369,-11,-10,3,0,23,4,-2,-5
1528446657215329,-2,-3,12,-9,-3,-9,-8,-6
1528446657215329,3,3,3,0,-12,-3,0,-1
1528446657238268,-6,5,-3,24,33,2,2,0
1528446657238268,13,15,70,-37,-27,-5,-2,5
1528446657253228,9,15,-19,23,13,1,3,1
1528446657253228,-10,-31,-8,-10,-5,6,1,-3
1528446657260210,-7,-8,1,0,0,-3,-4,-7
1528446657260210,-1,-6,-25,4,7,4,4,5
1528446657275170,-3,-12,-23,11,-15,-7,-7,-2
1528446657275170,3,6,-9,6,-5,0,1,2
1528446657283148,5,12,38,-2,-3,-2,-3,-3
1528446657283148,-5,-15,-27,-2,-11,6,9,2
1528446657290130,1,-15,-32,7,5,1,1,1
1528446657290130,3,5,0,2,15,3,0,1
1528446657305090,-3,-4,-3,4,-9,-2,-3,-2
1528446657305090,-5,11,41,-21,-15,-3,-1,-5
1528446657313068,2,-24,-56,-2,-12,2,5,1
1528446657313068,2,31,56,-2,-1,-6,-7,-4
1528446657328029,0,-8,-12,-3,4,6,4,3
1528446657328029,1,-3,7,4,14,-3,-1,1
1528446657336007,-7,-12,-2,-14,-11,0,-1,-2
1528446657336007,-5,1,9,-3,-2,-2,-6,-6
1528446657350967,14,22,35,21,26,14,13,11
1528446657350967,-14,-12,-34,-2,-3,-4,-4,-6
1528446657365927,10,8,17,-13,-21,-9,-4,4
1528446657365927,-5,-13,-19,16,24,12,6,1
1528446657372908,-7,-10,-7,-10,-22,-10,-7,-3
1528446657372908,-2,6,-4,7,19,3,0,-6
1528446657387868,-3,-2,4,2,-2,5,5,2
1528446657387868,0,-5,7,1,-14,-8,-2,0
1528446657396078,-2,2,11,-13,-2,2,-3,-2
1528446657396078,2,-7,-3,2,-7,-5,-3,-2
1528446657410811,-2,5,19,-19,-3,-1,-3,-5
1528446657410811,5,-2,-6,16,14,-1,-1,5
1528446657426325,-4,2,10,14,11,-3,-2,-3
1528446657426325,6,-1,7,2,3,3,0,3
1528446657433059,13,8,-11,-26,-12,4,8,6
1528446657433059,-25,-21,-6,-3,1,1,1,-3
1528446657448016,3,9,9,3,-1,-7,-1,3
1528446657448016,-1,9,10,-9,-21,-7,-3,-3
1528446657456264,-2,-15,-32,24,31,0,-7,-3
1528446657456264,13,12,10,-16,-16,2,2,4
1528446657471141,-7,-3,-1,-4,-39,-17,-3,-1
1528446657471141,10,7,-5,4,26,6,0,0
1528446657486102,5,4,8,6,-11,0,-2,-2
1528446657486102,-17,-9,-6,10,-2,1,2,-2
1528446657493906,1,2,3,-29,-2,6,4,5
1528446657493906,-2,-6,-8,-3,-6,-3,-2,1
1528446657515989,2,3,0,5,2,1,0,4
1528446657515989,8,-1,-40,-6,-2,6,6,2
1528446657522955,-8,-4,2,3,-11,-7,-5,-6
1528446657522955,0,-13,-20,1,-9,-2,1,1
1528446657537912,-14,-7,-13,21,30,3,-3,-6
1528446657537912,15,15,-3,0,-7,-1,-1,1
1528446657552885,-6,-5,2,-14,-14,-2,0,-2
1528446657552885,0,-4,19,-3,16,0,-3,0
1528446657560849,-2,-8,-35,17,18,5,3,2
1528446657560849,0,4,8,-3,-17,-4,-2,-3
1528446657575842,-9,-32,-23,13,10,9,9,4
1528446657575842,8,23,-1,4,-5,-5,-1,-4
1528446657591009,8,1,8,1,-8,3,0,9
1528446657591009,-9,-4,1,-1,12,1,0,-5
1528446657605733,-10,-7,6,-11,-27,-12,-5,-4
1528446657605733,0,-2,18,1,4,0,-3,0
1528446657613713,-1,5,13,-8,-7,-4,-3,-4
1528446657613713,-5,0,-1,-3,1,0,-2,2
1528446657628883,8,7,1,-35,-47,-10,1,0
1528446657628883,-12,-19,-1,18,50,4,-4,-3
1528446657635651,6,4,8,-5,-11,-1,0,1
1528446657635651,7,11,-28,4,-6,3,4,9
1528446657650643,17,-32,-31,-20,-2,-4,0,4
1528446657650643,4,27,20,16,16,-1,-2,0
1528446657665594,-10,-10,13,-32,-14,3,5,1
1528446657665594,7,24,36,13,-13,-16,-8,-1
1528446657673770,-12,-2,1,-24,8,0,-8,-9
1528446657673770,0,-12,0,-13,-9,-2,2,0
1528446657688534,15,0,-27,25,19,8,3,4
1528446657688534,-17,-16,0,12,-6,3,1,-2
1528446657695761,7,12,10,-33,-10,1,2,-1
1528446657695761,-18,-46,-4,-6,-17,-12,-9,-8
1528446657710913,-7,7,-1,12,-31,-10,-3,-3
1528446657710913,11,11,2,14,35,7,1,-1
1528446657725879,-4,2,-18,8,9,2,0,-1
1528446657725879,-7,-15,-3,-8,-13,-4,-2,-3
1528446657733129,5,10,-11,19,2,0,5,3
1528446657733129,-8,-5,16,-16,-10,-2,1,-3
1528446657748095,8,3,-33,21,18,6,2,1
1528446657748095,4,-5,-16,-2,0,4,3,3
1528446657756269,-6,3,4,5,-3,0,0,1
1528446657756269,3,-13,-6,8,-3,4,4,8
1528446657771218,-1,-1,12,12,7,-1,-4,-1
1528446657771218,-4,-12,-3,-1,-15,-2,1,0
1528446657785971,0,1,-1,-35,-7,-6,-3,2
1528446657785971,-5,-4,12,-9,2,-1,-1,-3
1528446657792961,4,6,26,5,-8,-5,-2,-3
1528446657792961,-2,-9,-10,7,16,7,1,-1
1528446657808306,1,7,5,-3,-23,-6,-2,1
1528446657808306,1,1,5,3,8,-4,-3,-3
1528446657816035,-8,0,-5,0,3,1,2,-3
1528446657816035,-4,-6,-5,-6,-9,-5,-3,-4
1528446657830996,2,6,-9,9,7,3,1,2
1528446657830996,3,-17,-6,-10,-7,1,3,2
1528446657837974,4,31,11,14,12,-1,-2,4
1528446657837974,-2,2,-4,-6,-4,-3,-1,-3
1528446657853315,-4,-3,1,-2,6,0,-4,-4
1528446657853315,-4,-16,3,-6,-6,-4,-3,-2
1528446657868172,11,28,2,-3,-19,-1,2,7
1528446657868172,-4,-7,-6,10,22,1,-1,-3
1528446657875906,-2,-11,-9,3,7,4,3,2
1528446657875906,-2,4,0,-2,-5,-2,-1,-1
1528446657891228,-6,-13,1,-3,-5,-3,-2,-3
1528446657891228,-1,-7,-9,2,5,1,-1,2
1528446657898668,2,4,5,0,1,0,-1,-2
1528446657898668,-2,-6,-3,-4,-8,-1,1,0
1528446657913180,-4,-4,5,3,1,-2,-3,-6
1528446657913180,0,9,7,-3,-5,1,0,-2
1528446657928389,-3,-15,-6,3,9,2,2,0
1528446657928389,1,-2,-6,0,-3,-1,-1,2
1528446657935683,-4,-14,-2,-1,-2,-1,-1,-1
1528446657935683,-4,12,-3,-2,0,-1,-3,-4
1528446657950737,4,7,1,3,5,2,-1,2
1528446657950737,1,-2,-1,-3,-14,-1,2,1
1528446657958830,-5,-7,-14,9,11,-4,-2,-1
1528446657958830,5,4,4,-1,-9,-4,-1,2
1528446657973228,2,-14,1,-6,8,-2,-2,4
1528446657973228,5,48,17,7,0,-3,-2,-9
1528446657987941,3,-11,5,2,3,4,2,2
1528446657987941,-2,-15,-6,-1,0,1,3,2
1528446657995922,2,15,10,-7,-5,-1,0,1
1528446657995922,-2,-6,-6,0,5,-1,-3,0
1528446658010909,-4,-2,4,-4,-4,-4,-2,-3
1528446658010909,2,7,7,2,3,-3,-4,-5
1528446658017864,-2,-3,4,-4,-3,0,0,-2
1528446658017864,-4,-10,-6,-6,-6,-1,-1,-1
1528446658032836,0,4,0,4,7,11,6,1
1528446658032836,1,-8,-4,-1,1,1,1,3
1528446658048028,-3,-10,2,-9,-12,-1,0,-1
1528446658048028,5,14,-1,10,13,-5,-6,-3
1528446658063252,0,7,4,2,2,-4,-4,-3
1528446658063252,-3,-8,15,-10,0,2,2,2
1528446658077953,-4,-7,-12,8,5,-2,0,-2
1528446658077953,-3,-3,-2,-5,-11,-3,-3,-1
1528446658086257,7,5,-15,0,-1,6,8,7
1528446658086257,-2,-5,3,0,-1,-3,-2,0
1528446658101208,-1,-8,-4,1,-5,-6,-3,-1
1528446658101208,5,-1,-4,7,10,14,10,8
1528446658115619,-3,-1,2,-7,-4,-14,-12,-6
1528446658115619,2,0,-6,-1,-4,0,0,1
1528446658130539,1,2,2,2,4,3,1,2
1528446658130539,1,0,7,-8,5,-1,-2,0
1528446658138525,-1,0,-5,0,-11,-3,-1,-2
1528446658138525,-3,-5,-6,3,1,-7,-6,-5
1528446658153481,-5,-8,-3,-3,-3,0,-1,-1
1528446658153481,16,12,7,-2,-2,-3,-1,-3
1528446658168441,-14,-12,-12,4,1,4,4,6
1528446658168441,-3,-13,-9,1,5,2,0,0
1528446658175422,5,38,10,-7,-14,-1,0,-7
1528446658175422,-3,-7,2,6,16,0,-2,5
1528446658190381,7,6,2,1,-5,-5,-4,-3
1528446658190381,0,2,-1,4,9,1,-5,-4
1528446658198360,-5,-15,-9,-4,-6,0,5,1
1528446658198360,-3,-4,-3,-7,-12,-12,-8,-6
1528446658213359,0,-7,1,0,3,7,3,-1
1528446658213359,-5,0,-4,-5,-7,-7,-4,-1
1528446658228280,0,-6,1,2,0,-1,0,-2
1528446658228280,1,5,2,0,2,-1,0,1
1528446658235530,2,-3,1,0,3,0,0,2
1528446658235530,-1,-2,-8,-4,-4,-1,0,0
1528446658251522,-4,-5,-2,-1,4,0,-1,-3
1528446658251522,5,4,2,-3,-5,-2,0,2
1528446658258499,-1,2,4,0,-4,-3,-1,1
1528446658258499,-6,-4,-1,5,7,3,2,-2
1528446658273729,-9,-14,0,-1,1,-3,-6,-11
1528446658273729,5,5,-4,-5,-5,0,0,9
1528446658288645,2,13,1,-1,-1,-2,-3,-2
1528446658288645,-9,-12,-5,0,1,0,1,0
1528446658297391,-2,-4,0,2,5,3,0,0
1528446658297391,-4,0,-4,-7,-8,0,1,-3
1528446658310393,0,-6,-3,-2,-4,-1,-1,-3
1528446658310393,1,4,1,0,-1,-3,-2,-1
1528446658318579,2,3,1,1,1,-2,1,0
1528446658318579,-2,-8,-3,0,1,2,-1,-3
1528446658341471,-5,-16,-8,0,0,0,-2,1
1528446658341471,15,20,3,2,1,1,2,5
1528446658355721,-2,-14,6,5,1,1,-1,-3
1528446658355721,1,2,4,-5,-3,-1,0,0
1528446658362701,4,18,6,-3,-3,-2,0,5
1528446658362701,-3,-13,-2,0,1,-1,0,-3
1528446658377699,0,5,-1,-3,-3,-1,-1,0
1528446658377699,1,0,-2,-1,-1,0,-1,1
1528446658385642,2,-11,-5,-3,2,1,1,3
1528446658385642,-5,-1,0,0,1,-1,0,-3
1528446658392658,0,6,1,-1,-1,-1,-1,-1
1528446658392658,-1,-3,0,-1,-2,-1,-1,-1
1528446658407609,-2,-1,-1,-1,0,-1,0,1
1528446658407609,2,-1,-2,-1,-1,0,-1,2
1528446658415562,-2,2,1,-1,1,-1,0,-1
1528446658415562,-4,-3,-1,-1,0,-1,0,-1
1528446658430522,-3,-10,-4,-3,-1,0,-1,0
1528446658430522,-1,13,3,2,1,0,1,-3
1528446658438500,-1,-11,-10,-1,0,1,1,-3
1528446658438500,1,9,8,-3,-3,0,-1,-2
1528446658452632,-6,-9,-3,1,0,-1,-2,0
1528446658452632,0,-5,-6,0,-3,-3,-1,0
1528446658468756,-1,-1,-3,-3,0,-3,0,-1
1528446658468756,0,-2,-1,-1,-1,0,-1,-1
1528446658475528,2,6,1,1,1,0,-1,-1
1528446658475528,-4,-6,-3,-1,2,0,-1,-3
1528446658491006,-2,1,4,0,-1,0,-1,-1
