timestamp,emg1,emg2,emg3,emg4,emg5,emg6,emg7,emg8
1528449930150703,-15,-1,1,1,0,1,1,-3
1528449930150703,4,1,-1,-1,-2,1,1,4
1528449930157683,-3,-1,-2,-2,-2,-2,-4,-10
1528449930157683,-1,-1,-1,-1,-2,-2,-2,-15
1528449930172679,-1,-1,0,-1,0,-1,0,0
1528449930172679,4,-1,0,-2,0,-1,-3,-1
1528449930187604,-6,-1,2,1,0,-1,2,23
1528449930187604,-2,-1,-1,-2,-3,-3,-4,-6
1528449930195581,4,0,-1,-1,-1,-1,-1,3
1528449930195581,-8,-1,0,-1,-2,-1,-4,-27
1528449930210582,0,1,0,3,-1,-3,1,17
1528449930210582,6,-2,0,-1,0,2,3,10
1528449930225502,6,1,-1,-2,0,0,-1,-3
1528449930225502,-6,-1,0,2,-3,-1,-2,-5
1528449930233482,-4,-1,0,1,0,-2,0,3
1528449930233482,5,0,-1,-2,-2,-1,1,3
1528449930248441,3,0,-3,-2,1,0,0,1
1528449930248441,-9,-1,-1,-1,-2,-1,-2,-7
1528449930263420,4,-1,-1,-1,-1,0,-3,-3
1528449930263420,-6,-2,-3,-1,-2,-1,0,1
1528449930278360,2,1,3,0,0,-1,0,-1
1528449930278360,-5,-2,-3,-1,0,-1,1,6
1528449930285379,-3,-1,-1,-2,-2,-2,-4,-24
1528449930285379,3,0,1,-1,-1,0,-2,-10
1528449930293322,2,1,0,1,0,0,0,-8
1528449930293322,-4,-1,0,1,1,2,3,30
1528449930308281,5,0,0,-2,1,1,-2,-5
1528449930308281,-7,-2,0,1,0,-1,-1,-4
1528449930323240,3,-2,-3,-1,-1,-2,1,1
1528449930323240,-3,1,0,1,0,-1,-1,-7
1528449930330431,9,-1,-3,1,-2,-1,1,11
1528449930330431,-2,0,4,-1,0,1,3,9
1528449930338200,-1,-1,-3,-1,0,0,1,12
1528449930338200,-2,-2,0,-1,-2,-1,-3,-19
1528449930345673,-12,-1,-2,1,1,-1,-2,0
1528449930345673,7,-1,0,-1,-1,-2,-1,-8
1528449930360722,2,-1,1,-3,-3,-1,-2,-2
1528449930360722,-9,0,-2,-2,-2,-1,-5,-14
1528449930368381,7,0,0,0,0,1,5,17
1528449930368381,-6,0,0,2,1,0,-1,5
1528449930383342,-8,-1,-1,1,-1,-1,0,-4
1528449930383342,6,0,-1,0,1,-2,0,7
1528449930390354,-2,-2,-1,-2,-2,-1,-4,-20
1528449930390354,0,-1,-2,-1,-2,-1,-3,-13
1528449930398302,1,-1,-1,-2,-1,-1,0,5
1528449930398302,6,0,1,1,1,0,1,8
1528449930405283,-8,0,-2,1,0,-1,-3,-11
1528449930405283,5,1,0,-2,-1,-2,0,12
1528449930420278,-2,-1,-1,-1,0,0,-3,-9
1528449930420278,2,-2,-1,0,-2,0,-2,6
1528449930428844,0,-1,0,-1,0,2,0,-3
1528449930428844,-12,-2,0,-1,-1,0,-2,-9
1528449930443487,1,0,-2,1,0,-1,-1,0
1528449930443487,-3,1,0,-1,-1,0,0,-4
1528449930450483,-2,-1,1,-3,-1,-2,-3,-4
1528449930450483,13,1,-1,1,-3,1,1,4
1528449930458793,-11,-1,1,0,1,2,3,9
1528449930458793,-1,-1,-3,-2,-1,-2,-1,1
1528449930465998,-5,1,1,-1,0,-4,-2,-9
1528449930465998,8,0,-1,-3,0,-2,-4,-10
1528449930480690,-4,-1,0,0,-1,0,2,4
1528449930480690,3,-1,-1,0,1,0,3,22
1528449930487724,-2,0,-2,-1,-2,0,0,-4
1528449930487724,-6,-1,-1,0,1,-2,-4,-15
1528449930502632,8,1,-1,-1,-1,0,2,14
1528449930502632,0,0,0,-1,1,0,0,-7
1528449930510611,-2,-1,-1,0,-2,-1,-1,2
1528449930510611,3,-1,1,-1,0,1,1,2
1528449930517592,-4,-1,-1,-3,-2,-1,-4,-15
1528449930517592,-7,0,1,1,1,0,0,-11
1528449930533551,7,0,0,0,0,1,2,13
1528449930533551,-3,0,0,1,-1,-2,-1,1
1528449930540544,5,0,0,3,1,0,-2,4
1528449930540544,2,-1,-2,-2,0,-1,-2,-8
1528449930555761,-6,-1,1,0,-1,1,-1,-7
1528449930555761,-7,1,-1,-3,0,-1,0,-4
1528449930563295,18,0,0,-2,-1,0,3,20
1528449930563295,-7,-4,0,-1,-1,1,1,2
1528449930578422,-14,0,-1,0,-2,-1,-4,-33
1528449930578422,8,2,-1,1,-1,0,3,24
1528449930593377,-1,0,0,-1,-1,-2,-1,0
1528449930593377,-2,-1,-2,-1,-1,1,-1,-5
1528449930600358,-2,-2,-1,1,-1,-2,-2,-13
1528449930600358,-1,-1,-1,-1,1,0,-1,-6
1528449930615591,-3,0,1,0,0,0,-2,-1
1528449930615591,8,-2,0,-1,-2,-1,0,8
1528449930622575,-12,0,-2,-1,1,0,-2,-6
1528449930622575,-5,-1,-3,-2,0,-1,-1,-6
1528449930638355,15,-2,0,0,-1,1,5,44
1528449930638355,-1,1,1,0,-2,-1,-1,-7
1528449930653948,-2,-1,0,-1,-1,0,0,4
1528449930653948,-4,-2,0,-2,-1,-2,-5,-12
1528449930660958,-2,0,0,-2,-1,-2,-5,-27
1528449930660958,2,-1,-1,-1,0,1,2,18
1528449930676130,0,-2,-1,-1,1,0,0,-3
1528449930676130,-8,-2,-2,-1,-2,1,1,3
1528449930683129,-4,-1,-3,-3,-1,0,-1,-11
1528449930683129,-1,0,2,2,-1,-1,-2,-4
1528449930698418,3,2,-1,-2,-1,-3,-4,-26
1528449930698418,4,0,-1,2,2,1,0,12
1528449930713100,-8,-3,-1,-5,-1,1,-2,-7
1528449930713100,1,0,1,-1,-3,-1,-1,-1
1528449930720632,-2,-1,0,2,5,2,0,14
1528449930720632,2,2,-2,-2,-1,-2,-4,-22
1528449930736263,19,0,-1,0,0,0,1,11
1528449930736263,-11,-2,-1,-1,1,1,2,6
1528449930743133,-4,0,2,-3,-4,-1,-1,-3
1528449930743133,-9,1,-2,0,-2,-3,-2,-15
1528449930758403,-2,-2,0,-1,-1,-2,0,0
1528449930758403,-1,-1,3,0,0,0,-2,-5
1528449930773130,7,2,0,-2,-2,-1,0,14
1528449930773130,3,-3,-3,-1,1,-1,-1,-2
1528449930780112,-3,-2,0,1,2,1,0,2
1528449930780112,-6,-3,-2,-3,-3,-1,-3,-10
1528449930795071,2,-2,-1,0,-2,-2,0,5
1528449930795071,-1,0,0,1,1,0,1,4
1528449930803051,-2,-1,-3,-1,-1,1,0,-2
1528449930803051,9,1,0,0,-1,-1,-2,12
1528449930817974,-8,-2,-2,-1,-1,-1,-2,0
1528449930817974,-10,0,-1,-1,0,0,0,-12
1528449930832936,-7,-1,-2,1,1,0,-4,-3
1528449930832936,18,2,-1,-2,-2,-2,1,5
1528449930847933,-4,1,1,0,-2,0,2,3
1528449930847933,-5,-3,1,1,0,-1,1,7
1528449930863101,0,-2,0,-1,2,-1,-2,-6
1528449930863101,-3,0,-1,-1,-2,-2,-3,-6
1528449930870152,3,-2,-2,-1,-1,0,-2,-12
1528449930870152,3,0,-4,-1,1,1,2,15
1528449930885118,1,-2,-1,-2,-2,0,-1,-14
1528449930885118,-3,-1,0,-2,1,-1,0,10
1528449930900063,-2,-1,-1,0,-1,-1,0,6
1528449930900063,1,0,0,1,-2,0,-1,-9
1528449930915054,-3,0,0,-1,1,0,-2,-6
1528449930915054,-6,-2,0,0,-1,-1,-5,-16
1528449930923050,7,0,0,1,0,-2,0,1
1528449930923050,4,-1,-3,-2,-2,1,0,2
1528449930938016,-4,0,0,-1,1,1,3,30
1528449930938016,5,-1,-2,-1,-2,-1,-3,-13
1528449930952979,-2,-2,-2,0,0,-1,0,2
1528449930952979,-5,1,1,1,-2,-1,-3,-22
1528449930960956,10,2,2,0,-1,-1,2,21
1528449930960956,-9,0,0,-2,0,0,1,-3
1528449930975913,4,-2,-1,0,-1,-1,1,12
1528449930975913,-2,0,2,0,0,0,-2,-4
1528449930982896,-4,-3,0,-1,0,1,-3,-7
1528449930982896,-1,-1,0,-1,-1,-1,0,2
1528449930997804,-5,-2,0,3,-1,-1,-2,-13
1528449930997804,2,-1,-2,-1,1,-1,0,10
1528449931012763,1,-2,0,-1,-1,-2,-1,-3
1528449931012763,-4,-1,0,0,2,1,1,-7
1528449931020741,-3,2,0,-1,0,-2,0,10
1528449931020741,-1,-2,-2,0,-2,-1,-1,-8
1528449931035701,1,1,-1,-1,-2,0,0,1
1528449931035701,-4,-2,-2,-2,-1,-1,-4,1
1528449931042732,6,-1,-1,-2,-1,-2,-1,-16
1528449931042732,-7,0,2,0,1,-1,1,-5
1528449931057670,0,-2,-1,-1,-1,1,0,3
1528449931057670,13,-2,0,-1,-1,-1,-2,1
1528449931072658,1,0,0,0,1,1,3,13
1528449931072658,-4,-2,0,-2,0,1,0,3
1528449931080636,6,1,-2,1,-1,-2,-2,-11
1528449931080636,-8,-1,-2,-1,0,-1,0,-1
1528449931095580,5,-2,0,-2,-2,1,0,12
1528449931095580,-1,-1,-1,-1,-1,-1,0,1
1528449931103521,-3,-2,-4,-3,2,0,0,4
1528449931103521,5,1,2,3,-1,0,0,-3
1528449931118478,-3,-2,-2,-2,0,-1,-1,-4
1528449931118478,6,2,-1,-1,0,0,1,2
1528449931133448,-3,-2,-2,1,0,0,1,3
1528449931133448,0,-1,0,-3,-2,-1,-1,-5
1528449931140475,-1,1,-1,-1,0,-1,0,4
1528449931140475,1,-1,0,0,-2,-2,-5,-9
1528449931155438,-8,-2,-3,0,-2,-2,0,-14
1528449931155438,-9,0,-3,-1,1,1,5,22
1528449931163413,-1,-2,-2,-1,-1,-1,-2,-3
1528449931163413,3,1,2,0,0,0,0,6
1528449931178372,-5,-3,-1,-1,-1,-1,1,6
1528449931178372,-8,-1,-2,-1,-4,-1,-3,-5
1528449931193279,20,2,0,-1,-1,0,1,7
1528449931193279,-16,-3,-1,1,2,1,1,-1
1528449931201258,1,0,-2,1,-1,1,-1,2
1528449931201258,-3,-1,-1,1,-1,0,-1,-4
1528449931215491,-2,0,0,-1,0,-1,-2,-6
1528449931215491,8,0,-1,-2,-1,-1,-1,-1
1528449931223219,1,1,2,1,0,-2,-2,-4
1528449931223219,-7,-1,-1,-1,1,-1,1,1
1528449931238721,-7,-2,-2,-1,-2,1,-2,-6
1528449931238721,4,0,-3,-4,0,0,0,6
1528449931252782,2,0,1,0,1,-1,0,14
1528449931252782,6,0,2,-1,1,-2,0,10
1528449931260961,-6,0,-2,-1,-1,-2,0,-14
1528449931260961,1,-2,-3,-4,-1,1,1,5
1528449931275960,3,-1,0,1,-2,1,2,3
1528449931275960,0,0,-1,0,-2,-1,-2,1
1528449931282676,-2,0,1,-1,-2,2,1,-2
1528449931282676,-9,-2,0,-1,-1,-1,-2,-6
1528449931298082,-10,-2,-1,1,2,1,1,12
1528449931298082,3,-1,-1,-2,-1,-1,0,-6
1528449931313038,-5,-1,-1,0,-1,-1,0,-2
1528449931313038,-3,1,4,5,1,-2,-1,-10
1528449931319993,14,1,-2,-3,-2,-2,-2,-2
1528449931319993,-3,-2,-1,-1,0,1,2,0
1528449931336246,-3,0,-3,-1,-1,0,-1,8
1528449931336246,-1,0,-3,-1,-2,0,-4,-9
1528449931342935,-3,-1,1,-1,-1,-1,1,16
1528449931342935,3,-1,1,1,1,0,0,1
1528449931358425,5,-1,-1,1,1,-2,-1,1
1528449931358425,-4,-1,-2,0,1,-1,1,-1
1528449931373399,-4,0,0,0,0,0,-1,-3
1528449931373399,0,0,0,0,-1,-3,-1,1
1528449931380122,1,0,1,1,0,-1,0,-3
1528449931380122,1,-2,0,-1,-1,-1,-2,0
1528449931396230,-4,0,0,0,-1,0,-4,-8
1528449931396230,-1,-1,-1,-1,-2,-2,2,6
1528449931403320,6,-1,0,-2,-1,1,0,8
1528449931403320,-3,0,-2,-2,-2,-1,-1,-11
1528449931418291,1,0,-1,-1,-2,-1,-1,-5
1528449931418291,4,1,-1,-2,-1,0,-1,-6
1528449931441220,-6,-1,-1,1,1,2,4,18
1528449931441220,3,0,-1,-1,-1,0,1,5
1528449931448206,-5,-2,0,-1,-1,-1,-1,-9
1528449931448206,1,-1,1,0,-1,-1,-3,-2
1528449931471222,5,0,-1,-2,-1,-3,-3,-14
1528449931471222,-4,0,1,-1,0,1,2,9
1528449931478100,-2,-2,-1,0,1,1,-1,-1
1528449931478100,1,0,0,0,-1,-1,0,0
1528449931486079,2,-1,-1,-3,0,-2,1,6
1528449931486079,-4,-1,0,2,-1,-2,0,5
1528449931500815,1,0,-2,-2,-1,-2,0,-4
1528449931500815,1,0,-1,-2,0,1,0,1
1528449931508294,-3,-2,0,0,-2,-1,-1,-7
1528449931508294,1,-1,0,-1,0,0,1,4
1528449931516237,4,-2,-1,0,-1,-2,-2,6
1528449931516237,-5,-2,-1,0,-1,-1,-2,-10
1528449931523280,-2,-1,0,0,0,1,-2,-10
1528449931523280,-1,-2,-2,-1,0,2,3,21
1528449931537850,-4,0,-3,0,0,-2,0,-4
1528449931537850,-3,0,-1,-1,0,-3,-1,-13
1528449931553877,-4,-2,0,-1,-1,-2,-1,3
1528449931553877,6,-2,-1,-2,0,0,-1,-4
1528449931560797,1,-1,1,-2,0,1,0,2
1528449931560797,2,-1,-2,-1,-1,0,1,6
1528449931575814,2,-1,-1,-2,0,0,-1,-1
1528449931575814,-2,0,0,0,-2,-1,0,-2
1528449931582801,-5,-1,1,0,1,-1,-4,-7
1528449931582801,3,0,-1,0,-2,1,0,-1
1528449931597756,-1,-1,1,1,0,1,-2,-7
1528449931597756,-2,-1,1,1,0,0,-2,6
1528449931612719,-3,-2,-2,-4,-2,-2,-1,-3
1528449931612719,0,-1,0,-1,-1,0,-1,-4
1528449931627679,4,0,-1,-2,-1,1,1,8
1528449931627679,-3,-1,-1,1,0,1,-2,-10
1528449931642635,5,1,1,1,-2,-1,-2,6
1528449931642635,-5,-2,-1,-1,0,2,1,1
1528449931650616,2,-1,0,0,0,-1,2,4
1528449931650616,-2,0,0,-1,1,-1,0,-9
1528449931665971,-3,1,-2,0,-1,-2,-1,-8
1528449931665971,1,-3,-3,-3,-1,-1,0,12
1528449931681259,0,-1,-2,-1,-1,0,0,-13
1528449931681259,-3,1,0,0,1,1,0,2
1528449931695897,-3,0,-1,1,-2,-2,-3,-6
1528449931695897,1,0,0,0,-1,-1,-3,-16
1528449931702875,0,0,1,0,-1,-1,4,37
1528449931702875,1,-1,0,-1,-1,0,-3,-11
1528449931717836,1,-1,0,-3,0,0,-3,-6
1528449931717836,3,0,-1,0,0,-3,-1,-6
1528449931732799,2,1,-1,0,-1,-1,0,8
1528449931732799,-3,0,1,0,0,0,0,-1
1528449931740773,-7,-2,0,1,-1,0,-2,-8
1528449931740773,-2,-1,0,-2,-2,-1,1,2
1528449931755738,4,-2,-3,-1,-1,1,0,-4
1528449931755738,-1,-1,0,-2,-2,-1,0,7
1528449931762715,2,-1,-2,-1,0,1,-1,-12
1528449931762715,1,0,0,-1,-1,-2,-1,-2
1528449931778242,-8,-2,0,0,0,1,0,2
1528449931778242,-1,-1,-1,-1,1,0,0,5
1528449931786208,0,-1,-2,2,0,0,-2,4
1528449931786208,-2,0,-1,-1,-1,-1,-2,-11
1528449931800940,-2,1,-3,2,1,-3,-2,-7
1528449931800940,-1,-1,-2,-4,-1,-1,-1,4
1528449931815893,-2,1,-1,1,-1,-2,0,-2
1528449931815893,5,0,-1,3,-1,0,0,2
1528449931823125,3,-2,0,-4,-5,-2,0,-2
1528449931823125,-11,-1,0,2,0,0,-1,7
1528449931837867,-8,-3,-1,-1,-2,-1,-1,-1
1528449931837867,2,-1,-1,0,1,1,-1,0
1528449931845810,4,1,-2,-2,0,-1,0,7
1528449931845810,0,-1,-2,-1,-1,0,-1,-8
1528449931860778,-2,-3,-1,-1,0,1,1,3
1528449931860778,2,0,0,0,-1,-1,0,1
1528449931875977,-2,0,0,-2,-1,-1,-1,-6
1528449931875977,1,-1,0,0,-2,0,-1,-6
1528449931882715,-3,1,0,1,0,0,-2,-2
1528449931882715,-1,-1,-1,-2,0,-2,-1,4
1528449931898685,4,-1,0,0,1,0,0,0
1528449931898685,0,-1,-2,-4,-1,-1,-1,5
1528449931905654,-1,-1,0,-2,-1,1,-1,-8
1528449931905654,-10,-1,1,1,1,0,0,-6
1528449931920613,-2,1,2,0,0,1,1,5
1528449931920613,-1,-1,-2,-2,0,-1,-3,-6
1528449931935816,-2,-1,-2,0,0,-1,-1,3
1528449931935816,-1,-2,-2,0,-1,-1,-1,-11
1528449931943043,-2,0,-1,-3,-2,-2,-1,-4
1528449931943043,3,-1,0,-1,-2,0,1,7
1528449931957757,-2,-1,-1,-3,0,-2,-2,-7
1528449931957757,0,-1,1,0,-1,-1,-1,-20
1528449931965744,6,0,1,2,1,1,6,27
1528449931965744,0,-1,-1,-2,-2,0,0,-2
1528449931980700,1,-1,-1,-1,-3,-2,-1,2
1528449931980700,2,-2,-3,0,-2,0,1,2
1528449931995656,-6,1,-1,0,-3,-1,-1,0
1528449931995656,2,-1,-1,-1,1,-1,0,2
1528449932002637,-5,-1,0,0,0,0,0,-5
1528449932002637,8,1,3,-1,1,-1,-1,-4
1528449932017600,3,0,-2,-1,0,0,3,13
1528449932017600,-3,0,-2,-2,-3,-2,-1,-4
1528449932025579,-6,1,-1,-1,0,0,-1,-5
1528449932025579,-1,0,-1,-1,-1,0,0,-2
1528449932048514,-1,-1,-3,-1,0,-1,0,4
1528449932048514,-4,-1,0,0,-2,-1,-2,-20
1528449932063477,0,1,1,0,0,0,1,10
1528449932063477,3,-2,-1,0,1,0,0,2
1528449932070456,-1,-2,0,1,-1,-1,-2,-4
1528449932070456,1,0,1,-2,1,-2,0,1
1528449932085416,7,-1,0,-2,-1,1,4,24
1528449932085416,0,-2,-2,0,-2,1,0,5
1528449932100376,-10,-1,-1,-3,0,-2,-4,-11
1528449932100376,4,1,-2,0,1,-1,-1,0
1528449932115339,1,0,0,0,0,-1,0,6
1528449932115339,-2,1,0,0,0,0,2,8
1528449932123318,1,-3,-1,0,-1,-2,-3,-6
1528449932123318,-2,-2,0,-1,-1,0,-1,3
1528449932138278,-1,-1,-2,-2,0,0,-2,-7
1528449932138278,-1,0,1,0,-1,0,1,0
1528449932145494,1,0,-2,-3,-2,-2,-1,-5
1528449932145494,-4,-1,-1,-1,0,-2,0,5
1528449932168195,-2,-2,0,-2,-1,0,0,4
1528449932168195,-3,1,-1,1,-2,-1,-1,-2
1528449932183352,3,-1,0,-2,0,0,0,7
1528449932183352,-4,1,-1,-2,0,-3,-2,-18
1528449932191317,5,1,-1,2,1,-1,1,7
1528449932191317,-3,-2,-4,0,1,0,1,-4
1528449932205759,-6,0,-1,0,0,1,0,2
1528449932205759,1,-1,-3,-1,-2,0,-1,0
1528449932213653,-3,-1,-1,-1,-2,-2,-2,-11
1528449932213653,0,0,1,-2,-2,-1,1,7
1528449932221325,-2,-1,0,0,-1,1,-1,-3
1528449932221325,4,0,0,-1,1,0,3,12
1528449932235530,-5,-3,-2,1,0,-1,-3,-13
1528449932235530,2,-1,0,-2,0,-1,1,4
1528449932243508,6,1,0,-1,0,-1,-1,5
1528449932243508,0,-2,-1,-1,0,0,-2,4
1528449932258474,-10,-2,-1,-1,0,1,0,-8
1528449932258474,-5,-1,-1,-1,0,-2,0,-3
1528449932265538,3,-1,-1,0,0,-2,2,1
1528449932265538,9,1,1,0,0,0,-1,10
1528449932280722,-9,-2,-1,-2,-3,-1,-1,-14
1528449932280722,-1,0,0,1,0,0,-1,1
1528449932295758,0,-2,-1,0,-2,-3,0,-5
1528449932295758,2,1,1,-1,0,0,0,-9
1528449932303738,3,0,-1,-1,0,1,1,18
1528449932303738,-3,-1,-1,-2,0,-2,-1,-4
1528449932318236,-1,1,2,0,-1,0,-1,-4
1528449932318236,-4,0,0,-1,-2,-1,-2,-3
1528449932325952,-2,1,-1,-2,-1,-1,-1,-5
1528449932325952,3,-2,-1,-2,-1,-1,1,-1
1528449932341257,0,-1,1,1,1,0,0,-1
1528449932341257,-1,-1,0,1,0,-1,-2,-2
1528449932363648,3,-2,-1,-4,-2,-2,-1,1
1528449932363648,5,-1,-3,-1,-2,2,1,8
