timestamp,emg1,emg2,emg3,emg4,emg5,emg6,emg7,emg8
1528444742708843,-1,-1,-3,-1,1,-1,0,-1
1528444742708843,1,0,-1,-2,-1,-1,-1,1
1528444742709841,-2,-1,0,-2,-1,-1,-1,-2
1528444742709841,-1,0,0,-1,-1,-2,0,0
1528444742714828,0,-1,-3,0,0,-1,-2,-2
1528444742714828,-2,-2,-1,-1,0,0,0,-1
1528444742719814,-2,-1,-2,-1,0,-1,-2,1
1528444742719814,-3,-1,-1,0,-1,-1,-1,0
1528444742720811,-1,-1,0,-1,0,0,0,-1
1528444742720811,-1,0,-2,-2,-1,-3,0,-2
1528444742728788,-1,-1,-1,-1,-1,-2,-1,0
1528444742728788,-1,0,-2,-1,-1,-2,-1,0
1528444742741754,-1,0,0,-1,-1,-2,0,1
1528444742741754,-1,-1,0,1,1,0,-2,-1
1528444742753721,0,0,-1,-1,-2,-1,-1,-1
1528444742753721,-2,-3,0,-1,-1,-2,-2,-2
1528444742758708,-1,-2,-1,-3,-1,-3,-1,-1
1528444742758708,-1,-2,-2,0,0,-1,0,0
1528444742782645,0,-2,0,0,0,-1,1,0
1528444742782645,0,-1,-2,-2,0,-1,-2,-1
1528444742784641,1,0,-2,0,-1,-1,-1,-2
1528444742784641,0,-1,0,-1,-1,0,-3,-2
1528444742795611,0,0,-1,-1,-1,-1,0,-2
1528444742795611,-1,0,-3,-2,-2,0,0,-1
1528444742836501,-1,-3,0,-2,-1,1,0,-3
1528444742836501,-1,-2,-2,0,-2,-1,-2,-2
1528444742837499,-1,-1,-1,-1,0,-1,-1,-2
1528444742837499,-2,-1,-2,-2,-1,1,-1,-1
1528444742840490,0,0,-1,0,-1,-1,0,0
1528444742840490,1,0,-1,-1,-1,-2,-1,-1
1528444742840490,-1,0,0,-1,-2,-1,-2,-2
1528444742840490,0,-2,-3,-1,-1,-1,-2,-1
1528444742848469,-3,-2,-2,1,-2,-2,-1,0
1528444742848469,0,-1,0,-1,-2,-1,-1,0
1528444742855451,-2,-1,-1,-1,0,-2,1,0
1528444742855451,0,0,-2,-1,-2,-1,-1,-1
1528444742871408,-1,-1,0,-2,1,-2,0,-1
1528444742871408,-2,-2,-1,0,0,1,0,-1
1528444742877391,-1,-2,-1,0,-1,0,-2,0
1528444742877391,-3,-2,-2,0,0,0,0,-2
1528444742892352,0,0,-1,-1,-1,-1,0,-1
1528444742892352,-3,-1,-2,0,0,0,-1,-1
1528444742908309,-1,-2,-3,-1,-1,-1,-2,0
1528444742908309,-1,-2,-2,-1,0,-2,-1,-1
1528444742910303,-1,0,-1,0,-2,-1,-4,-2
1528444742910303,-1,-1,-1,-2,-2,-1,-2,-1
1528444742931247,0,0,0,0,-2,-1,-1,-1
1528444742931247,-2,-1,0,-2,-2,0,0,-1
1528444742932244,-1,-1,-1,-2,-1,-1,-2,-1
1528444742932244,1,0,0,-2,-2,-4,-3,-1
1528444742945210,1,-2,-1,-1,-1,1,-2,-1
1528444742945210,0,-1,-1,-1,-1,-1,-2,0
1528444742952191,-1,0,-1,0,0,-2,0,-1
1528444742952191,-1,-1,-1,-1,-1,-1,0,-2
1528444742968150,-2,-2,-1,-1,0,-3,0,0
1528444742968150,0,0,-2,-1,-1,0,-1,-2
1528444742976128,-1,-2,-2,-1,-2,-1,0,-1
1528444742976128,0,0,-1,0,-1,0,-1,0
1528444742991088,-1,-1,-1,0,-1,-1,-1,-1
1528444742991088,0,0,0,-1,-2,-1,1,-1
1528444742993082,1,-1,-3,0,-1,0,0,-1
1528444742993082,-1,-1,-2,0,-2,0,-1,-1
1528444743005052,0,-1,-3,-1,-2,-2,-1,-2
1528444743005052,0,0,0,-2,-1,-1,-2,-1
1528444743012033,-1,0,-2,-1,0,-1,-1,-2
1528444743012033,0,-1,-3,-2,-2,0,-2,-1
1528444743027990,-1,-1,0,-2,-3,-2,-1,-1
1528444743027990,-2,-1,-2,1,0,-2,-1,-1
1528444743029984,0,-1,-3,-1,-1,0,-1,-1
1528444743029984,-1,-1,-1,-1,-1,-1,0,0
1528444743050928,-1,-1,-2,-3,0,-1,0,-1
1528444743050928,0,-1,-2,-2,-1,-1,0,0
1528444743051925,-1,-2,1,-1,-1,1,-1,0
1528444743051925,0,0,-2,0,-1,-2,-1,0
1528444743064893,0,-1,-2,-2,0,0,1,-3
1528444743064893,-1,-3,-3,0,0,-1,-1,-1
1528444743073867,-2,0,-1,1,-3,0,-2,-1
1528444743073867,-2,-1,0,-2,-1,-1,-1,-2
1528444743087829,0,-1,-1,0,-1,-1,-1,1
1528444743087829,-1,0,0,-2,-1,-1,0,0
1528444743089824,-1,1,-1,-1,0,-1,-1,-1
1528444743089824,0,-2,0,-1,0,0,-1,-1
1528444743109770,0,0,0,1,-2,-1,-1,-1
1528444743109770,-1,-1,-1,0,-2,-2,-1,-2
1528444743118747,0,0,0,-2,-3,-1,-1,-1
1528444743118747,-1,0,-2,-1,-1,-1,2,0
1528444743124767,-1,-1,-1,-3,-2,0,0,-1
1528444743124767,-1,-2,0,-1,-1,0,-1,-1
1528444743133706,0,0,-1,-1,-1,-2,-1,-1
1528444743133706,0,-2,-1,-1,-1,-1,-2,-1
1528444743148720,0,-2,0,-2,0,0,-1,-1
1528444743148720,-2,-2,-1,-2,-3,-3,-1,-1
1528444743149665,-1,-1,-2,0,0,-3,2,-2
1528444743149665,-2,-1,0,-1,-1,-1,-2,-1
1528444743170659,-1,0,-1,-1,0,-1,-1,0
1528444743170659,-1,-2,-1,-1,-1,-1,-1,-2
1528444743172645,-1,-2,-2,-2,-1,0,0,0
1528444743172645,-1,0,-2,-2,-3,-3,-3,-2
1528444743184623,1,-1,-2,-1,-1,-2,1,-2
1528444743184623,0,-1,-1,-1,0,0,-1,-2
1528444743193547,-2,-2,-1,-1,-1,-1,-2,0
1528444743193547,-1,-3,-3,-1,-1,-3,0,0
1528444743208507,-4,-1,-2,-1,-1,-2,-2,-1
1528444743208507,-1,0,1,0,-1,-2,0,-1
1528444743209506,0,0,-1,0,0,0,-1,-1
1528444743209506,-1,-1,-1,-2,-2,0,0,-1
1528444743230448,-1,-1,-1,-1,-2,-1,-1,-1
1528444743230448,-1,-1,-1,0,-2,1,-1,1
1528444743232443,-2,-1,0,-1,-1,-3,0,-3
1528444743232443,-2,-1,-1,-1,-2,-2,-2,-1
1528444743244465,1,-2,0,-1,-1,-2,-2,1
1528444743244465,0,-1,-2,-1,-1,-1,0,0
1528444743253397,-2,-2,-1,-1,-1,-2,-1,0
1528444743253397,-1,1,-1,0,-2,0,-1,-3
1528444743268384,-2,-1,0,-2,-2,-1,-1,-1
1528444743268384,-2,-1,-1,-2,-2,-2,-2,-1
1528444743270381,-1,-2,-1,0,-1,0,-2,-2
1528444743270381,-2,-2,-2,0,-1,-1,0,-1
1528444743291315,0,-2,-1,1,0,-1,-1,0
1528444743291315,-1,-1,-1,-2,1,-1,-2,0
1528444743292283,0,-1,-3,-4,0,0,-1,-1
1528444743292283,-1,-1,-2,-1,-1,-1,0,1
1528444743304277,0,-1,1,0,-1,2,-1,-1
1528444743304277,0,-3,-1,-1,-3,-2,0,-3
1528444743313226,-2,-1,-1,-1,0,-1,-1,0
1528444743313226,-1,-1,-1,0,0,0,0,-1
1528444743328186,1,-1,-2,-2,-2,-1,-2,-2
1528444743328186,0,-1,0,0,-1,-1,-1,1
1528444743330181,-1,-1,0,-1,-3,1,-1,-1
1528444743330181,-2,-1,0,-2,-1,-2,-2,-1
1528444743351125,-2,-1,-4,-1,-2,0,0,-1
1528444743351125,-1,0,-2,0,0,1,0,-1
1528444743352122,0,0,-1,-1,-2,-1,-1,0
1528444743352122,0,-1,-1,-2,0,-2,0,-1
1528444743364090,-1,-1,-2,0,-1,-2,0,-2
1528444743364090,1,-1,0,0,-2,-2,0,-2
1528444743373067,0,-1,-1,-2,-1,0,-2,-1
1528444743373067,-1,-2,0,0,-1,-1,0,-1
1528444743388027,-2,-2,-1,-1,-1,-1,-1,1
1528444743388027,-1,0,-2,-3,-1,-1,0,1
1528444743390022,-2,-2,-2,0,0,-2,-2,-2
1528444743390022,-1,0,-1,-1,0,1,-1,-3
1528444743410991,-1,-1,-1,0,0,-1,-2,-1
1528444743410991,-2,0,-1,-2,-2,-1,-1,-1
1528444743411992,-1,-1,-2,-2,0,-1,-1,-1
1528444743411992,0,0,-2,-1,-1,-2,-2,0
1528444743424981,-1,-3,0,-3,0,0,0,-2
1528444743424981,-1,-3,-1,-2,-1,-2,-2,-2
1528444743433918,-1,-1,-1,-1,0,-1,-1,0
1528444743433918,1,0,0,-1,-1,-1,1,-2
1528444743455845,-3,0,0,-1,-1,-1,0,-1
1528444743455845,-1,-2,-2,-2,1,-1,-1,-1
1528444743457840,0,-2,0,-1,-2,-2,1,0
1528444743457840,0,-2,0,-2,0,-1,-3,-1
1528444743470842,-2,-2,-3,-1,-1,-2,-1,-2
1528444743470842,-3,-1,0,0,-1,-1,-2,-1
1528444743472972,-1,0,-1,0,-2,0,-2,-2
1528444743472972,-1,-1,-1,-4,-3,0,-2,-2
1528444743484798,0,0,-2,-1,-2,-1,0,-1
1528444743484798,0,-2,-2,-2,-1,0,-1,-2
1528444743493744,0,-1,0,-1,0,-1,-1,-1
1528444743493744,0,-2,-2,1,-2,-2,-2,0
1528444743508716,-1,0,0,0,-2,-1,-1,-1
1528444743508716,0,-1,-1,0,-2,-1,-1,-2
1528444743509702,-2,-1,-1,-2,-2,-2,0,0
1528444743509702,-1,-2,-2,-3,1,-3,-1,1
1528444743530937,-1,0,-1,0,0,-2,-1,-1
1528444743530937,0,0,-1,0,-1,0,-3,0
1528444743532932,-2,-2,-1,-1,-2,-1,-2,-2
1528444743532932,-3,-1,-3,0,1,0,0,-1
1528444743553115,-2,-1,-1,0,-2,-1,-2,1
1528444743553115,-1,-1,0,0,-1,-2,-1,1
1528444743559889,-1,-3,-1,-2,-1,-2,-1,0
1528444743559889,0,-1,-1,-1,0,0,-1,-2
1528444743569079,0,-1,-1,-2,-2,-1,-2,0
1528444743569079,-1,1,-1,-1,-1,0,-1,-2
1528444743569995,0,-2,0,0,0,0,-1,-2
1528444743569995,-1,-1,0,-1,-1,-1,-2,0
1528444743591339,-3,-1,-2,-1,0,-1,0,-3
1528444743591339,-2,-2,0,-3,1,-1,-2,0
1528444743592115,-1,-1,-3,0,-1,-1,-1,-2
1528444743592115,0,-1,-2,0,-1,-1,0,0
1528444743614107,0,-1,-1,-1,-1,0,-1,-2
1528444743614107,-1,-1,-1,-1,0,-2,-2,-1
1528444743615031,0,0,0,0,-1,-3,0,-1
1528444743615031,-1,-1,-2,-1,-2,-1,-2,0
1528444743626999,1,-1,-1,-2,-1,-1,-1,-1
1528444743626999,-1,-2,-1,0,-2,-2,-1,0
1528444743636075,-1,-1,-1,-1,-1,-1,-2,0
1528444743636075,0,-1,0,-1,-2,0,-1,-1
1528444743651397,-1,-2,-1,-1,-1,0,0,-1
1528444743651397,-1,-2,-1,-1,0,-1,1,-1
1528444743653196,1,0,-3,-2,-2,-1,0,-1
1528444743653196,-2,0,-1,-1,-2,-2,-1,-2
1528444743674111,0,-3,-1,0,-3,1,-3,0
1528444743674111,-3,-1,0,-3,-2,0,0,0
1528444743674871,-2,-1,-1,1,0,-2,0,0
1528444743674871,1,-2,-1,-1,0,1,0,-3
1528444743687836,-1,-1,-1,0,0,-1,-1,-2
1528444743687836,-2,0,-2,0,-1,-3,2,-2
1528444743694817,-1,-3,-1,-1,-1,0,-1,0
1528444743694817,-2,-1,0,-1,-2,0,-1,0
1528444743710775,-1,0,0,-1,1,-2,0,-2
1528444743710775,0,1,-1,0,-2,1,-4,-2
1528444743712769,-2,0,1,0,1,1,-1,0
1528444743712769,-2,0,-1,0,-2,-2,-2,-2
1528444743733714,-1,-1,-1,0,-1,-2,-2,0
1528444743733714,-1,0,-2,0,-3,-1,-1,0
1528444743734865,0,0,0,-1,-2,-1,0,-2
1528444743734865,0,-1,0,-2,1,2,-2,1
1528444743747700,-1,-2,0,-2,-1,-1,-1,-2
1528444743747700,1,-2,-1,-4,0,-1,-2,-1
1528444743754892,-1,1,-2,-1,-1,-1,0,0
1528444743754892,-2,-1,0,-1,-3,-2,-1,-1
1528444743770662,0,-1,-2,-1,-1,-2,-1,0
1528444743770662,0,-2,-1,0,-2,-1,-2,-2
1528444743772609,-1,-2,-1,-1,0,-2,-1,-2
1528444743772609,0,-1,-3,0,0,-2,0,-2
1528444743793555,0,0,-2,-2,-1,-1,-1,-1
1528444743793555,-2,-2,-1,0,2,0,-1,0
1528444743794820,-2,-1,-1,-1,-1,-1,-1,-1
1528444743794820,-1,-1,-1,-1,-1,-1,-1,-1
1528444743816730,-1,-2,-1,-1,-1,1,-1,0
1528444743816730,-2,0,0,0,-1,-2,-1,-2
1528444743817490,-1,-2,-2,-7,-3,-1,-2,-1
1528444743817490,-1,0,0,-3,0,-1,-1,-2
1528444743830118,0,0,1,-3,-2,-3,-1,-1
1528444743830118,-1,-1,-3,0,-1,0,-1,-1
1528444743838470,-1,-1,-1,1,-2,-1,-3,-1
1528444743838470,0,-1,1,-2,0,-2,-1,0
1528444743854210,-3,-1,-2,-1,0,-1,-1,-1
1528444743854210,0,0,-1,-1,-1,0,-1,0
1528444743855165,1,-2,0,0,-3,-1,-3,-1
1528444743855165,-1,-1,-2,1,-2,-1,-1,-1
1528444743875419,1,-1,0,2,-1,-1,-1,-1
1528444743875419,-1,-3,-1,-2,-1,-1,0,-1
1528444743877495,-1,0,-2,0,1,-1,-2,-2
1528444743877495,0,-1,0,-1,-2,0,-1,-1
1528444743889383,-1,0,-1,-2,-1,-1,0,0
1528444743889383,-1,0,-2,-1,-2,-1,0,-1
1528444743898616,0,-1,-2,0,-2,0,0,0
1528444743898616,-3,-1,-1,1,-1,-2,-1,-1
1528444743913578,-1,-1,-1,-4,0,0,0,-2
1528444743913578,-1,-1,1,-1,1,0,-1,-1
1528444743914573,-2,0,0,-1,-1,0,-1,-1
1528444743914573,-1,-1,-2,1,-3,-2,-1,-3
1528444743936644,-1,0,-2,-1,-2,0,2,-1
1528444743936644,-1,-2,-1,-1,-1,-2,-2,-3
1528444743937513,-1,-2,0,-2,0,-1,1,-1
1528444743937513,-1,-4,-1,-1,0,-1,0,-1
1528444743949905,-1,-2,-3,-1,-2,0,-2,1
1528444743949905,-2,-2,1,-1,-1,-2,0,1
1528444743958521,1,-1,-1,1,-1,-2,0,0
1528444743958521,-1,0,-1,-6,-4,0,1,0
1528444743973777,0,-1,0,0,0,-2,-2,-1
1528444743973777,-2,-1,1,-2,-3,-1,-1,-1
1528444743975374,-1,-2,-1,0,-1,0,-2,-1
1528444743975374,0,0,-1,-1,1,-1,-1,0
1528444743996688,1,0,-1,-1,-1,-3,-1,-4
1528444743996688,-1,-2,-1,0,-1,-1,-1,-1
1528444743997648,-2,0,-1,-2,-2,0,-1,-2
1528444743997648,-2,-2,-2,0,-1,-1,0,-1
1528444744019140,-2,0,1,-2,-1,0,0,0
1528444744019140,-2,0,-1,-1,-2,0,-2,1
1528444744019847,-1,-1,-1,0,0,-1,-1,0
1528444744019847,0,-3,0,0,-1,-1,-1,-1
1528444744032809,-1,-3,-1,-2,-2,-3,-1,-3
1528444744032809,-1,0,-1,-2,-2,-1,0,-1
1528444744040789,-1,-2,-1,-1,-1,-1,0,-2
1528444744040789,-1,-1,-2,-1,1,-1,-2,1
1528444744055783,-3,0,-2,0,0,-2,-2,-2
1528444744055783,1,-2,-3,-1,0,-1,-1,0
1528444744057776,-2,1,-1,-1,-1,-2,-1,-2
1528444744057776,0,-2,-2,0,0,-1,-1,-2
1528444744078688,-1,0,0,0,-2,0,-1,0
1528444744078688,-2,0,0,-1,0,-2,0,-1
1528444744079686,-1,0,-2,-1,0,-1,-1,-1
1528444744079686,0,-1,-1,-1,-1,-1,0,0
1528444744093707,-1,-2,0,-1,-2,1,-1,-1
1528444744093707,-1,1,-1,-1,-1,-1,-1,-1
1528444744094653,0,-2,-2,0,-2,-3,-2,-1
1528444744094653,-1,0,-1,0,0,0,1,-2
1528444744115646,-1,-2,-4,-1,0,-1,0,-1
1528444744115646,0,-2,-1,0,-2,0,0,-1
1528444744117584,-2,-1,-2,-1,0,1,-1,-1
1528444744117584,-1,1,-2,-1,-4,-1,-1,0
1528444744138529,0,-1,0,-2,-1,0,-1,0
1528444744138529,-1,-2,0,-1,-2,-1,-3,-3
1528444744139526,-2,-1,0,0,-1,-3,-2,0
1528444744139526,-2,-1,-2,-5,0,-1,0,-2
1528444744152490,-1,-1,-1,-1,0,0,-1,-1
1528444744152490,0,-1,-1,-1,-2,-1,0,0
1528444744160524,0,-2,0,-1,-2,0,-1,-2
1528444744160524,0,0,-1,-1,0,-1,-1,-1
1528444744175429,-2,-2,-1,0,-1,0,0,1
1528444744175429,-2,-1,-1,0,0,-2,0,0
1528444744177423,-2,-2,-1,0,-2,-2,0,0
1528444744177423,-2,-1,0,0,-2,0,-1,-1
1528444744198368,-2,0,-1,-1,-2,-1,-4,-2
1528444744198368,-1,0,0,-1,-2,0,0,0
1528444744200416,-1,-1,0,-3,-1,-1,-1,-3
1528444744200416,-1,-1,0,1,0,-1,-1,-1
1528444744212330,-2,-2,-1,-2,0,-2,-1,-1
1528444744212330,-2,-2,-1,-1,-2,-2,-1,-3
1528444744219366,0,-1,-2,-1,-2,-2,-1,-1
1528444744219366,-1,-1,0,-1,-1,1,0,0
1528444744236275,-1,-2,-1,-2,-1,-2,-2,-1
1528444744236275,0,-1,-1,-2,-1,0,-3,0
1528444744237264,0,-1,-2,-1,-1,-2,0,1
1528444744237264,-2,0,0,2,1,-1,0,0
1528444744258241,0,-1,-2,0,-1,-2,-2,-1
1528444744258241,-1,-2,0,-2,-1,-2,-2,-2
1528444744260204,0,-2,0,-1,0,-1,-3,-1
1528444744260204,0,-2,0,0,-2,-1,-2,-1
1528444744273183,-2,0,-3,-1,-1,0,0,-2
1528444744273183,-1,1,-1,-1,-1,-2,0,-1
1528444744279209,-1,0,-1,-1,-2,0,1,-2
1528444744279209,-1,-1,-2,-2,-1,-1,-1,0
1528444744296161,-2,-2,-1,-1,0,0,0,-1
1528444744296161,1,-1,-2,-1,-1,-1,-1,-1
1528444744297129,-2,-1,-1,-2,-2,-1,-1,-1
1528444744297129,-1,-3,0,-1,-1,-1,-1,-2
1528444744318102,-2,-2,-1,0,-1,1,-1,-1
1528444744318102,-2,0,-1,0,0,-1,-2,0
1528444744320043,0,-1,-1,-2,-1,-1,-1,-1
1528444744320043,-1,-1,0,-1,-1,-1,0,-1
1528444744333062,-1,-1,-1,-1,0,-1,0,-1
1528444744333062,1,-1,-1,-1,-1,-1,-1,0
1528444744339990,0,-1,-2,-1,-2,0,-2,0
1528444744339990,0,-3,-1,-2,-1,-2,-2,2
1528444744364064,-2,-1,-2,-2,-1,-1,-2,0
1528444744364064,-3,-2,-1,0,0,0,0,-1
1528444744364927,0,0,-2,-2,-1,-1,0,-2
1528444744364927,-2,0,-1,0,-3,-1,-2,-2
1528444744379110,1,-1,-1,-2,-1,-2,0,1
1528444744379110,-2,-2,-2,-1,0,-1,-2,0
1528444744379885,0,-1,0,0,-2,-1,-1,-1
1528444744379885,0,0,0,-1,-1,-1,-1,-2
1528444744392166,-1,-2,-2,0,-1,-1,0,-1
1528444744392166,0,-2,0,-1,-2,-1,-1,-2
1528444744399703,-2,-1,-1,0,-1,0,-1,0
1528444744399703,-2,-1,-2,0,0,-2,-3,-1
1528444744415742,1,-1,0,1,-3,-2,-2,0
1528444744415742,0,-1,-3,-1,-2,-2,-1,-2
1528444744422742,-1,-2,0,-1,0,0,0,-1
1528444744422742,-1,-2,-4,-2,-2,0,-1,-1
1528444744438904,-1,-1,-3,-1,-2,-2,0,-2
1528444744438904,0,0,-2,-1,-1,0,-1,0
1528444744440746,-1,0,-2,-3,0,-2,1,-2
1528444744440746,0,-2,-3,-1,-1,-1,-1,-3
1528444744461586,-1,-1,-1,0,-1,0,-1,-1
1528444744461586,0,-1,1,-2,-3,0,1,-2
1528444744462573,-1,-1,-1,-1,-2,-2,-1,0
1528444744462573,-1,-1,0,0,0,0,0,-1
1528444744475565,0,-1,0,-2,-2,-2,-1,0
1528444744475565,-1,-1,-1,-2,-1,-2,0,-1
1528444744477535,-1,-1,0,1,-1,0,-1,-1
1528444744477535,0,0,-1,-1,-1,0,0,0
1528444744498478,0,-1,0,0,-3,0,-1,0
1528444744498478,-1,0,1,-1,1,0,-1,-1
1528444744500680,-1,-2,-1,-3,-1,-1,-1,-1
1528444744500680,-1,-1,0,-1,-1,-1,-2,-2
1528444744512706,-1,-2,0,-1,-1,-2,0,-2
1528444744512706,-2,-1,-2,-1,1,-2,-2,-1
1528444744521687,-1,-2,-1,0,-1,0,-1,-2
1528444744521687,0,-1,0,-1,-1,-1,0,-1
1528444744535694,-1,0,-1,-2,0,0,-2,-2
1528444744535694,-1,-2,-1,-1,-2,-1,-1,-1
1528444744537690,1,-1,-1,0,0,-1,-1,-2
1528444744537690,-1,-2,-1,-1,1,-1,-1,-1
1528444744558635,-2,0,-1,-1,-1,-1,-3,-1
1528444744558635,-1,-1,0,-1,-2,-1,-1,0
1528444744559632,-1,0,-2,0,-2,-2,-1,-1
1528444744559632,-1,-1,-1,-2,-3,-1,0,-1
1528444744572060,-3,-1,1,0,-1,-1,-1,0
1528444744572060,-1,-2,-1,-1,1,0,-1,-2
1528444744580917,-2,-1,1,1,-1,0,0,1
1528444744580917,-1,-1,-2,-1,-1,-3,-2,0
1528444744596695,1,-3,-1,0,-1,1,-1,-2
1528444744596695,-3,0,-1,-1,-2,-1,0,-1
1528444744597379,-1,-1,-2,-1,0,-2,-1,-1
1528444744597379,-1,-1,0,-1,-1,-2,-1,-1
1528444744618577,1,-1,-2,-1,0,-1,0,-1
1528444744618577,0,0,-1,-1,-1,-1,-1,-1
1528444744620309,0,-2,0,0,0,-1,-2,-2
1528444744620309,-1,-2,-1,-2,0,-1,-1,1
1528444744632294,-1,-1,-1,0,0,-1,-3,1
1528444744632294,-1,-3,-1,-2,0,0,0,0
1528444744641544,-2,-3,-2,-2,-1,-1,0,-1
1528444744641544,-1,-1,-3,1,-2,-1,-1,-1
1528444744656472,-1,0,-1,-1,-1,-2,-1,0
1528444744656472,0,1,-2,-1,-2,-1,-2,-1
1528444744657391,-1,-2,-1,0,-1,-2,-1,-2
1528444744657391,-1,-1,0,-1,0,-1,-1,-1
1528444744678744,-1,0,0,-1,-1,1,0,-1
1528444744678744,-1,0,-2,1,0,0,-1,-1
1528444744679779,-2,0,0,-1,-2,-1,-1,-2
1528444744679779,-2,-1,-2,-2,-1,-1,0,-1
1528444744692435,-1,0,-2,0,-1,-1,0,0
1528444744692435,0,0,-2,-1,-1,0,0,-1
1528444744701411,0,0,-2,-1,0,0,-2,1
1528444744701411,0,-1,0,-1,-1,-1,-1,-2
1528444744716591,-1,1,-1,-2,-2,-1,-1,-1
1528444744716591,0,0,1,-1,-1,-2,-1,-2
1528444744717407,-1,-1,-1,-2,-1,0,-1,0
1528444744717407,0,0,-1,0,-1,0,-2,0
1528444744738785,-2,-2,-2,-1,-2,-2,-2,-1
1528444744738785,-2,-1,-1,-2,-1,-2,0,-2
1528444744739833,1,-2,0,-2,-1,-1,0,-2
1528444744739833,-2,-1,-1,0,1,-1,-1,0
1528444744752533,-2,-2,-1,-2,-1,-2,0,-1
1528444744752533,0,-3,-2,0,-2,-1,-1,-2
1528444744760751,-1,0,-1,-1,-1,-1,-1,-2
1528444744760751,-2,-1,-1,-2,-2,-1,-1,1
1528444744775061,0,-1,0,-1,-2,-1,-2,-1
1528444744775061,0,-2,-1,-1,-2,-2,-2,-2
1528444744782093,-2,0,-1,0,1,0,-1,-2
1528444744782093,0,-2,-2,-1,0,0,-2,-2
1528444744799710,-2,-1,0,-1,-1,-2,-1,-1
1528444744799710,-2,0,-2,0,-2,0,-1,0
1528444744800644,1,-2,-1,1,-1,-2,0,-1
1528444744800644,-1,0,1,-2,-3,-1,-1,0
1528444744812709,-1,-2,-1,-1,0,0,-2,-1
1528444744812709,-2,-1,0,-2,-1,0,0,-1
1528444744821839,-2,-2,-2,-2,-1,0,0,0
1528444744821839,0,-2,-3,0,-2,0,-1,0
1528444744835812,0,-1,-1,-1,-1,-2,-2,-2
1528444744835812,0,1,-3,0,-2,-2,-2,-2
1528444744841741,-2,-2,0,-1,-1,-1,-2,0
1528444744841741,-2,-1,-2,-1,0,-2,-2,-1
1528444744858825,1,-1,-1,-1,-3,1,1,-1
1528444744858825,1,-2,-1,-3,-1,1,-1,0
1528444744859795,-1,0,-1,-3,-1,-1,0,1
1528444744859795,0,0,0,0,-3,0,0,-1
1528444744872846,-1,0,-2,-2,-1,-3,-1,-1
1528444744872846,-1,-2,1,-1,-1,-3,0,0
1528444744880960,0,-1,-1,1,-2,-1,-1,-1
1528444744880960,-1,0,-2,-2,1,-2,0,-1
1528444744896326,0,-1,-2,-1,-1,0,-1,-1
1528444744896326,1,-2,0,-1,-1,-2,-1,-1
1528444744897421,-1,0,1,0,-1,-1,-2,0
1528444744897421,-1,-1,-1,-1,-1,0,-1,-1
1528444744918589,-1,-1,-2,-2,-2,-1,-1,-1
1528444744918589,-2,-2,-1,-1,-1,-1,-2,-1
1528444744920265,-1,-2,-2,-2,-1,-1,-2,0
1528444744920265,0,-2,-1,-3,-1,-2,-1,-2
1528444744932233,-1,-2,-1,-1,-2,-2,0,0
1528444744932233,-2,-1,-1,-2,-2,0,0,0
1528444744941208,-1,-2,-1,-1,-1,-3,-1,-1
1528444744941208,-1,-1,2,0,-2,-1,0,-2
1528444744955756,-1,0,-2,0,-1,0,-1,0
1528444744955756,-1,-1,-1,-2,-1,-1,-3,-1
1528444744957487,-2,-1,-2,-1,-2,-1,-1,-2
1528444744957487,-1,-1,-2,-1,-1,0,-1,0
1528444744978983,1,-1,0,-1,-1,-1,-2,-1
1528444744978983,0,0,-2,1,0,-2,0,-1
1528444744979938,-1,-1,-1,-1,0,-1,0,0
1528444744979938,0,-1,-2,-1,0,0,-1,-2
1528444745001621,-2,-1,-2,0,0,-2,0,-1
1528444745001621,2,-1,-1,-3,-2,0,-2,-1
1528444745003316,-1,0,0,-1,-2,-1,0,-3
1528444745003316,-1,0,-1,-1,-1,-2,0,0
1528444745016508,-2,-1,-2,-1,-1,1,0,1
1528444745016508,-2,-1,-2,-1,-1,-1,-1,-1
1528444745017472,0,-1,-2,-2,-2,0,-1,-2
1528444745017472,-1,-3,0,-1,-2,-1,-2,-2
1528444745038435,-1,-1,0,-1,-2,-1,-1,0
1528444745038435,-2,-3,-1,-2,-2,-2,-1,-1
1528444745040173,0,0,-1,1,0,0,-1,0
1528444745040173,0,1,-1,-1,-3,0,0,-2
1528444745061118,-1,-1,-1,-1,1,0,0,-2
1528444745061118,-2,-1,-2,0,-1,0,-1,-2
1528444745062415,-1,-2,0,-1,0,-1,-1,0
1528444745062415,-1,-1,-1,-4,-1,-1,-1,-1
1528444745083690,0,0,0,-1,0,-2,-4,-2
1528444745083690,-1,0,-2,-1,0,0,0,-2
1528444745085477,0,0,-1,-1,-2,-3,-1,-1
1528444745085477,0,-2,-1,1,1,-2,1,0
1528444745099052,-1,-1,-1,-2,-1,0,0,-1
1528444745099052,-1,-1,-2,-1,-1,-2,-1,-1
1528444745099746,-1,-1,-2,-3,-2,-1,-1,-1
1528444745099746,0,-3,-1,-1,-2,-3,-1,-1
1528444745121292,-2,0,-1,-1,-1,-2,-2,-1
1528444745121292,-3,-2,-2,0,-1,-2,0,-2
1528444745122456,0,1,-1,-1,0,0,-2,-1
1528444745122456,0,1,-2,-1,-1,-2,-2,0
1528444745135832,-2,-3,-1,-3,-1,-2,-1,-1
1528444745135832,1,-1,0,0,-3,0,-1,1
1528444745149924,-1,-2,0,0,-1,0,-1,-1
1528444745149924,-2,-1,0,-2,-1,-2,-1,-3
1528444745158912,-1,-1,-2,0,-1,-1,-2,-2
1528444745158912,-2,-2,0,-2,0,0,-2,0
1528444745159912,-1,-1,-2,0,-1,0,-1,0
1528444745159912,0,-2,-2,0,-1,-1,0,-1
1528444745179911,-2,-2,-2,0,-2,-2,0,0
1528444745179911,-1,-1,0,-3,-1,-2,-1,-1
1528444745180856,-1,0,-1,-2,-1,0,-1,-1
1528444745180856,-2,-1,0,-2,-1,0,-1,-2
1528444745194869,-2,0,-1,-1,-2,-2,0,0
1528444745194869,1,2,-2,0,-2,-1,-1,0
1528444745203365,-1,-1,0,-1,-1,-1,-2,-1
1528444745203365,0,-1,-1,-1,-1,0,-1,0
1528444745218312,1,-2,0,-1,0,0,0,-1
1528444745218312,-1,-1,-1,-1,-1,0,-1,-1
1528444745225349,-1,-1,0,-1,-1,-1,0,-2
1528444745225349,-2,-1,-2,1,-1,-1,-1,-2
1528444745240665,1,-2,-1,-1,-2,0,-1,0
1528444745240665,-1,-1,-2,-1,0,-1,-1,1
1528444745241306,0,-2,0,-1,-1,-1,0,-1
1528444745241306,-2,0,-2,0,-1,-1,-1,0
1528444745254539,-1,1,-3,-2,-1,-1,0,0
1528444745254539,-2,-1,0,-1,-1,0,-1,-2
1528444745262819,0,-3,-2,0,-1,-1,-1,-1
1528444745262819,0,-1,-1,-1,-1,-1,0,-1
1528444745277517,0,-1,-1,0,-1,-1,-1,0
1528444745277517,1,-1,-1,0,-2,-1,0,-1
1528444745278515,-2,0,-1,-1,0,-2,-2,-1
1528444745278515,-2,0,-2,-1,-1,-1,-1,-2
1528444745300701,-1,0,0,-2,-2,-1,-1,-2
1528444745300701,-1,-1,0,-1,-1,0,-1,1
1528444745301683,0,-2,0,-1,-2,0,-1,-1
1528444745301683,-1,0,0,0,0,-2,-1,0
1528444745314721,-1,-3,-1,-1,-2,-2,-2,-2
1528444745314721,0,-2,-2,-1,-3,1,-2,-3
1528444745323069,0,1,-1,-1,-1,-1,-1,-1
1528444745323069,-1,-2,0,-1,-2,-1,-2,1
