timestamp,emg1,emg2,emg3,emg4,emg5,emg6,emg7,emg8
1528882233989807,-2,2,-3,-1,-2,-2,-2,-3
1528882233989807,0,-8,2,-2,-1,-3,-2,0
1528882233999781,2,14,-5,-3,-5,-3,-2,1
1528882233999781,-4,-6,0,2,4,4,-1,-4
1528882234006762,2,1,3,2,-2,-11,-6,3
1528882234006762,-7,-16,3,2,2,-4,-11,-16
1528882234019740,0,5,-17,-8,-7,6,2,1
1528882234019740,2,9,5,8,9,10,13,5
1528882234035685,0,4,2,12,14,6,0,0
1528882234035685,1,2,-2,-5,3,-1,4,0
1528882234036682,4,-1,9,-15,-20,-14,-2,2
1528882234036682,0,0,-4,4,-9,16,4,0
1528882234082559,-2,-1,2,-15,11,-8,-4,-2
1528882234082559,-1,-1,-7,-1,-3,-6,-5,-3
1528882234083556,1,-1,5,15,-29,1,-6,-2
1528882234083556,0,2,2,-23,1,0,4,0
1528882234084554,1,-2,-5,12,-5,-4,-8,-2
1528882234084554,-2,3,8,-19,4,-21,3,-2
1528882234088544,0,-3,-16,40,16,-6,1,3
1528882234088544,-10,-10,-6,-1,12,48,3,-11
1528882234096523,1,0,-6,-2,1,9,10,7
1528882234096523,-3,0,2,-33,-11,-4,2,-7
1528882234103503,-3,-3,-8,-14,-29,-3,3,-4
1528882234103503,4,6,16,6,-21,-41,-3,5
1528882234117466,1,2,-1,7,54,44,1,-6
1528882234117466,1,-1,4,43,-17,3,2,4
1528882234126443,4,2,0,-3,5,-47,-7,3
1528882234126443,-2,-9,-4,-52,-26,-9,1,-4
1528882234132426,2,14,36,68,26,44,-4,-2
1528882234132426,-8,-28,-89,-33,12,-17,-3,-1
1528882234155364,-5,-9,45,-11,-5,21,-6,-9
1528882234155364,-1,-8,-55,11,-4,-26,2,6
1528882234156362,3,-4,22,-39,-50,-36,-2,9
1528882234156362,2,27,3,-60,-2,20,-20,-15
1528882234169327,-8,-21,0,17,9,5,4,-5
1528882234169327,1,1,-22,6,18,10,-1,0
1528882234185287,-1,-1,3,-46,-14,-15,4,3
1528882234185287,3,3,19,35,-34,-11,-1,5
1528882234193264,10,14,43,-5,-6,-10,6,13
1528882234193264,-9,-7,-16,47,32,30,-2,-15
1528882234193264,-2,2,1,26,8,0,1,-6
1528882234193264,-1,-5,0,-22,-3,-2,5,7
1528882234215212,-3,7,7,-78,-4,-3,-21,-26
1528882234215212,1,-7,11,45,12,-1,1,4
1528882234216202,1,-1,-23,16,-5,-16,-3,1
1528882234216202,-6,-4,-9,-25,-15,0,0,0
1528882234238144,-6,-6,17,19,-2,12,8,1
1528882234238144,0,-1,0,26,12,3,0,3
1528882234239142,0,14,8,-24,-12,-21,-7,-8
1528882234239142,7,-5,66,58,22,25,16,14
1528882234253103,-6,-3,-24,-49,-3,8,-16,-10
1528882234253103,1,4,25,-14,-9,-15,0,6
1528882234254101,-1,-2,-27,-15,-12,-3,-4,-4
1528882234254101,3,4,-1,21,8,-4,2,7
1528882234275045,-1,2,-24,21,7,3,-3,-6
1528882234275045,4,2,58,-28,-28,-5,-4,7
1528882234276044,-3,-8,-31,19,17,5,1,4
1528882234276044,-1,5,25,-21,0,-3,-10,-11
1528882234298009,3,-6,-39,18,-5,0,16,22
1528882234298009,-6,-1,-7,5,2,-2,-15,-40
1528882234299007,-2,2,14,-13,-14,-8,-1,-7
1528882234299007,2,-5,-60,0,10,1,-1,-5
1528882234312990,-1,4,-12,-18,0,2,3,1
1528882234312990,3,-3,-27,9,16,3,5,11
1528882234313941,-3,-9,42,9,-3,-2,1,1
1528882234313941,-6,5,-11,15,-3,-16,-10,-5
1528882234334884,7,6,-18,-13,0,10,8,11
1528882234334884,-3,-2,-11,-18,-10,1,-4,-1
1528882234335884,-2,-1,19,-6,-6,-3,-1,-4
1528882234335884,2,21,7,11,1,3,9,13
1528882234357824,-6,31,-67,-6,0,-15,-17,-25
1528882234357824,-1,24,41,-6,-9,-15,-4,1
1528882234358821,-3,-8,-60,-12,-8,6,-13,-2
1528882234358821,-4,-9,38,9,5,11,18,-11
1528882234372783,-3,-23,-5,4,5,-1,3,5
1528882234372783,0,-19,7,1,4,8,2,1
1528882234373780,-6,-26,-28,-18,-17,-12,2,8
1528882234373780,-5,-22,25,9,10,15,-12,-12
1528882234395724,-4,-23,-23,2,8,5,2,1
1528882234395724,5,16,15,1,-7,-13,-10,-2
1528882234395724,-2,-23,-32,-2,1,11,14,10
1528882234395724,-2,-17,26,-5,-9,-10,-6,0
1528882234417664,1,-7,12,6,1,-4,3,3
1528882234417664,-1,3,-2,-3,-10,-2,-2,3
1528882234418662,11,60,31,26,17,-5,-5,-5
1528882234418662,4,-5,-40,-17,-5,1,-3,-1
1528882234434645,0,-23,27,19,15,21,12,5
1528882234434645,2,-23,-22,-12,-1,1,4,5
1528882234435618,-10,-34,7,-20,-16,-4,-2,-10
1528882234435618,3,21,-3,6,-2,-6,-8,-3
1528882234463544,14,52,4,14,7,-13,-6,4
1528882234463544,-4,-8,13,7,11,-1,-1,-2
1528882234464541,-18,-47,-3,-29,-18,1,3,-10
1528882234464541,3,-2,1,4,3,-1,-2,16
1528882234477505,-1,9,13,0,-4,-3,-1,-1
1528882234477505,-2,6,-8,0,-6,-5,-2,0
1528882234478501,7,13,-1,20,9,-8,-4,-2
1528882234478501,-1,-4,0,7,-1,-2,1,-4
1528882234492491,-11,-30,-18,-22,-11,7,0,-3
1528882234492491,-11,-8,-2,-24,-14,6,5,-3
1528882234493463,2,36,12,7,12,-3,-2,2
1528882234493463,-2,24,1,15,2,-3,-3,-3
1528882234515403,5,50,19,14,5,-7,-4,-1
1528882234515403,-1,21,-11,-3,3,3,0,1
1528882234516400,0,14,8,-13,-10,-3,-3,-1
1528882234516400,0,7,14,-7,3,-1,0,-2
1528882234537343,-5,-13,7,4,-2,-2,-1,-2
1528882234537343,-1,-12,-35,-10,-3,2,2,0
1528882234538341,-3,-15,11,-7,-3,0,0,-1
1528882234538341,-1,-8,21,13,4,1,-1,-2
1528882234553348,-1,-14,-24,-3,-1,-2,2,2
1528882234553348,-2,-6,22,-6,-13,-8,-7,0
1528882234553348,8,10,18,16,4,-9,-14,6
1528882234553348,-8,-9,33,0,20,10,24,-9
1528882234575242,1,-11,-44,-7,-8,-13,-3,6
1528882234575242,7,3,34,-1,-2,5,-4,9
1528882234576241,-6,-4,-22,8,25,38,32,-11
1528882234576241,-4,-17,-10,-9,-12,2,-6,-1
1528882234598182,-1,-2,21,-4,8,2,0,1
1528882234598182,5,0,-2,-22,-11,-14,-4,3
1528882234598182,-4,-7,1,14,-7,-23,-24,-5
1528882234598182,-2,0,2,-19,3,8,2,-2
1528882234613156,-4,-2,-29,23,14,0,4,-3
1528882234613156,1,-2,1,5,0,-1,-2,-3
1528882234614139,4,7,62,67,11,-3,-3,0
1528882234614139,0,3,-9,-14,-17,-6,-6,2
1528882234635083,-3,-14,-25,-21,-5,-2,-5,-2
1528882234635083,-4,0,5,-7,-1,-1,-3,-3
1528882234636080,2,3,19,-16,-8,3,5,3
1528882234636080,0,0,-29,1,-2,-2,-1,2
1528882234658065,3,9,45,-5,-14,-1,-6,1
1528882234658065,-5,-11,-58,-11,6,-1,1,-5
1528882234659063,3,4,-11,17,8,6,7,4
1528882234659063,1,1,19,0,-1,-8,-6,1
1528882234672983,-4,-7,21,-7,-4,-1,-1,-3
1528882234672983,0,6,18,21,8,2,3,-2
1528882234673979,-7,-10,-8,-21,-9,-2,-3,-6
1528882234673979,-2,-12,-32,-10,-5,-7,-6,-2
1528882234694924,1,5,4,7,2,0,2,-2
1528882234694924,-1,2,15,12,3,2,1,-2
1528882234695938,-5,-6,-24,-30,-12,-4,-2,-2
1528882234695938,0,0,17,18,2,0,-2,1
1528882234717914,-3,0,-8,-11,-7,-2,0,-3
1528882234717914,-1,1,-5,4,2,0,-2,-1
1528882234718860,2,5,9,-6,-2,1,0,1
1528882234718860,0,-3,-31,-8,-4,-3,-3,-2
1528882234740800,-3,-10,3,-1,-1,7,3,-1
1528882234740800,2,8,-11,-11,-14,-12,-5,-3
1528882234741875,-2,-18,-23,-14,-1,2,4,2
1528882234741875,3,9,-1,4,4,-4,-2,-1
1528882234755760,0,17,15,15,2,-6,-9,-3
1528882234755760,-14,-56,-16,-25,-10,10,6,-4
1528882234755760,4,9,-16,5,7,-2,3,2
1528882234755760,-2,1,2,0,-3,-3,-3,0
1528882234777702,0,9,7,6,4,-3,-1,-1
1528882234777702,-5,0,45,13,-2,3,0,-2
1528882234778713,-3,-19,-47,-27,-15,-6,-5,-2
1528882234778713,-9,-21,-13,-10,-4,5,-1,-4
1528882234800652,3,13,-9,-15,-11,4,3,0
1528882234800652,7,21,6,19,19,-1,-1,0
1528882234801638,-3,2,14,13,1,-5,-3,-1
1528882234801638,2,-1,-14,-11,-1,2,1,0
1528882234815606,-3,-12,-3,-13,-5,0,-1,-3
1528882234815606,1,12,-12,15,3,-1,-1,0
1528882234816617,1,16,10,-10,-15,-12,-6,-1
1528882234816617,-3,-22,-16,-1,1,0,0,-1
1528882234837541,-8,-3,32,6,1,-3,0,0
1528882234837541,0,4,-43,-4,0,0,-2,-1
1528882234838540,-1,-5,26,-2,1,-6,-7,-1
1528882234838540,5,20,-11,4,-4,-7,-5,-1
1528882234852829,1,-11,30,1,2,3,11,0
1528882234852829,-1,-2,-21,-9,-6,-23,-8,-3
1528882234860483,2,7,22,-3,0,8,-1,4
1528882234860483,-4,6,39,14,9,19,7,-9
1528882234875713,-6,-15,-37,-5,-3,5,-1,-14
1528882234875713,6,10,23,2,-1,-4,1,9
1528882234876720,-13,-7,-46,-9,-3,-12,-7,-5
1528882234876720,-1,-4,16,0,0,-7,-2,3
1528882234897932,-2,1,-2,0,1,-3,-7,-1
1528882234897932,-4,3,15,0,-2,1,2,-7
1528882234898665,4,2,-10,-1,2,-2,-3,0
1528882234898665,-2,-2,9,3,-3,-3,-1,0
1528882234912676,-2,0,16,4,-1,-2,-2,-1
1528882234912676,2,-2,-22,-6,-2,0,-4,1
1528882234920606,-2,-7,23,-4,-2,4,3,-2
1528882234920606,1,4,-14,1,2,1,0,1
1528882234935567,0,-3,-11,-2,-1,-6,-2,1
1528882234935567,-4,-10,-15,-12,-3,6,-1,-2
1528882234936564,1,3,7,12,2,1,3,-2
1528882234936564,-2,1,-11,-1,-3,-8,-1,-2
1528882234957557,1,-4,7,0,3,0,-4,2
1528882234957557,-2,3,5,-18,-1,4,2,-1
1528882234958507,0,2,2,20,6,2,1,-2
1528882234958507,-2,-7,-9,2,0,-6,-4,0
1528882234972505,1,1,11,0,-4,-3,-2,0
1528882234972505,-1,-1,2,2,0,2,0,-2
1528882234980447,1,-2,-11,-8,-1,-1,2,1
1528882234980447,-1,2,-6,-2,-1,-2,-4,0
1528882234995695,-1,-2,-5,3,0,-1,-1,1
1528882234995695,0,2,4,-1,-2,0,0,-2
1528882234996692,0,-3,-8,-11,-5,-2,-1,0
1528882234996692,0,1,-1,6,4,1,1,0
1528882235018880,1,1,-15,-3,-1,-3,0,-1
1528882235018880,-3,-3,11,-1,-4,-1,-1,-1
1528882235019633,-3,-6,-36,-9,-7,-2,-2,-2
1528882235019633,0,1,4,-7,-5,-2,-1,0
1528882235032875,-1,-2,-4,-1,0,-3,-1,-1
1528882235032875,-1,1,-1,4,2,0,-1,0
1528882235040819,0,1,9,0,2,1,1,0
1528882235040819,-1,-1,-8,-9,-3,-1,0,-1
1528882235063897,-1,-1,0,10,2,0,-3,0
1528882235063897,0,-1,-1,3,0,0,-2,-1
1528882235064510,-3,-2,0,-5,-2,0,-1,-2
1528882235064510,-2,-1,-6,0,-1,-1,-3,-2
1528882235077476,0,2,10,0,-1,-1,-1,-1
1528882235077476,-1,-3,-9,-2,-3,-1,1,-2
1528882235078476,-2,-1,1,1,2,0,0,-3
1528882235078476,0,0,2,-3,-1,-2,0,0
1528882235101411,0,-3,-3,-5,-2,-4,-2,2
1528882235101411,-2,1,8,4,1,1,-1,-1
1528882235101411,0,0,-8,-3,0,-1,0,-2
1528882235101411,1,-1,4,-2,-1,-3,-4,0
1528882235123593,-3,-5,3,-5,-3,1,1,-3
1528882235123593,0,-1,-3,0,1,-2,-1,-1
1528882235124349,-1,-1,-1,-2,-2,1,0,-1
1528882235124349,-2,-1,-6,0,-1,-1,1,-2
1528882235138322,-1,-3,-4,-1,-4,-7,-4,-1
1528882235138322,0,-3,-15,-2,1,5,0,-2
1528882235138322,0,2,2,1,1,2,1,-1
1528882235138322,-1,-2,-3,-2,-3,0,-2,-3
1528882235161813,0,-3,-2,-2,-1,-4,-3,0
1528882235161813,-1,0,4,-1,-5,-2,0,1
1528882235161813,0,1,2,0,-1,-2,0,1
1528882235161813,1,-1,-6,-7,-6,-5,0,1
1528882235184377,-2,-1,1,-1,7,11,2,-2
1528882235184377,0,-1,2,1,-1,-4,-1,1
1528882235184377,0,-1,-1,-3,-2,-1,-1,-1
1528882235184377,-1,1,-5,-2,-2,-2,-1,-1
1528882235198201,-2,-1,1,2,-3,-6,-2,-2
1528882235198201,-1,0,0,0,3,1,1,0
1528882235199194,0,-1,2,-1,1,-3,-2,-2
1528882235199194,-1,-2,-2,-4,1,3,1,-1
1528882235221818,-2,0,-7,-2,-8,-13,-2,0
1528882235221818,0,1,-3,0,2,4,0,0
1528882235222457,0,-2,-1,-2,-4,-2,2,1
1528882235222457,-1,-1,2,3,1,0,1,0
1528882235245396,-2,-1,-5,1,0,1,-2,0
1528882235245396,-1,-1,-2,-3,-5,-6,-3,-1
1528882235248515,-3,-1,2,2,2,0,-2,-3
1528882235248515,-1,-2,-3,-1,-1,-5,-6,-1
1528882235251577,-2,-2,-1,-1,0,7,4,-2
1528882235251577,0,-1,3,1,-1,-6,-1,0
1528882235259582,0,-1,-2,0,0,2,-4,-3
1528882235259582,-2,-1,1,2,1,1,-2,-2
1528882235272789,1,0,-2,-1,-3,-3,-6,0
1528882235272789,-2,1,-2,-4,-7,-12,-11,-2
1528882235280502,-3,-3,-4,-3,-1,5,6,0
1528882235280502,-2,1,-2,-2,-4,1,0,-1
1528882235295494,0,-4,-3,2,3,5,1,0
1528882235295494,0,3,9,8,7,1,-1,0
1528882235296459,-2,0,-14,-7,-3,-11,-7,-1
1528882235296459,-1,-3,-3,-5,-6,-1,-3,0
1528882235309425,-3,-2,4,0,0,6,5,-2
1528882235309425,-1,-2,-7,-3,-5,-7,-2,-1
1528882235317643,-3,-3,3,2,2,13,5,-4
1528882235317643,0,1,-5,-1,-1,-1,2,0
1528882235332364,-1,-2,-3,-2,-2,-5,-5,-1
1528882235332364,-3,-1,1,-1,0,3,1,-1
1528882235340344,3,3,3,-1,-1,-2,-1,4
1528882235340344,1,1,-3,-1,-2,-4,-1,0
1528882235355302,0,2,6,-3,5,3,1,1
1528882235355302,0,0,1,5,1,-1,-1,-4
1528882235356307,1,1,-3,4,1,-4,-1,1
1528882235356307,-3,-6,-3,-5,0,1,-1,-2
1528882235370265,1,2,-2,-4,-5,-5,-3,0
1528882235370265,-1,0,1,-4,2,6,3,1
1528882235377245,-2,-5,-5,-5,-4,-6,-4,-1
1528882235377245,-2,-1,-1,1,-1,0,1,-1
1528882235392449,-1,-5,-7,-4,-1,0,0,1
1528882235392449,-1,1,3,1,-2,1,-1,0
1528882235401190,1,0,3,2,2,2,-2,1
1528882235401190,0,4,3,2,1,0,-2,-1
1528882235415718,1,1,3,1,0,-1,1,-1
1528882235415718,-2,-2,-3,-3,-2,0,-1,-1
1528882235416586,0,2,0,-2,-3,-1,0,0
1528882235416586,0,0,-1,1,4,0,-1,-2
1528882235430467,-1,1,-1,-3,-3,-4,-2,-1
1528882235430467,0,0,-1,1,0,2,-1,0
1528882235437654,0,11,1,-2,-4,-4,-5,-2
1528882235437654,1,6,-1,-3,-3,-1,-1,1
1528882235460650,-2,-18,-6,-9,-2,1,1,-2
1528882235460650,2,2,2,4,0,-5,-4,-3
1528882235461616,-5,-16,-13,-10,-3,2,1,-2
1528882235461616,-1,1,1,6,-1,0,0,0
1528882235475904,5,18,7,3,-1,-1,0,2
1528882235475904,-7,-18,-10,-9,-7,1,0,-2
1528882235476577,0,6,4,-13,-2,-4,-1,0
1528882235476577,-2,-5,8,-8,11,4,2,-2
1528882235489792,1,2,-1,25,15,3,1,-1
1528882235489792,1,0,5,-20,-7,-2,0,0
1528882235497833,0,-5,-1,3,-3,0,-1,-2
1528882235497833,-2,-5,-7,7,-5,-3,-2,-1
1528882235512065,-3,-4,-7,-2,-13,-4,-3,-1
