timestamp,emg1,emg2,emg3,emg4,emg5,emg6,emg7,emg8
1528189789985554,-1,-1,-1,-1,-1,0,0,-1
1528189789985554,1,-1,-1,-3,-1,-1,-1,0
1528189789992535,-1,0,-2,0,-1,-2,-2,-2
1528189789992535,-1,-2,0,0,-1,-1,-1,-2
1528189789994530,-2,0,0,-2,-1,0,-1,-2
1528189789994530,-1,0,-2,-1,-1,-1,-2,-1
1528189789995528,1,0,-1,-2,-1,-1,-2,0
1528189789995528,0,-2,0,-2,0,-1,-1,-2
1528189789997523,0,-2,-1,-1,-1,-1,-2,-1
1528189789997523,0,-3,-2,0,-1,-1,-2,-2
1528189790012482,-2,-1,-1,-2,-1,1,0,-2
1528189790012482,-2,-2,-2,-1,0,-2,0,0
1528189790020460,-1,-1,-3,0,-1,-1,0,-2
1528189790020460,-3,0,-1,-2,0,-1,0,-1
1528189790028439,-1,-2,-2,-1,0,-1,0,-2
1528189790028439,-1,-1,-3,-2,-1,-1,-2,-1
1528189790050382,2,1,0,-2,1,0,-1,-1
1528189790050382,-1,-1,-1,0,-2,-1,-1,0
1528189790066337,1,-1,0,-2,-1,-2,0,-2
1528189790066337,-1,0,-1,0,-2,-1,-2,-2
1528189790067335,-2,1,0,0,0,-2,-2,1
1528189790067335,-1,-1,0,-1,-1,-1,-1,-1
1528189790079304,-1,-1,-2,-1,-1,-1,-1,-1
1528189790079304,1,-1,0,-1,-1,-2,-1,0
1528189790119197,-2,-1,-1,-1,0,-2,-2,0
1528189790119197,-1,0,-1,-2,-1,0,-1,-1
1528189790120207,-1,-1,-1,-1,0,0,1,-1
1528189790120207,0,-2,1,-1,0,-1,-1,0
1528189790120207,-2,-2,0,-1,0,-1,-1,0
1528189790120207,-1,-2,-2,0,-1,-2,-1,0
1528189790121193,-2,-1,-2,-1,-1,-1,-2,1
1528189790121193,-2,0,-1,-1,-1,1,0,-1
1528189790126179,0,-2,-1,0,-1,0,0,-2
1528189790126179,0,-1,-2,-3,-1,0,0,-2
1528189790148118,0,-1,-1,-1,-1,-2,-1,-1
1528189790148118,0,-3,-1,0,1,-2,-2,0
1528189790150114,-1,-1,-2,-1,-2,0,-1,-2
1528189790150114,-1,-2,-1,1,0,0,-2,1
1528189790154103,-1,-1,-1,-1,0,0,0,-1
1528189790154103,-2,0,-2,0,-2,-1,-2,-3
1528189790177042,-1,1,-2,-1,-1,-1,0,1
1528189790177042,0,-1,-1,0,-1,0,-2,0
1528189790184023,-1,-2,-1,-1,-3,0,0,-4
1528189790184023,-4,-1,-1,-1,-1,-2,0,-1
1528189790192999,-1,-1,0,0,0,-2,-1,-2
1528189790192999,-2,-1,0,1,-3,-3,-1,-2
1528189790207959,-2,-2,-2,-1,-1,-1,-2,-1
1528189790207959,0,-1,0,-1,-3,-1,-1,1
1528189790215946,-1,0,-1,-1,-1,-1,-1,0
1528189790215946,0,-1,0,-2,1,-2,-1,-1
1528189790230898,-1,0,-2,0,-2,-3,-2,-1
1528189790230898,0,1,-1,-2,-2,-1,-1,-1
1528189790231895,-2,-2,0,-1,-2,0,-1,-3
1528189790231895,-2,-2,-1,0,-1,-2,-1,-2
1528189790244860,0,-1,-1,-1,1,-1,-2,1
1528189790244860,-2,0,-2,1,-1,0,-1,-2
1528189790253863,0,-1,-2,-1,-1,-1,-1,-1
1528189790253863,-1,-1,-2,-1,-2,-1,0,0
1528189790267799,1,-2,0,-2,-2,-2,0,-1
1528189790267799,0,-1,-1,0,-2,-1,-1,-2
1528189790276776,-1,0,0,0,-1,0,-1,0
1528189790276776,-1,-1,-2,0,-3,-1,-2,0
1528189790291771,-1,0,1,0,1,-2,-2,0
1528189790291771,0,0,-1,-1,0,-2,-1,-1
1528189790292759,0,-1,-1,-3,-3,-2,-1,-1
1528189790292759,0,-2,0,-1,-1,0,-2,-2
1528189790304700,0,0,-1,-1,-3,-1,-1,-2
1528189790304700,-2,0,-2,-1,1,-1,-1,0
1528189790313677,-2,0,-1,0,-1,-2,0,-1
1528189790313677,-2,-1,-2,-1,-1,-2,0,-4
1528189790328637,-1,-2,0,-1,-2,-1,-2,-2
1528189790328637,0,-2,-1,0,-1,-2,-1,0
1528189790329634,1,-3,-3,-2,-1,-1,-1,-1
1528189790329634,0,-3,-1,-2,-1,-1,0,-2
1528189790350604,-3,-2,-2,1,-1,0,-1,1
1528189790350604,-2,0,-1,-3,-2,-2,-1,-3
1528189790352589,-1,0,-2,-2,0,-1,-3,-1
1528189790352589,-1,-1,-1,-2,0,1,0,0
1528189790364578,0,-1,-3,-2,-1,-1,0,0
1528189790364578,-2,-2,-1,-1,-1,-1,0,0
1528189790379542,-2,-1,-1,0,0,-2,-1,0
1528189790379542,-1,0,-1,-1,-1,-3,-2,-2
1528189790388478,-2,0,-1,1,-2,-3,-1,-1
1528189790388478,-1,-1,-1,-1,0,0,-2,0
1528189790389473,0,-2,1,-1,-2,-1,0,-1
1528189790389473,-1,-3,-1,-1,-1,-1,-1,-2
1528189790410417,0,-1,-1,-1,0,-1,0,-2
1528189790410417,-2,-2,-2,-1,-1,-2,-1,-1
1528189790412413,-2,-1,-1,-1,1,0,0,-1
1528189790412413,-1,-1,0,-2,-1,0,0,0
1528189790424419,-2,-1,0,-1,-2,-1,-2,-1
1528189790424419,0,0,-1,-1,-1,-1,-1,-1
1528189790441336,0,0,-1,-1,-1,-1,-1,-1
1528189790441336,-2,0,-1,0,-1,-1,0,-1
1528189790448336,0,-1,-3,0,-2,-2,0,0
1528189790448336,1,-2,-3,-1,-2,0,-2,-1
1528189790450311,-1,-3,-1,-1,-3,-2,-2,-1
1528189790450311,-1,2,-1,-1,-2,-1,-1,-1
1528189790470259,-2,-1,1,-2,0,-1,-2,-2
1528189790470259,-2,-2,-1,0,-1,-1,0,-2
1528189790472304,-1,-1,-1,-2,-1,0,-1,-1
1528189790472304,-1,-3,-1,0,-1,-1,-1,-2
1528189790484221,0,-1,-2,-1,0,0,-1,-1
1528189790484221,-1,0,-2,-2,-2,-3,-1,-3
1528189790493197,-1,-1,-2,0,-1,-1,-2,0
1528189790493197,0,-1,-1,-1,-3,-1,0,-1
1528189790507159,0,-1,-1,-1,-1,1,0,0
1528189790507159,0,-2,-2,-3,-1,-1,-1,-1
1528189790523116,0,1,-1,0,0,0,0,-1
1528189790523116,-1,-2,-2,-1,0,0,-1,1
1528189790531095,-1,-1,-1,0,-1,-1,-1,0
1528189790531095,-1,-1,1,-2,0,-2,0,0
1528189790532093,-2,-1,-1,-1,1,-1,-1,-1
1528189790532093,-2,1,0,-1,1,-2,-1,-2
1528189790553037,-1,-2,0,-3,-1,0,-2,-2
1528189790553037,-2,-1,0,-2,1,-2,0,-3
1528189790555032,-1,-1,0,1,-2,-2,-2,-1
1528189790555032,-3,0,-2,-3,-1,-2,0,-1
1528189790576012,-2,-2,-1,-1,-2,-3,0,0
1528189790576012,-1,1,-2,1,-3,-1,0,-2
1528189790576974,-1,-4,-1,-2,-4,-3,-2,-2
1528189790576974,3,7,-1,-2,-1,1,-2,0
1528189790590962,-1,0,-2,-1,-1,-1,-2,-1
1528189790590962,0,-1,-1,0,-1,-1,-2,0
1528189790591959,-1,-1,-2,-1,-1,-1,0,-2
1528189790591959,-1,-5,-2,-1,-2,-2,-2,-2
1528189790604898,0,-3,0,-1,-1,-3,-2,-1
1528189790604898,-1,-2,0,-1,-2,0,-1,-1
1528189790613875,-1,-1,1,-1,-1,0,-1,-3
1528189790613875,-3,-2,-1,0,0,-1,0,-1
1528189790627837,0,-1,0,0,0,-1,0,-2
1528189790627837,-1,-3,-1,-2,1,-1,-2,-1
1528189790634845,0,1,0,-1,-2,-3,0,-1
1528189790634845,-1,-3,-2,0,-1,-2,0,0
1528189790658818,-1,-1,0,-2,-1,-1,-1,0
1528189790658818,-2,-1,-3,-1,-3,-2,0,-1
1528189790659753,-1,1,-2,-1,0,-1,0,-1
1528189790659753,-2,0,0,-1,-2,-1,-2,-3
1528189790673714,-1,-1,-2,-1,-1,-2,-2,-1
1528189790673714,1,-1,-1,-2,-1,-1,0,-3
1528189790674711,-1,-2,1,-2,0,1,0,0
1528189790674711,-3,-3,-1,0,0,-2,-1,-3
1528189790687678,-2,0,0,-1,-2,0,1,-1
1528189790687678,0,-1,-1,-1,-1,-2,-1,-2
1528189790694660,0,-3,-1,-1,0,-1,-1,-1
1528189790694660,3,3,0,-2,0,0,0,-1
1528189790709620,-1,-2,-1,-3,-1,0,-1,-1
1528189790709620,-2,0,-2,0,0,0,-1,0
1528189790718594,-1,0,0,0,-1,-3,-2,-1
1528189790718594,-1,-1,-1,-2,-1,0,-1,0
1528189790733561,0,-1,-2,-2,-1,-1,-1,-2
1528189790733561,-1,0,0,0,0,-1,0,-1
1528189790734551,-1,-2,-2,-1,-2,-1,-1,-1
1528189790734551,0,-1,-1,-1,0,-1,-1,-1
1528189790747516,-1,0,0,-1,0,-2,-1,-3
1528189790747516,-1,-2,-2,-1,0,-1,-2,-2
1528189790754498,-1,-1,-1,0,0,0,-2,-1
1528189790754498,-1,-2,-2,1,0,-1,-2,-1
1528189790770455,0,-1,-2,-1,0,0,2,-1
1528189790770455,-1,-1,-1,-3,-1,0,0,0
1528189790772465,-1,0,-1,-2,-1,-1,0,-2
1528189790772465,-2,-1,0,0,-1,-1,-2,0
1528189790800375,-1,-1,-2,0,0,-1,0,0
1528189790800375,-2,-2,-1,0,0,-2,-3,-1
1528189790802370,-2,-1,-1,-1,-1,-1,-1,-1
1528189790802370,0,-2,0,-3,-2,0,-1,-2
1528189790807357,1,0,-2,-1,-1,0,-3,-1
1528189790807357,-1,-1,1,0,-2,-1,1,-1
1528189790814363,0,0,0,-1,-3,-1,-2,0
1528189790814363,-2,-2,-2,1,-2,-3,-1,0
1528189790831294,-2,-1,-2,-1,-1,-1,0,0
1528189790831294,-2,-1,-2,-2,-3,1,0,-1
1528189790832291,-1,-1,0,-1,1,0,0,-2
1528189790832291,-2,-1,1,-1,-1,-1,0,0
1528189790853234,-1,-1,-1,0,-1,-1,-2,-2
1528189790853234,0,-1,-1,-1,0,-1,-2,2
1528189790855229,-1,-1,-3,0,-1,-2,-1,-1
1528189790855229,-2,-1,-2,-3,-1,-1,0,-2
1528189790867198,-1,-1,-2,-2,-1,-2,-2,-1
1528189790867198,-2,0,0,-1,-1,-2,-2,-1
1528189790883154,1,0,0,-1,-1,-1,-2,-1
1528189790883154,-2,-3,-1,1,-2,-2,0,0
1528189790891132,-2,-1,-1,-1,0,0,-1,-1
1528189790891132,-1,0,-2,-1,0,-1,-2,-1
1528189790892130,-1,-3,-2,-1,-1,0,1,2
1528189790892130,0,1,-1,0,-1,0,-1,-1
1528189790913074,0,-2,0,-1,-1,-2,-1,-1
1528189790913074,0,-3,-2,1,-2,-2,-1,-2
1528189790915069,-2,-1,-1,-2,-1,0,0,-1
1528189790915069,0,-1,-2,-1,0,-2,0,-1
1528189790927036,0,1,0,0,0,-1,-2,0
1528189790927036,-1,-2,0,-2,-1,0,-1,-1
1528189790936013,-3,-2,-1,-1,-1,-1,-1,-1
1528189790936013,-2,-3,0,-1,-2,-2,-2,-1
1528189790951007,-2,-2,-1,-2,0,-1,-2,-1
1528189790951007,-1,-1,-1,0,-2,-1,0,1
1528189790952005,-2,-1,-1,0,-2,-1,0,-2
1528189790952005,-1,-1,-1,-1,-2,-1,-1,0
1528189790972968,1,-1,-1,-1,-2,-1,0,-1
1528189790972968,-1,0,0,-1,-1,-1,0,1
1528189790979897,-1,-2,-2,0,-2,0,-1,-1
1528189790979897,2,6,0,-1,1,1,-1,-1
1528189790986877,-2,-3,0,0,-2,1,-1,0
1528189790986877,-2,-2,-2,0,-1,0,-1,-2
1528189790995853,1,2,-2,-2,0,0,-2,0
1528189790995853,-2,-2,-2,-1,0,-2,-1,-1
1528189791018820,0,1,-1,-2,-2,0,-1,0
1528189791018820,-1,-2,0,-2,0,0,0,-1
1528189791019790,-1,-1,-1,-1,-2,0,1,1
1528189791019790,-1,-2,-1,0,-1,-2,-2,-1
1528189791049778,-1,-1,-1,-2,0,0,-1,-3
1528189791049778,-2,-1,-1,0,-1,-2,-1,-2
1528189791050707,1,0,-1,1,-2,-2,-1,-1
1528189791050707,-2,-3,-3,-1,-1,-1,-1,0
1528189791051703,-1,-1,-1,-1,0,-1,-2,0
1528189791051703,-3,-1,-2,0,-1,-2,-2,0
1528189791061678,0,-2,-1,-1,-1,0,-2,-1
1528189791061678,-2,0,0,-3,-1,1,0,-1
1528189791078663,-4,-2,-2,-1,-2,-1,0,-1
1528189791078663,-1,-1,-3,-2,-1,0,-1,-1
1528189791079697,-1,-1,-1,-2,-1,-1,-1,-2
1528189791079697,-3,-5,-2,-1,-2,-2,0,-1
1528189791100573,1,0,0,3,0,0,0,-1
1528189791100573,1,-1,-1,-1,-3,-1,-2,-2
1528189791102568,-2,-2,-1,0,0,-1,-1,0
1528189791102568,-2,-1,-2,-2,-2,0,0,0
1528189791131741,-2,-2,-2,-2,1,-1,-2,0
1528189791131741,-2,1,-1,0,0,-1,-3,0
1528189791133486,-2,0,-1,0,0,0,-1,0
1528189791133486,0,1,-1,0,-1,-1,-1,-1
1528189791134578,-2,-1,1,0,0,-1,0,-1
1528189791134578,-3,-5,0,-2,-1,0,-1,-1
1528189791138472,1,0,-2,-4,0,-1,-2,-1
1528189791138472,0,-1,-1,-2,-2,-2,-1,-1
1528189791161438,1,0,-2,-1,-1,0,1,-2
1528189791161438,-1,-1,-1,0,1,-1,1,-1
1528189791162465,-2,0,0,0,-1,1,0,0
1528189791162465,0,-2,-3,0,1,0,0,-1
1528189791176456,-5,-7,-1,-2,-4,-1,-1,1
1528189791176456,1,2,0,-2,-1,0,0,-1
1528189791182619,-1,-2,-1,2,0,-1,-3,0
1528189791182619,-1,0,1,-1,-1,-1,-1,-1
1528189791198342,-1,1,-1,-4,-2,-3,-1,1
1528189791198342,0,-1,-2,-1,-2,0,-1,1
1528189791200306,1,-1,-1,-1,-3,-3,-1,-1
1528189791200306,-2,-2,-2,2,0,-1,-1,1
1528189791212847,1,-1,-1,-1,-2,-1,-1,-1
1528189791212847,0,-1,0,-2,0,0,0,0
1528189791219823,-3,-1,-3,-1,-1,-1,-1,0
1528189791219823,-1,-1,0,-1,-3,-2,-2,-1
1528189791243757,0,1,-1,-1,0,0,-1,-2
1528189791243757,-2,-1,-3,0,0,-1,-3,-1
1528189791244494,-4,-2,-1,-2,-1,0,-2,-2
1528189791244494,1,-1,0,-1,-1,-2,-1,-1
1528189791259056,0,-1,-1,0,-1,-1,-1,-2
1528189791259056,-1,-2,-2,-1,-1,-1,0,-2
1528189791259765,-2,-1,0,-3,1,0,-1,-1
1528189791259765,-1,-1,-1,-1,0,0,-1,1
1528189791273400,0,-1,-1,0,-1,-1,1,-1
1528189791273400,0,-2,-1,-2,-2,0,-1,-2
1528189791279890,-1,-1,0,-3,-1,-2,-1,1
1528189791279890,-2,1,-1,-1,-1,-1,-1,-3
1528189791296647,1,0,1,2,-3,-1,-1,0
1528189791296647,0,-1,0,-1,-1,-2,0,-1
1528189791297529,0,-1,-1,0,-2,-1,1,-2
1528189791297529,-2,-4,0,-2,-2,-1,-1,-2
1528189791326646,3,5,-2,-2,1,-1,-1,0
1528189791326646,1,-1,0,1,-1,0,-2,-1
1528189791327420,1,-2,-2,-3,-3,-1,-2,-1
1528189791327420,-1,-2,-1,-1,0,0,-1,-1
1528189791332730,-2,-2,-1,-3,0,-2,-1,0
1528189791332730,0,1,0,-2,-1,-1,-1,0
1528189791341042,1,0,0,-1,0,0,-2,-2
1528189791341042,-1,1,-1,-1,-2,-2,0,0
1528189791355840,-3,-2,-3,-1,-2,-2,0,-1
1528189791355840,-3,-1,-3,4,2,-2,-1,-1
1528189791357833,0,-2,-2,-3,-1,-1,1,0
1528189791357833,-1,-2,0,1,1,1,0,-2
1528189791385739,-2,-2,0,-2,-3,-2,-2,-1
1528189791385739,-1,-2,0,0,-1,0,-1,-1
1528189791387734,0,-2,-2,2,-2,-2,-1,-1
1528189791387734,1,-2,-2,-2,-2,0,-1,-2
1528189791391723,-1,-1,-3,-1,0,-1,0,-1
1528189791391723,-1,0,0,-3,-1,-1,0,-2
1528189791408678,-1,-1,0,-2,-2,-1,0,0
1528189791408678,0,0,-3,-1,0,0,-2,2
1528189791415919,-2,-3,0,0,-2,0,-1,-2
1528189791415919,-1,-1,-3,-2,-2,-2,-1,-1
1528189791417654,-1,-1,-1,0,-1,-2,-1,-3
1528189791417654,-2,-1,1,0,-1,-2,0,-2
1528189791438865,-2,-2,-2,-5,-1,1,-1,0
1528189791438865,-1,-1,-1,0,-2,0,1,1
1528189791439815,-1,-1,-3,-1,0,-1,-2,-2
1528189791439815,0,-2,-1,1,-1,-3,-2,1
1528189791476765,0,-1,-1,-1,1,0,-2,0
1528189791476765,0,-1,-1,-2,-1,0,-1,0
1528189791478760,-2,-1,-1,-1,-1,-3,-1,0
1528189791478760,-1,0,-1,-2,1,0,-1,-1
1528189791479757,-1,0,-2,0,-1,-2,-1,-1
1528189791479757,-1,-1,-2,-2,-2,-1,-1,-2
1528189791490728,0,1,-1,1,-2,-1,-1,0
1528189791490728,0,-1,-1,-2,-2,1,-2,0
1528189791498709,-2,-2,0,0,-1,-2,-1,0
1528189791498709,-1,-1,1,1,-1,-2,-2,-2
1528189791499704,-2,-2,-1,-1,0,1,-1,0
1528189791499704,1,-1,-2,-1,-1,-1,0,0
1528189791521242,0,-1,0,-2,-1,-2,-2,-1
1528189791521242,0,-2,-1,-1,0,-2,-2,-1
1528189791522243,0,1,-1,-1,-1,-1,-1,-1
1528189791522243,-2,-2,-1,-1,-2,-1,-1,-1
1528189791543285,0,-1,-1,-1,0,-1,-1,-2
1528189791543285,-1,-2,-1,-1,0,-1,-1,-1
1528189791559844,-1,-1,0,-2,-2,-1,0,0
1528189791559844,-2,-2,-3,-2,-2,-1,0,0
1528189791559844,-1,-1,-2,0,-2,-1,0,-1
1528189791559844,-2,0,-2,-2,-2,-2,-1,-1
1528189791561525,-1,-1,-2,0,0,-1,-1,-2
1528189791561525,0,-1,-1,-1,-2,-1,-2,-1
1528189791580745,1,-2,-1,-1,-2,0,0,-1
1528189791580745,0,-1,-1,-1,0,0,-1,-1
1528189791588448,-1,-2,0,-1,0,0,-1,-2
1528189791588448,-1,-1,-1,-1,-3,-1,-2,-2
1528189791603408,-1,-1,-2,-1,-1,-1,-1,-1
1528189791603408,0,1,1,-1,-1,-2,-2,0
1528189791605403,1,0,0,0,-1,-3,-2,0
1528189791605403,1,0,-1,-3,0,-1,-2,-2
1528189791618605,-2,-1,1,-1,-2,0,0,-2
1528189791618605,-1,-2,-2,-2,-2,-1,-1,-1
1528189791620363,-2,-2,0,-1,-2,-1,0,-1
1528189791620363,1,-1,-1,-1,-1,-1,-1,-1
1528189791632330,0,0,-2,0,-1,-1,-1,-1
1528189791632330,0,-1,-1,-1,-1,0,-1,-1
1528189791641308,-2,-1,-3,-2,-1,-3,0,-1
1528189791641308,-4,-2,-1,-2,-2,-1,-1,0
1528189791656473,-1,0,0,-1,0,-1,-2,-2
1528189791656473,-2,-1,0,-1,-3,0,-1,-1
1528189791657410,-2,-1,-2,-1,-1,0,-1,-1
1528189791657410,0,-1,-2,0,2,-1,0,-1
1528189791686431,-2,-3,-2,-1,0,-1,-1,-2
1528189791686431,-1,-1,-1,-1,-1,0,-1,-1
1528189791687440,-2,-1,0,-2,-3,0,-1,0
1528189791687440,-2,0,-1,-1,-1,0,-1,0
1528189791692414,-2,-1,-1,-1,-2,-1,-1,1
1528189791692414,-1,-1,-1,0,0,-1,-1,0
1528189791701146,-1,-1,-1,-1,-1,-1,-2,-2
1528189791701146,1,-1,0,-1,0,-1,-2,-1
1528189791716595,-2,-1,-2,-1,-1,-3,-1,-2
1528189791716595,0,0,-2,-2,-1,-1,-2,-1
1528189791717405,0,-1,-1,-1,0,-1,-1,-1
1528189791717405,0,0,-2,-1,-3,-1,0,0
1528189791738347,-1,-1,-1,-1,-1,-1,-2,-1
1528189791738347,-2,-1,-2,0,-1,-1,1,-1
1528189791740342,1,-2,-1,-1,-1,0,-3,-1
1528189791740342,-2,-1,-1,-2,-1,-2,-2,-1
1528189791768577,1,0,0,0,-1,-1,0,-1
1528189791768577,0,-1,-1,-1,-1,-1,-2,-1
1528189791769816,-1,-2,-2,1,-1,0,0,-1
1528189791769816,-1,0,0,0,0,-1,-1,-2
1528189791776026,-3,-1,0,-2,0,0,-1,0
1528189791776026,-1,0,-3,-1,-2,-1,-3,0
1528189791776026,-2,-1,-2,-1,-2,-1,-1,1
1528189791776026,-2,-2,0,-2,-1,-3,-1,-1
1528189791805488,-2,0,-2,0,-1,-1,-1,-1
1528189791805488,-1,-2,0,-2,-3,-1,0,0
1528189791806475,-1,0,-1,0,0,0,-1,-2
1528189791806475,-1,0,-2,0,-2,-2,-1,-2
1528189791820677,-1,0,-2,0,0,-2,-2,0
1528189791820677,-1,-2,-1,-2,0,-2,-1,-3
1528189791821734,0,0,0,-1,0,-2,0,-3
1528189791821734,-3,-1,0,-2,-2,0,0,-1
1528189791836543,-1,-1,-1,-1,-1,-1,-1,-1
1528189791836543,0,-1,1,-1,-1,0,-1,-2
1528189791837390,0,0,-1,-2,0,-1,0,-2
1528189791837390,-2,-1,-2,1,-1,-1,0,0
1528189791857703,0,0,-2,-2,-1,-1,-3,0
1528189791857703,-2,-2,-2,0,-1,-3,-1,-1
1528189791858335,-1,-1,0,1,-1,-2,-2,2
1528189791858335,-1,0,0,0,-2,0,-2,-1
1528189791880539,-2,-1,0,-1,-1,-1,-2,-1
1528189791880539,-1,2,-1,0,0,-1,0,-1
1528189791881576,-2,-1,0,0,-1,0,-2,-1
1528189791881576,-1,-1,0,-2,-1,-3,0,-1
1528189791895493,-1,-2,-1,-1,-1,-1,0,-1
1528189791895493,-1,-1,1,-2,-1,-1,-1,1
1528189791896508,-2,-2,-2,-1,0,-1,0,0
1528189791896508,-1,-2,-3,-1,0,-1,-1,-1
1528189791918394,-2,-1,-1,-2,0,-1,0,0
1528189791918394,-1,0,-2,-1,-1,-1,1,1
1528189791918394,0,0,-2,-1,-1,-1,-1,1
1528189791918394,-1,-1,-1,0,-2,-1,0,-1
1528189791940376,-2,-1,0,-1,-2,-2,0,-1
1528189791940376,-1,0,-1,-2,-1,-1,-2,-2
1528189791941112,-1,-2,0,0,-2,-2,-1,-1
1528189791941112,1,0,-1,0,-1,-1,-3,-2
1528189791955078,-1,-2,-1,-1,0,0,1,0
1528189791955078,-3,-1,-2,0,-2,0,0,0
1528189791956073,0,-1,-1,-2,-1,-1,-2,0
1528189791956073,-1,-1,-1,-2,-1,-1,0,-1
1528189791977476,1,0,-2,-2,-2,-1,-1,-2
1528189791977476,-1,-1,-1,-1,0,0,-1,-3
1528189791978454,-2,-1,-1,0,0,0,-1,-2
1528189791978454,-2,-1,-1,-2,-1,0,0,-1
1528189792000391,-1,-1,-1,-2,-1,-1,-1,-1
1528189792000391,2,-1,0,-1,-1,-1,-2,-1
1528189792001385,0,-1,-2,-2,-2,0,-1,-1
1528189792001385,-1,-1,0,0,-2,-1,-2,0
1528189792015669,0,-1,-1,-1,-1,-1,-2,-1
1528189792015669,-1,-2,-2,-1,0,-1,-1,0
1528189792016346,-1,0,0,-1,-1,-2,0,-2
1528189792016346,-1,-1,0,-1,-2,-1,0,-1
1528189792037291,0,-1,-2,-1,-1,0,-1,0
1528189792037291,-3,-2,-1,-1,0,-1,-1,1
1528189792038286,-1,-2,-1,-1,-1,-1,-2,-1
1528189792038286,-1,-1,0,-1,0,1,-1,1
1528189792060245,-1,-1,-1,0,0,-1,0,1
1528189792060245,-1,1,-1,0,0,1,-1,-3
1528189792061227,-2,-1,-2,-1,0,1,-2,0
1528189792061227,-2,-2,-3,-2,-1,0,0,-2
1528189792076184,0,-1,-1,-2,-2,-2,-2,-1
1528189792076184,0,0,0,-3,-1,-3,0,1
1528189792077188,-2,1,-1,-1,-1,-2,-1,-1
1528189792077188,0,-1,0,-1,-1,-2,-1,-1
1528189792098125,-3,0,0,0,-2,-1,-3,-1
1528189792098125,-3,-1,-3,-3,-1,-5,-2,-2
1528189792098125,0,0,-1,-2,-1,-2,0,0
1528189792098125,-2,-2,-2,-1,0,-4,-2,-1
1528189792128045,-1,-2,-1,-2,-2,-1,-2,-3
1528189792128045,-1,-1,-2,1,-1,-2,-1,-2
1528189792129043,-2,0,-2,-1,-1,-1,-1,-3
1528189792129043,-1,-1,-2,0,-2,0,-1,-1
1528189792135027,0,0,0,-2,0,-1,-1,-1
1528189792135027,1,-3,-1,-1,-1,1,-2,-2
1528189792136025,-2,-2,0,-1,-2,-1,0,-1
1528189792136025,0,0,0,0,-1,1,1,-2
1528189792157965,-3,-1,0,0,1,-1,-2,-3
1528189792157965,-1,0,-1,0,-1,-2,-1,0
1528189792157965,-2,-2,-2,-2,-1,-1,0,-2
1528189792157965,-1,0,-2,-2,-1,-1,0,-1
1528189792188918,0,-2,-1,-2,-1,0,-2,1
1528189792188918,-2,0,2,0,-3,0,-1,-2
1528189792189937,0,-2,-2,-1,-1,0,-1,1
1528189792189937,-2,0,-1,-2,-1,0,-1,0
1528189792194925,0,-1,-1,-2,-1,-2,2,-1
1528189792194925,-1,-2,-2,0,1,0,-1,-2
1528189792195873,0,-1,-1,-1,-1,-1,0,-1
1528189792195873,-2,-2,0,-1,-1,-2,-1,-1
1528189792217861,-2,0,-1,0,-1,-1,-2,-1
1528189792217861,-1,-1,-1,-2,-2,0,0,-1
1528189792218860,0,0,-2,-2,-1,-1,-1,-2
1528189792218860,-2,-2,-1,-1,-1,-2,-2,-1
1528189792240797,1,-2,0,0,-1,0,-1,-1
1528189792240797,0,-1,-1,-2,-1,-1,1,0
1528189792241743,-1,-2,-2,0,-1,-1,-1,-1
1528189792241743,-2,0,-2,-2,-3,-1,0,0
1528189792254708,-1,0,-1,-1,-1,-1,-1,0
1528189792254708,-1,0,-2,1,0,-1,-1,-1
1528189792255707,-1,0,0,-3,-1,-1,0,0
1528189792255707,-1,-2,0,-2,-1,-1,-2,-1
1528189792286658,-2,-1,-1,-1,0,0,-2,-3
1528189792286658,-1,0,0,-2,-1,0,-2,-1
1528189792287669,-2,-1,-1,-3,-1,-1,-1,-1
1528189792287669,0,-2,0,-1,-2,-2,-1,-2
1528189792287669,0,-2,0,-1,-2,-2,-1,-2
1528189792287669,0,-2,0,-1,-2,-2,-1,-2
1528189792287669,0,-2,0,-1,-2,-2,-1,-2
1528189792287669,0,-2,0,-1,-2,-2,-1,-2
1528189792287669,0,-2,0,-1,-2,-2,-1,-2
1528189792287669,0,-2,0,-1,-2,-2,-1,-2
1528189792287669,0,-2,0,-1,-2,-2,-1,-2
1528189792287669,0,-2,0,-1,-2,-2,-1,-2
1528189792287669,0,-2,0,-1,-2,-2,-1,-2
1528189792287669,0,-2,0,-1,-2,-2,-1,-2
1528189792287669,0,-2,0,-1,-2,-2,-1,-2
1528189792287669,0,-2,0,-1,-2,-2,-1,-2
1528189792287669,0,-2,0,-1,-2,-2,-1,-2
1528189792287669,0,-2,0,-1,-2,-2,-1,-2
1528189792287669,0,-2,0,-1,-2,-2,-1,-2
1528189792287669,0,-2,0,-1,-2,-2,-1,-2
1528189792287669,0,-2,0,-1,-2,-2,-1,-2
1528189792287669,0,-2,0,-1,-2,-2,-1,-2
1528189792287669,0,-2,0,-1,-2,-2,-1,-2
1528189792287669,0,-2,0,-1,-2,-2,-1,-2
1528189792287669,0,-2,0,-1,-2,-2,-1,-2
1528189792287669,0,-2,0,-1,-2,-2,-1,-2
1528189792287669,0,-2,0,-1,-2,-2,-1,-2
1528189792287669,0,-2,0,-1,-2,-2,-1,-2
1528189792287669,0,-2,0,-1,-2,-2,-1,-2
1528189792287669,0,-2,0,-1,-2,-2,-1,-2
1528189792287669,0,-2,0,-1,-2,-2,-1,-2
1528189792287669,0,-2,0,-1,-2,-2,-1,-2
1528189792287669,0,-2,0,-1,-2,-2,-1,-2
1528189792287669,0,-2,0,-1,-2,-2,-1,-2
1528189792287669,0,-2,0,-1,-2,-2,-1,-2
1528189792287669,0,-2,0,-1,-2,-2,-1,-2
1528189792287669,0,-2,0,-1,-2,-2,-1,-2
1528189792287669,0,-2,0,-1,-2,-2,-1,-2
1528189792287669,0,-2,0,-1,-2,-2,-1,-2
1528189792287669,0,-2,0,-1,-2,-2,-1,-2
1528189792287669,0,-2,0,-1,-2,-2,-1,-2
1528189792287669,0,-2,0,-1,-2,-2,-1,-2
1528189792287669,0,-2,0,-1,-2,-2,-1,-2
1528189792287669,0,-2,0,-1,-2,-2,-1,-2
1528189792287669,0,-2,0,-1,-2,-2,-1,-2
1528189792287669,0,-2,0,-1,-2,-2,-1,-2
1528189792287669,0,-2,0,-1,-2,-2,-1,-2
1528189792287669,0,-2,0,-1,-2,-2,-1,-2
1528189792287669,0,-2,0,-1,-2,-2,-1,-2
1528189792287669,0,-2,0,-1,-2,-2,-1,-2
1528189792287669,0,-2,0,-1,-2,-2,-1,-2
1528189792287669,0,-2,0,-1,-2,-2,-1,-2
