timestamp,emg1,emg2,emg3,emg4,emg5,emg6,emg7,emg8
1528877658369564,0,-1,0,0,2,-1,-1,-1
1528877658369564,-1,-2,-2,1,0,0,0,0
1528877658381539,0,1,1,-1,-1,-1,0,-2
1528877658381539,0,0,0,-1,0,-1,-1,-1
1528877658385523,-2,0,-1,0,-2,-1,-2,1
1528877658385523,-1,-1,0,-1,-1,-1,-2,-2
1528877658392505,-6,-1,-1,-1,-1,-1,0,-1
1528877658392505,6,-5,0,-1,1,2,0,0
1528877658408462,-19,-6,-3,-1,-1,0,0,-2
1528877658408462,21,-2,-2,-2,-3,-3,-3,-2
1528877658415443,-1,3,0,0,1,-1,2,4
1528877658415443,-5,2,0,0,-2,0,-3,-3
1528877658430423,6,7,1,0,1,-1,-1,1
1528877658430423,-11,-9,-3,-1,-1,1,-1,0
1528877658437398,4,3,1,1,0,0,-2,-5
1528877658437398,0,-2,-4,-1,0,0,-1,8
1528877658452344,3,0,-2,1,-1,1,1,-1
1528877658452344,-5,1,-1,-1,-1,2,1,5
1528877658461320,2,0,-1,0,-1,-1,-2,-5
1528877658461320,-1,0,1,0,1,0,6,5
1528877658475283,-2,-10,-5,-4,8,-2,-2,0
1528877658475283,-1,4,0,-5,-6,3,10,-4
1528877658491241,0,-4,6,13,5,-2,-16,1
1528877658491241,1,1,-3,-8,3,3,11,-1
1528877658497224,-3,-7,-7,-5,-1,-4,-6,-1
1528877658497224,-3,-1,-9,-8,0,-1,-3,-6
1528877658514189,4,3,4,-13,3,4,3,0
1528877658514189,-3,-1,-4,-4,2,-10,-9,-4
1528877658520162,1,1,6,10,0,-4,-2,1
1528877658520162,-1,-3,-9,-30,14,10,3,2
1528877658535123,1,-1,12,22,-11,-5,9,0
1528877658535123,-3,-3,-11,-37,-12,-1,-8,-3
1528877658542105,3,7,7,18,16,-12,1,3
1528877658542105,-1,-4,-9,-4,35,7,-7,-7
1528877658550083,-2,-8,-10,-21,-10,-13,-1,-1
1528877658550083,1,1,0,15,41,2,-4,-1
1528877658559077,0,5,1,-14,-5,-4,0,0
1528877658559077,-2,0,2,17,-24,-8,-10,-2
1528877658572024,-2,-6,-7,-17,2,4,2,-1
1528877658572024,-1,0,3,19,-1,8,5,2
1528877658580023,-1,-4,-17,6,-4,2,-4,-2
1528877658580023,-1,4,28,29,10,0,2,1
1528877658594964,-3,0,-19,-26,-13,-1,-3,-2
1528877658594964,-1,5,6,6,-11,0,3,2
1528877658601944,0,4,2,1,8,8,1,0
1528877658601944,-2,-5,-7,-16,-19,-7,-2,-1
1528877658610920,1,-1,-3,10,3,-1,-3,0
1528877658610920,-1,2,5,-3,-19,-3,-1,2
1528877658617901,-5,-9,-12,-3,25,9,0,-3
1528877658617901,0,-2,-4,-4,-8,-5,-2,-1
1528877658632861,3,9,15,24,12,-1,1,1
1528877658632861,-1,-3,-6,-4,7,2,0,-1
1528877658639843,-2,1,7,2,-9,3,1,0
1528877658639843,-1,-1,-4,4,-7,-2,-1,-1
1528877658654803,-1,-5,-1,12,12,3,-1,-2
1528877658654803,-1,-10,-11,0,-3,-2,0,-1
1528877658663779,2,12,21,-14,-17,-1,1,1
1528877658663779,3,3,0,9,14,-1,0,0
1528877658684723,-3,-4,0,4,8,2,-2,-1
1528877658684723,0,4,1,-16,-2,0,-2,-2
1528877658692702,-4,-7,-12,5,4,2,-2,-4
1528877658692702,0,2,2,-24,1,2,0,1
1528877658699685,-1,-4,-8,-5,-21,-12,-1,0
1528877658699685,-1,-3,1,10,-2,-2,-3,-2
1528877658714643,1,3,5,4,0,1,-3,2
1528877658714643,1,0,-4,-12,3,3,1,1
1528877658729603,-1,-2,-3,-6,3,16,-3,-2
1528877658729603,-3,-5,0,6,3,5,0,-2
1528877658744578,4,0,-5,-5,2,7,2,2
1528877658744578,3,12,14,6,-43,-5,-1,-2
1528877658752583,1,-1,2,2,5,-8,-2,-1
1528877658752583,-2,-3,-6,-5,-5,-4,-1,0
1528877658767502,-1,2,7,6,-7,4,0,-1
1528877658767502,-2,-5,-7,12,2,-4,-2,0
1528877658774487,0,1,0,-1,4,3,5,0
1528877658774487,2,3,0,-1,2,4,0,3
1528877658789444,-7,-4,-2,0,4,-5,0,-6
1528877658789444,6,-3,-2,5,12,10,3,4
1528877658804439,-2,1,-2,-7,-13,-11,-1,1
1528877658804439,3,2,1,1,5,3,-4,-3
1528877658812384,-10,-5,-5,-4,3,-1,1,-5
1528877658812384,8,4,6,1,-15,-7,1,4
1528877658827395,-3,2,4,5,8,3,-7,-2
1528877658827395,6,1,0,0,27,-8,3,13
1528877658835365,0,-6,-5,-5,-25,19,3,2
1528877658835365,-10,-8,-3,0,9,-11,-1,1
1528877658850334,5,-2,3,2,12,-1,5,3
1528877658850334,-5,2,-3,0,-6,4,3,-5
1528877658865295,-9,-13,-5,-2,-2,9,2,7
1528877658865295,-5,-1,-3,-2,-1,-25,7,1
1528877658872223,-8,-6,1,-2,-5,1,-8,-5
1528877658872223,9,5,0,-3,-9,0,-3,0
1528877658887182,-8,-10,-2,12,17,-3,1,-1
1528877658887182,9,5,3,2,4,12,0,-6
1528877658895199,9,15,2,-10,-51,-10,-3,2
1528877658895199,-18,-8,2,8,25,3,1,-2
1528877658910175,-3,-3,-1,6,23,-9,0,1
1528877658910175,2,-1,-5,-35,-11,14,-1,-1
1528877658925097,-2,3,12,25,-4,-10,5,1
1528877658925097,-7,-6,-6,8,8,9,-7,-6
1528877658932062,6,4,-4,-3,12,-12,-2,-4
1528877658932062,-3,1,1,-4,-32,-4,-3,5
1528877658947022,1,1,8,-6,26,4,2,-2
1528877658947022,-4,0,2,1,-17,-1,5,-2
1528877658961982,1,4,14,30,23,5,-3,0
1528877658961982,-1,-2,-5,13,7,-10,-4,-4
1528877658976943,-1,-2,-5,-13,4,8,4,0
1528877658976943,0,0,0,-8,-13,-7,3,0
1528877658991902,5,4,3,19,-1,5,-2,0
1528877658991902,-5,-6,-9,-14,7,5,1,-2
1528877658999923,-6,-3,-4,4,-6,8,2,1
1528877658999923,6,7,8,7,19,-12,-6,-2
1528877659006863,-2,-3,-8,-18,-48,5,2,2
1528877659006863,-7,-10,-16,-6,5,2,-1,0
1528877659014885,6,8,19,-2,-5,0,1,2
1528877659014885,0,-1,-9,-16,16,1,-2,-1
1528877659029841,-3,-2,-4,5,-14,9,0,0
1528877659029841,0,-5,-9,-2,-5,-4,2,-6
1528877659044763,1,3,-5,-28,26,-1,-2,7
1528877659044763,2,1,0,13,6,7,3,-1
1528877659059721,1,-2,-1,0,0,-11,0,2
1528877659059721,-10,-8,-1,11,4,4,1,-3
1528877659074682,5,4,-3,-4,-10,2,2,-1
1528877659074682,-1,-2,-2,-8,5,4,-4,-2
1528877659082713,0,-1,-5,-14,-15,-13,0,-2
1528877659082713,0,-2,5,10,-12,2,-3,-1
1528877659104600,-7,-4,-7,0,11,3,-4,-8
1528877659104600,-3,-3,0,3,-7,5,0,3
1528877659119562,-1,2,-2,-1,11,5,-8,-8
1528877659119562,-2,0,2,5,1,-7,-4,-3
1528877659134549,3,2,4,-3,5,4,2,0
1528877659134549,-1,-3,-10,-21,-35,-3,-4,-2
1528877659149480,1,3,14,37,30,-13,10,4
1528877659149480,7,0,-7,-30,-21,0,3,5
1528877659157470,1,0,-15,-13,-25,0,-9,1
1528877659157470,0,8,4,6,26,0,1,-2
1528877659172419,-2,-3,-7,-17,-10,2,3,2
1528877659172419,-1,0,4,3,-36,-2,1,-1
1528877659179451,0,-3,-3,-6,-30,-14,-3,0
1528877659179451,-1,-4,-3,-12,1,1,-9,-4
1528877659202340,1,3,8,-6,36,12,5,0
1528877659202340,-3,0,2,5,-29,0,-6,-4
1528877659217348,6,3,20,40,0,-2,-2,4
1528877659217348,1,2,1,6,36,5,2,-5
1528877659240238,-17,-6,0,6,29,5,-2,-5
1528877659240238,9,7,2,-11,-4,-10,-4,-1
1528877659247220,3,3,6,19,-4,-2,1,3
1528877659247220,-2,-2,-2,6,-3,17,4,-1
1528877659255226,1,-4,-11,-11,10,-1,-3,3
1528877659255226,-8,-4,1,9,-7,-11,-10,-2
1528877659262218,-1,-5,-15,-27,18,1,1,0
1528877659262218,2,5,8,7,4,0,4,4
1528877659285119,-5,-5,-5,-13,-18,4,0,-5
1528877659285119,0,-3,-9,-11,20,-8,-3,10
1528877659300078,-7,-7,-13,-18,6,0,0,-8
1528877659300078,-2,-6,-5,7,18,0,-3,-2
1528877659315039,2,4,5,-9,-19,-6,-6,-1
1528877659315039,2,6,15,10,9,1,-1,0
1528877659329998,-2,-2,-6,-2,18,5,2,4
1528877659329998,-2,-5,-8,-8,-27,-6,3,1
1528877659336979,-4,-3,-4,-12,-2,8,-6,2
1528877659336979,-5,-1,-1,2,-14,-9,-2,-2
1528877659351939,6,-1,-4,-6,17,8,1,-4
1528877659351939,-4,-2,1,3,-6,-5,4,2
1528877659359918,-11,-3,-3,-8,-13,-8,-10,-4
1528877659359918,-3,-2,-3,2,-5,-7,-2,-5
1528877659381860,2,1,-1,-6,8,-6,-2,-1
1528877659381860,-6,-3,-2,-1,-16,-4,1,-7
1528877659397839,-2,-2,0,4,-5,-2,-5,4
1528877659397839,5,2,2,-3,5,5,-4,1
1528877659412778,-1,0,-5,-3,-10,-4,8,0
1528877659412778,0,2,7,18,7,0,4,0
1528877659427739,2,1,-1,-6,2,-26,-3,-1
1528877659427739,0,-3,-9,-2,-19,22,1,-2
1528877659434719,0,6,14,12,19,-4,-2,-4
1528877659434719,-3,-2,0,-13,-40,26,0,1
1528877659442844,7,-2,-3,-2,-15,-36,-4,3
1528877659442844,1,3,-1,-3,-2,-15,-2,2
1528877659456984,15,-5,10,-1,-3,17,5,0
1528877659456984,8,21,16,9,9,5,6,3
1528877659480085,12,19,-3,-1,-15,14,6,6
1528877659480085,1,-4,5,5,8,-3,-3,5
1528877659495040,-3,1,-3,-1,2,-2,2,-3
1528877659495040,-1,-9,-6,12,-1,-10,-2,-6
1528877659502969,-9,-6,-3,-5,10,11,1,5
1528877659502969,-3,-3,-1,-1,-10,-2,-11,-4
1528877659525380,-4,1,0,7,0,-10,-5,-5
1528877659525380,2,-2,3,7,39,23,14,-4
1528877659540182,2,6,6,11,-17,-1,0,-4
1528877659540182,-5,-7,-8,-22,22,-9,4,1
1528877659555141,-4,1,-2,-36,7,8,-1,-1
1528877659555141,8,15,44,80,22,4,-6,-3
1528877659570101,-3,-1,3,5,10,6,5,-2
1528877659570101,0,-3,-5,1,19,-6,-4,-2
1528877659585059,1,2,3,5,13,6,4,-2
1528877659585059,-4,-5,-13,-21,0,-2,-7,0
1528877659592072,-4,-3,-3,6,-1,7,0,-5
1528877659592072,-4,-6,-10,-10,-30,-6,1,-1
1528877659615326,2,8,22,27,29,-1,1,5
1528877659615326,1,-1,-5,-12,-3,-3,-2,-5
1528877659622321,1,0,8,21,21,2,7,5
1528877659622321,-3,1,-1,4,-12,-4,1,-1
1528877659637275,-1,2,5,-9,30,0,-7,-2
1528877659637275,0,0,-5,-8,-89,-15,0,-2
1528877659660415,-3,3,0,7,15,-1,4,2
1528877659660415,2,-3,-20,-46,7,16,2,7
1528877659675375,-5,-5,-6,-8,4,3,4,3
1528877659675375,0,-1,-3,-11,-1,-10,-3,-3
1528877659682719,0,2,1,-1,2,10,1,0
1528877659682719,-3,-3,-4,-4,-1,-4,-4,3
1528877659697522,2,5,7,3,2,7,-3,-4
1528877659697522,0,1,1,5,10,0,3,6
1528877659712638,0,0,8,10,12,4,0,3
1528877659712638,0,5,8,17,2,-2,-1,-3
1528877659727598,3,0,2,-2,-14,-3,-4,-4
1528877659727598,-7,-7,0,12,3,4,10,6
1528877659735448,-1,1,-6,-13,-9,-8,-7,-10
1528877659735448,-2,5,6,8,10,-2,-4,3
1528877659749778,0,-2,-1,6,-1,2,-4,2
1528877659749778,-4,-2,-5,-11,2,-5,-3,-3
1528877659757770,-2,-3,-7,-10,4,0,1,-5
1528877659757770,0,-4,-9,13,-2,6,6,1
1528877659779745,-2,0,13,5,0,-6,-4,-3
1528877659779745,5,9,5,-6,0,7,5,-1
1528877659802776,-11,-8,-16,-9,-8,-6,-7,1
1528877659802776,11,-7,-5,-6,-7,-4,-2,-4
1528877659809632,3,2,2,7,-7,-23,2,-2
1528877659809632,-5,-6,-15,-20,10,26,3,6
1528877659824622,3,1,-4,0,13,3,-1,-5
1528877659824622,-3,-2,11,13,-12,5,-3,-4
1528877659832691,1,0,-4,-9,-7,-17,-17,-3
1528877659832691,2,-1,0,-7,-8,-2,11,0
1528877659847876,2,-2,-1,4,8,-3,1,-1
1528877659847876,-1,-5,-12,-18,16,7,3,5
1528877659854858,-1,3,6,-3,-58,12,1,3
1528877659854858,-7,-6,-7,3,-1,-12,0,-3
1528877659870032,1,2,-4,-9,-10,0,-8,-1
1528877659870032,-3,-3,0,6,0,-2,4,0
1528877659877018,-1,-1,0,-3,23,11,1,2
1528877659877018,1,-2,-8,-11,-12,-4,-1,-2
1528877659892309,0,0,0,7,7,1,2,-1
1528877659892309,-3,-4,-8,1,-14,-16,-5,-4
1528877659907622,-2,-2,-9,-5,27,1,4,0
1528877659907622,-1,3,6,5,-17,-8,-6,-2
1528877659922678,-2,-4,-10,-8,7,-3,1,-3
1528877659922678,1,0,-1,5,19,1,0,3
1528877659937665,2,1,1,-5,-25,-9,2,7
1528877659937665,-1,1,2,-2,-1,10,-4,-8
1528877659944646,-2,0,-3,-2,10,9,0,-3
1528877659944646,0,-2,-1,-4,6,4,0,-1
1528877659960456,-1,-2,-2,0,-4,-2,1,0
1528877659960456,-1,1,2,2,1,0,1,0
1528877659967594,-1,-2,-2,3,-5,-3,1,-1
1528877659967594,-1,-1,4,2,-1,3,4,1
1528877659982583,1,4,4,-2,4,0,-3,-1
1528877659982583,1,-4,-6,-6,-9,-7,-3,-2
1528877659997349,1,0,0,2,-1,-7,2,-1
1528877659997349,-2,0,2,-2,-1,2,0,3
1528877660005456,-1,-6,-7,-7,-5,13,0,0
1528877660005456,0,-1,1,2,8,0,-2,-1
1528877660027308,0,3,1,-3,-4,-3,-1,-2
1528877660027308,1,-1,2,15,34,3,-1,-2
1528877660035394,1,1,1,-10,0,4,-1,-1
1528877660035394,1,-1,-4,-7,-6,-4,-3,0
1528877660042229,-3,-1,-1,1,19,-1,-1,1
1528877660042229,-1,-3,-4,-2,-2,5,1,-1
1528877660057189,-2,1,1,5,-1,-1,0,-3
1528877660057189,-1,-1,-3,-7,-5,-2,-1,1
1528877660072305,-1,-2,0,5,14,-3,-1,-2
1528877660072305,0,-1,-3,-6,-13,-1,-2,-1
1528877660080284,1,3,4,8,12,2,-1,-1
1528877660080284,-1,-3,-7,-19,-22,-2,-1,-1
1528877660095456,-1,-3,-7,1,5,0,-2,-2
1528877660095456,0,-2,-2,4,1,0,-1,-2
1528877660102463,2,3,8,-6,22,-3,0,1
1528877660102463,-1,0,-9,-13,-25,1,1,1
1528877660117417,-1,-3,-4,-7,15,-1,0,0
1528877660117417,-1,-1,-2,5,7,3,-2,-2
1528877660132376,-2,-4,-9,-22,-10,1,2,1
1528877660132376,-2,-1,-5,-12,-3,-1,0,2
1528877660147339,0,1,4,11,-3,2,1,-2
1528877660147339,0,0,-2,-7,-2,-1,0,1
1528877660155322,-1,0,1,5,-3,-2,0,-2
1528877660155322,0,1,-4,-4,7,-2,2,-1
1528877660171116,-3,-2,3,6,-12,-2,-3,0
1528877660171116,-1,-2,-2,-1,1,-1,-2,-1
1528877660177103,-1,0,-5,-11,-7,-3,-1,0
1528877660177103,-1,1,4,6,7,0,1,0
1528877660192522,0,-4,2,5,4,-2,-1,-1
1528877660192522,-1,-1,0,-7,-5,-3,0,-1
1528877660207537,1,-1,2,1,2,-1,-1,-1
1528877660207537,-1,-1,-3,-6,-5,-1,-3,-1
1528877660214498,0,-3,-2,-1,4,0,0,1
1528877660214498,-2,-1,-2,2,-1,-1,1,0
1528877660229673,1,0,-1,-3,-3,0,-3,1
1528877660229673,-2,0,0,2,2,-2,4,5
1528877660237770,0,0,0,-3,-6,2,-9,-4
1528877660237770,-2,-2,-5,-8,-4,-1,-4,-5
1528877660252926,-8,-10,1,2,1,0,-2,2
1528877660252926,5,12,5,2,1,0,3,-1
1528877660259755,4,-3,-1,1,1,-3,2,0
1528877660259755,0,-2,-4,-3,-2,0,0,1
1528877660267733,-1,2,0,0,2,-2,-1,-3
1528877660267733,-4,-5,-2,0,0,-1,-3,-2
1528877660274712,-4,-4,-2,-4,-3,-1,0,0
1528877660274712,1,1,0,0,0,-2,-4,-3
1528877660290065,2,1,2,5,1,1,1,1
1528877660290065,-2,-2,-3,-4,-1,0,-2,0
1528877660297393,0,3,-2,1,-1,-1,-1,0
1528877660297393,-1,-2,-2,1,-1,-1,2,-1
1528877660312409,2,1,2,-1,1,0,0,-1
1528877660312409,0,-3,0,-2,-1,-2,-1,-1
1528877660320387,-2,-1,-2,-1,1,1,1,0
1528877660320387,-1,-3,-2,0,0,2,1,2
1528877660327369,-1,1,-4,-1,-2,-4,-1,1
1528877660327369,0,-2,-1,-2,-2,0,-1,-3
1528877660335347,-2,0,1,1,-1,-2,-1,-2
1528877660335347,0,-1,0,0,-1,0,1,1
1528877660350448,1,0,0,0,-1,1,1,-1
1528877660350448,-2,-4,-4,-3,-2,-1,-2,-2
1528877660357329,-1,0,0,0,-2,1,1,2
1528877660357329,2,1,4,3,-2,0,-2,1
1528877660372652,-3,-1,0,-1,2,-2,-1,-2
1528877660372652,-1,-1,-1,-4,-2,-2,0,0
1528877660380351,-3,1,1,1,2,2,2,-2
1528877660380351,0,-2,-2,-2,-2,-2,-2,0
1528877660387497,-1,-1,0,-1,-1,-1,0,0
1528877660387497,2,2,-8,-1,1,-4,-2,-1
1528877660395444,-1,0,10,1,-1,-2,0,-2
1528877660395444,-3,0,-3,-2,3,1,-2,-2
1528877660410420,0,-1,-2,-3,1,-1,-2,-1
1528877660410420,-1,1,0,-1,-1,2,0,1
1528877660417255,0,-2,-5,-1,-1,-1,-1,0
1528877660417255,-1,-1,1,0,0,-2,0,0
1528877660432228,0,-2,-1,-2,0,2,0,0
1528877660432228,-2,-3,-2,-1,0,1,0,-1
1528877660440223,1,1,1,3,-1,0,-3,2
1528877660440223,-2,0,1,-1,0,0,1,0
1528877660455161,-1,1,-2,2,-2,-1,1,-2
1528877660455161,-1,0,2,0,-1,1,-1,0
1528877660462141,-1,-1,-1,0,0,0,-1,0
1528877660462141,0,-1,-2,-1,-1,-1,-2,0
1528877660477104,0,-2,0,-3,-1,-1,-3,0
1528877660477104,0,0,2,1,-1,-1,0,0
1528877660485126,-2,-2,-2,-2,1,-1,0,0
1528877660485126,-1,-2,-2,-3,1,0,-1,-2
1528877660500033,0,-1,1,0,-1,1,1,0
1528877660500033,-1,0,0,-1,-3,-1,0,0
1528877660507014,-1,-1,-2,-7,-1,1,0,-2
1528877660507014,-2,-1,4,12,2,0,-2,-4
1528877660514993,-2,0,-2,1,0,1,0,-1
1528877660514993,0,0,-2,-1,1,-3,0,-1
1528877660529953,-1,-1,0,0,0,3,-2,0
1528877660529953,-2,-2,-1,-7,0,3,-1,-1
1528877660536934,1,-1,0,1,0,-1,-1,-3
1528877660536934,0,-1,0,-1,-1,1,-2,1
1528877660551894,0,-1,-4,-2,-3,-1,1,1
1528877660551894,1,1,1,4,-1,-3,1,0
1528877660559873,-1,0,2,2,0,3,-1,-1
1528877660559873,0,0,-4,-6,0,-3,-5,-2
1528877660567852,1,-1,2,10,2,1,1,-1
1528877660567852,-1,-1,-1,0,-1,-1,-2,-1
1528877660574833,-2,-1,0,-2,-1,-3,0,1
1528877660574833,0,-2,-1,-3,-3,-4,-2,-2
1528877660589793,-1,-1,1,0,0,-1,0,-1
1528877660589793,-1,1,2,-3,0,2,0,-1
1528877660597772,1,-2,-1,-1,-1,2,-1,0
1528877660597772,0,-1,-1,-1,0,2,-1,2
1528877660612732,-1,1,1,-1,0,-3,-3,-1
1528877660612732,1,-2,-1,-3,-2,3,0,1
1528877660619714,-2,-2,-2,-4,-1,-5,0,-2
1528877660619714,1,-1,-2,2,-1,0,2,5
1528877660627692,0,0,-1,-1,0,1,-1,0
1528877660627692,-2,2,0,-3,-2,-3,-2,-2
1528877660634673,-1,0,0,-1,1,-1,-3,0
1528877660634673,0,-1,-1,-2,-2,2,1,0
1528877660649634,0,0,1,-1,-1,-1,-2,-1
1528877660649634,0,-2,-2,-2,-1,0,0,-1
1528877660657614,0,0,-1,0,-2,0,3,4
1528877660657614,-2,-4,-1,-3,-2,0,5,0
1528877660672572,1,0,-3,-3,-3,-10,-1,2
1528877660672572,0,-2,0,1,-1,22,6,1
1528877660679553,-1,1,0,1,-2,9,1,-3
1528877660679553,-2,0,-1,1,1,7,-1,-4
1528877660687532,0,0,1,1,0,2,-1,1
1528877660687532,-2,-3,-2,-2,0,-6,-2,-1
1528877660694513,1,0,0,-1,-4,-11,-3,2
1528877660694513,0,-1,0,-1,2,4,1,-4
1528877660709473,-1,-3,0,0,0,-3,-2,-4
1528877660709473,2,0,0,-2,-1,-5,-2,0
1528877660717452,-1,0,1,-2,-1,-2,-2,1
1528877660717452,-2,1,-2,0,-1,-6,-2,-1
1528877660732412,-1,-2,-1,0,-1,2,0,-1
1528877660732412,-1,-1,0,0,-1,-7,-1,-2
1528877660739393,-1,-2,-2,1,2,0,-2,-2
1528877660739393,0,-1,-1,-2,-2,-11,-5,-4
1528877660747372,-3,0,-2,-3,0,4,3,2
1528877660747372,-1,-1,1,2,0,-3,0,-3
1528877660755351,0,0,-2,-1,-1,2,0,-1
1528877660755351,-1,-1,1,1,0,-4,-3,1
1528877660770313,1,-1,-2,-1,1,0,-2,-1
1528877660770313,-1,-2,-1,-2,-2,-5,0,0
1528877660777294,-1,-1,-1,0,1,-2,-2,-2
1528877660777294,0,-1,-1,0,1,1,0,-2
1528877660792292,-2,0,0,0,-2,1,-1,1
1528877660792292,0,-2,-2,-3,-2,-1,2,0
1528877660800271,1,-1,-1,-1,0,-2,-1,-2
1528877660800271,-1,-3,-1,-1,-1,3,-2,0
1528877660807271,2,0,-1,-1,0,-1,0,-2
1528877660807271,-1,-1,-1,-1,2,0,-1,2
1528877660815231,-3,-1,-1,-3,-1,0,1,-1
1528877660815231,-1,0,-1,0,1,0,1,-2
1528877660830353,1,0,0,-1,0,0,1,-1
1528877660830353,0,0,-1,1,-2,-2,-1,-2
1528877660837219,1,0,-1,-4,-1,-1,1,4
1528877660837219,-1,-2,0,0,-1,2,1,0
1528877660852131,0,0,1,1,-1,-2,0,-1
1528877660852131,-1,-1,-1,-3,-1,0,-1,-1
1528877660860238,-1,-3,0,1,-1,-1,-2,-3
1528877660860238,0,0,-1,-1,-2,-1,-2,1
1528877660867091,0,-2,0,-1,0,1,-1,1
1528877660867091,-1,0,0,0,-1,-4,-3,-1
1528877660875098,-1,-1,-2,-1,0,0,0,-1
1528877660875098,1,-1,1,-3,-1,1,0,1
1528877660889663,-2,1,1,-1,0,-4,1,-2
1528877660889663,-1,0,-2,-3,-1,-5,0,-1
1528877660897799,0,-1,0,0,1,1,0,-1
1528877660897799,0,3,0,1,0,-3,-2,-1
1528877660912802,0,-1,0,2,-1,1,-1,0
1528877660912802,0,1,-2,-1,-2,1,-1,1
1528877660919786,-1,-1,0,-1,0,-1,0,0
1528877660919786,0,0,-1,0,0,-3,1,0
1528877660927765,0,-1,-1,0,0,1,0,1
1528877660927765,-1,1,0,0,-1,-1,0,-1
1528877660934743,1,-1,1,0,-1,-1,1,-4
1528877660934743,0,1,-1,0,0,0,-2,-1
1528877660949923,0,0,-3,-2,2,3,1,1
1528877660949923,-1,-2,0,0,-1,2,1,0
1528877660957740,0,2,0,-1,-1,-1,-3,0
1528877660957740,-1,-2,-1,0,-2,0,-3,-1
1528877660972930,0,-1,-2,-1,-2,-3,-2,-1
1528877660972930,1,0,0,-1,-1,-1,-1,-1
1528877660979903,2,0,-1,1,-1,-1,0,0
1528877660979903,-1,0,0,-1,0,-2,1,0
1528877660987957,0,-1,-1,-1,1,1,1,1
1528877660987957,1,-2,-1,1,1,0,-2,1
1528877660995254,-1,-1,1,-2,0,-1,-1,0
1528877660995254,0,0,-1,-1,-1,-2,0,-2
1528877661010187,-2,0,0,0,0,0,-2,-3
1528877661010187,0,-3,-1,-1,-2,-1,-1,-1
1528877661017189,-1,0,-2,0,-1,0,0,-1
1528877661017189,0,-1,0,0,-2,0,0,1
1528877661032991,-2,2,0,1,-3,-1,-2,-2
1528877661032991,-1,0,0,1,-1,-1,-1,-2
1528877661039972,0,-1,-2,0,-1,0,-1,0
1528877661039972,-2,-2,-1,-2,0,1,0,0
1528877661047318,-1,-1,0,0,1,-1,-2,0
1528877661047318,-2,-1,0,0,0,-1,-1,0
1528877661055297,0,0,0,-1,-1,-1,1,0
1528877661055297,-1,-2,-1,-1,-2,0,1,0
1528877661070234,0,-2,-1,0,-1,-2,0,0
1528877661070234,-3,1,-1,-1,0,0,-1,0
1528877661077222,-2,-1,-1,-1,0,-2,-1,0
1528877661077222,-2,1,-3,1,-1,1,-1,0
1528877661092071,-2,0,-2,-2,-1,-2,-1,0
1528877661092071,1,0,-1,0,0,0,-2,0
1528877661100154,-1,-2,0,-2,-1,1,-1,-2
1528877661100154,0,0,1,-1,-1,-1,-1,-1
1528877661107026,-2,0,-1,-2,1,-2,-1,0
1528877661107026,0,0,0,-1,1,0,1,-1
1528877661115130,-3,1,-2,0,-1,0,-2,-1
1528877661115130,1,-1,-1,-2,0,1,0,0
1528877661137276,-1,0,-2,-1,-1,-1,0,0
1528877661137276,0,-2,-1,-1,-2,-1,-1,-2
1528877661145255,-1,-1,0,1,-2,-1,-2,-2
1528877661145255,-1,-1,-1,-1,-1,0,0,0
1528877661160236,2,0,-1,-1,-1,-1,0,0
