timestamp,emg1,emg2,emg3,emg4,emg5,emg6,emg7,emg8
1529563028035190,17,-12,-4,-1,3,19,14,1
1529563028035190,-36,-24,3,4,6,6,-23,-39
1529563028056132,-7,6,-3,-1,3,10,40,28
1529563028056132,-34,16,-1,-2,-2,13,-8,-1
1529563028058128,12,9,2,-2,-6,-9,5,-4
1529563028058128,-12,-10,-1,-1,-4,-17,-23,-2
1529563028070096,12,-5,-1,-2,0,0,7,-10
1529563028070096,24,7,0,0,3,16,7,0
1529563028079073,-32,-8,-4,-5,-4,-11,-20,-3
1529563028079073,6,5,-3,-5,-9,-1,18,1
1529563028094077,-11,-6,0,2,-4,-24,-18,-3
1529563028094077,17,0,-2,0,-3,0,-9,5
1529563028095030,-7,-1,-1,-1,6,-26,33,14
1529563028095030,-7,-3,1,2,7,44,-21,-4
1529563028115972,11,4,-2,-3,-3,2,9,6
1529563028115972,-3,0,4,2,3,15,-5,-20
1529563028117969,-1,1,-2,-1,-6,-8,-20,-6
1529563028117969,-1,2,-4,-2,-5,-21,13,9
1529563028129970,-18,-11,-3,-3,-4,-7,-4,1
1529563028129970,12,3,-2,-2,-1,-7,-2,-10
1529563028138912,-6,-4,-2,-2,-5,0,-9,-9
1529563028138912,-8,0,-3,-6,-7,-20,-21,-2
1529563028153910,-6,-3,1,1,4,9,20,-12
1529563028153910,9,1,3,5,7,6,10,18
1529563028155865,1,3,0,1,6,20,9,0
1529563028155865,-8,-3,-1,1,-1,6,1,-2
1529563028175847,1,-2,-1,-2,-7,-9,-14,-5
1529563028175847,-1,-3,-5,-6,-7,-21,-20,-6
1529563028177842,-8,-3,-3,0,-7,-3,13,-1
1529563028177842,2,1,0,-2,0,-19,-6,-1
1529563028189821,-4,-2,-1,1,4,24,-6,-8
1529563028189821,-4,-3,-2,-1,1,1,16,4
1529563028198753,-1,-3,-5,-5,-9,-5,-17,-6
1529563028198753,-1,0,1,1,2,-6,12,1
1529563028213758,1,3,2,1,4,2,-4,-3
1529563028213758,0,0,-2,-1,-2,1,2,-1
1529563028215707,1,0,-2,-5,-6,-11,-15,-3
1529563028215707,-5,-1,-2,-1,1,-3,11,-6
1529563028236678,-4,-2,0,-2,-1,-5,-6,1
1529563028236678,0,-5,-1,-1,4,20,11,1
1529563028237648,0,2,4,1,8,8,-2,1
1529563028237648,-2,0,-1,-2,-8,-4,4,3
1529563028259589,-4,-3,-2,-2,-20,-19,-37,-10
1529563028259589,1,1,-2,1,-2,-21,19,-1
1529563028260586,2,1,3,7,20,22,9,5
1529563028260586,1,1,-1,-2,-5,9,1,3
1529563028273553,-3,-3,-5,-2,-3,-4,-9,-6
1529563028273553,-1,-2,-1,1,-1,-4,-6,1
1529563028275548,1,-2,1,1,-4,-2,1,-3
1529563028275548,-1,0,0,-1,2,-2,-6,-2
1529563028296490,-2,0,1,-2,-11,-13,-1,-7
1529563028296490,-2,0,-2,0,4,5,3,2
1529563028297488,1,0,1,1,0,9,5,0
1529563028297488,3,0,0,-4,-7,-2,-1,2
1529563028309455,-2,-2,-1,2,13,-25,-7,-5
1529563028309455,-3,-1,0,2,-15,4,-4,-4
1529563028318431,-1,-2,-7,-16,2,15,3,3
1529563028318431,-1,0,3,16,26,-12,-5,-3
1529563028333552,-3,-4,-2,-8,-7,26,15,2
1529563028333552,1,0,-1,3,-22,-31,-15,-4
1529563028335386,-2,-2,-10,-15,12,51,11,5
1529563028335386,-1,0,-2,-2,1,-4,9,5
1529563028356518,-3,-2,4,18,48,11,6,0
1529563028356518,-1,-3,-2,-2,-2,24,2,-1
1529563028358324,-1,1,2,0,-16,-36,-13,-6
1529563028358324,-2,-2,-1,-4,-12,-1,1,0
1529563028370297,0,-1,2,2,-1,-26,-7,-1
1529563028370297,-2,-1,1,6,-27,-54,-10,-5
1529563028379270,-4,-6,-1,14,32,54,13,0
1529563028379270,3,4,5,-21,1,17,-3,3
1529563028394228,-6,0,3,13,0,-7,-6,-7
1529563028394228,3,-2,-9,-18,-15,25,2,4
1529563028395226,-6,-2,-1,-16,-4,-32,-16,-6
1529563028395226,1,0,3,11,-10,-13,-1,1
1529563028416216,0,0,0,-11,-37,8,3,0
1529563028416216,-2,-1,1,14,-7,-58,-14,-5
1529563028418203,0,3,12,2,-11,23,4,-3
1529563028418203,-2,-3,-12,-27,-6,8,5,1
1529563028430172,-2,-1,-9,-46,-68,-14,-15,-5
1529563028430172,-1,-3,-4,12,12,6,6,-1
1529563028439108,-1,-1,-2,22,-76,-66,-13,-3
1529563028439108,-2,-1,-2,28,109,62,10,-4
1529563028453248,1,-2,-12,-28,-52,14,8,3
1529563028453248,-3,-6,-5,1,-1,22,-2,-1
1529563028460455,1,0,0,3,-18,-23,-6,1
1529563028460455,-4,-7,-12,-9,6,-15,-5,-4
1529563028476421,-1,-4,-1,36,1,-32,1,0
1529563028476421,0,2,2,-67,-41,12,-7,-3
1529563028478231,4,9,-8,16,39,10,4,6
1529563028478231,2,-1,29,-22,-75,-21,-2,0
1529563028490355,-3,-6,-28,51,68,18,1,0
1529563028490355,1,15,22,-16,27,-12,-4,0
1529563028499209,-5,-6,-16,-20,-1,-15,-3,-4
1529563028499209,-3,-3,-8,14,46,1,1,-2
1529563028513164,1,1,13,-39,-66,-2,-1,-1
1529563028513164,5,8,37,64,98,28,7,1
1529563028520121,1,2,-13,5,11,1,-1,-3
1529563028520121,-3,-6,2,-18,-33,-4,-1,-3
1529563028536439,1,4,2,-7,18,9,-2,-1
1529563028536439,-5,-24,-21,13,21,5,7,2
1529563028538071,-1,-5,17,-21,-12,-5,-3,2
1529563028538071,-1,-8,-66,30,8,-3,2,2
1529563028550417,1,0,35,4,25,8,1,-2
1529563028550417,-3,-7,-17,-14,-4,-2,0,-2
1529563028559212,3,14,-2,1,20,-1,0,-5
1529563028559212,-17,-28,-5,-17,-31,0,-5,-7
1529563028573174,8,-24,33,9,17,-5,-2,1
1529563028573174,-51,-2,-19,-6,-12,1,-5,-9
1529563028580157,15,-2,4,5,28,7,9,-12
1529563028580157,-41,36,-12,22,-4,-5,18,14
1529563028596114,111,34,29,-11,-5,3,-14,25
1529563028596114,-43,-90,-16,1,6,-3,0,-8
1529563028598109,-53,0,-7,-8,-11,-4,-13,-3
1529563028598109,13,11,13,-5,-24,-9,-12,-25
1529563028610077,-60,-35,-15,-3,13,11,33,31
1529563028610077,63,66,38,14,-8,3,-2,-33
1529563028619052,-35,0,-19,-8,1,9,2,14
1529563028619052,-6,9,-8,-9,0,12,51,-32
1529563028633329,8,32,-10,18,30,14,-23,12
1529563028633329,67,5,41,6,-5,4,43,122
1529563028640164,61,42,24,-15,-31,-45,-97,-18
1529563028640164,-73,-21,14,25,5,-23,-82,-104
1529563028656994,-36,-34,-73,-35,-5,5,30,-42
1529563028656994,-40,-3,-5,-6,-7,9,-6,13
1529563028657948,93,-4,38,17,9,9,57,14
1529563028657948,-39,-1,-4,-11,-8,-6,-26,3
1529563028680105,22,38,-1,-6,-8,-1,45,-6
1529563028680105,17,-9,-9,-7,-2,-1,-7,-5
1529563028682991,-48,-18,-13,10,9,5,-4,-20
1529563028682991,31,-4,13,1,9,9,8,18
1529563028692855,-23,-15,-3,0,-5,-14,-60,-15
1529563028692855,18,22,-14,-11,-10,-7,14,0
1529563028699839,11,-13,-13,-3,-3,2,12,21
1529563028699839,18,8,4,-4,-4,5,18,13
1529563028714798,-6,-2,11,8,5,3,17,2
1529563028714798,5,-7,-8,5,2,-1,-7,11
1529563028723813,-23,-5,-8,3,-7,-6,-1,-27
1529563028723813,24,8,13,4,14,-3,7,40
1529563028739155,-15,-12,-2,0,-17,3,-7,-11
1529563028739155,-5,5,-13,-2,2,-14,-25,-52
1529563028741069,-9,-19,-10,4,18,-14,5,39
1529563028741069,0,-1,-5,-10,-65,4,0,-20
1529563028761447,9,-2,-1,-8,24,2,-3,83
1529563028761447,-25,1,-9,-11,-3,1,-12,-85
1529563028763307,-8,3,14,0,-19,-5,14,-6
1529563028763307,38,1,15,12,32,-9,4,47
1529563028775425,-15,-1,9,-2,-7,-5,-9,-29
1529563028775425,-4,2,5,0,-12,3,4,23
1529563028784222,10,3,4,5,16,0,-1,12
1529563028784222,8,-6,-18,-7,-6,-3,-6,-1
1529563028799182,-14,-1,-31,-9,-6,4,0,-10
1529563028799182,3,6,-15,1,7,1,7,13
1529563028800179,-3,-5,-14,2,-6,2,-6,-13
1529563028800179,0,0,6,8,-17,-66,-14,-1
1529563028821266,1,-3,1,14,9,71,13,-10
1529563028821266,5,7,-8,-36,-30,-20,-9,12
1529563028823118,-14,-3,-3,-9,-57,-14,-2,-13
1529563028823118,7,-6,-1,-12,73,43,8,13
1529563028835086,2,3,15,36,79,-52,-16,-12
1529563028835086,-7,-4,-2,-9,-47,42,6,-6
1529563028844467,-9,-2,1,8,-3,-23,-7,-2
1529563028844467,10,-1,4,5,-29,-17,-5,6
1529563028859097,-2,-7,-19,-10,24,66,14,-8
1529563028859097,-5,1,13,-2,87,68,19,6
1529563028860698,-1,-4,-9,-14,-28,-32,-4,0
1529563028860698,4,-2,7,4,-10,-13,-3,1
1529563028881819,-6,2,0,3,-27,-55,-14,-13
1529563028881819,-5,-2,-1,19,6,-17,0,-2
1529563028882638,2,0,3,0,12,25,6,4
1529563028882638,-1,-5,-11,-4,8,0,0,1
1529563028903582,-1,0,5,-2,-13,2,-1,1
1529563028903582,-1,0,-3,0,-12,-24,-8,-3
1529563028905578,-2,-1,2,0,19,11,1,-2
1529563028905578,0,-2,-6,-8,-9,17,5,2
1529563028918551,2,1,3,-10,-18,-16,-4,-4
1529563028918551,-2,-1,2,4,-13,-15,-6,-2
1529563028924566,-4,-1,-15,-5,7,3,-1,-4
1529563028924566,0,-3,1,-1,4,14,6,5
1529563028941527,1,3,8,-4,-20,-14,-6,-2
1529563028941527,-3,-2,2,5,0,-20,-7,-4
1529563028942524,-2,0,2,2,14,17,7,0
1529563028942524,3,-1,-10,-8,-8,-1,-1,2
1529563028954447,1,-1,4,1,-6,-15,-3,-3
1529563028954447,-1,-1,-3,-5,-17,-3,-4,-3
1529563028963469,-2,-1,3,2,12,2,-1,1
1529563028963469,-1,-1,-2,-3,-4,2,0,0
1529563028978383,-3,0,-2,-4,-6,-13,-5,-4
1529563028978383,-2,-2,-4,2,0,-7,0,-1
1529563028985399,-1,1,1,0,-1,4,0,-2
1529563028985399,1,-1,5,-1,0,-2,-1,0
1529563029001367,0,-1,-4,-3,-6,-2,1,-1
1529563029001367,-3,0,-4,-1,1,-9,-4,-2
1529563029003358,0,-1,3,-2,4,4,-1,-1
1529563029003358,0,-1,-1,0,0,2,0,1
1529563029015331,1,1,7,-4,-4,-3,-3,-2
1529563029015331,0,-2,2,-2,-2,-3,-1,-1
1529563029024259,-2,-1,9,-1,1,-2,-2,-2
1529563029024259,-1,0,1,-2,-1,2,3,0
1529563029038269,0,-2,-2,-4,-4,0,1,0
1529563029038269,-1,0,-4,2,0,-4,-2,-3
1529563029045205,-2,-1,-6,-2,0,1,-1,-1
1529563029045205,1,0,0,-1,-1,0,0,0
1529563029061200,-2,-2,-5,-2,-2,-1,-2,-2
1529563029061200,1,-2,-5,2,2,0,0,1
1529563029063198,0,-2,-3,-2,0,1,0,-1
1529563029063198,-1,-1,-4,-2,-2,0,0,-1
1529563029075162,-4,-1,-3,-2,-2,-6,-5,0
1529563029075162,-2,-2,-1,1,0,1,1,0
1529563029084135,1,-1,-1,-2,1,3,1,0
1529563029084135,-1,-1,-1,0,-3,-1,-1,-1
1529563029098110,0,-1,-4,-2,-2,-1,1,-2
1529563029098110,-2,-2,-1,0,-1,-5,-3,-1
1529563029105090,-1,-1,-1,-2,-1,-1,-2,-2
1529563029105090,-3,-1,0,0,-2,-1,-1,-1
1529563029121040,1,0,-1,-1,-3,-1,-1,-1
1529563029121040,-1,0,-1,-1,0,-2,-2,1
1529563029122996,-1,0,-2,-3,-3,-1,0,-1
1529563029122996,-1,-1,1,-3,-2,-1,-1,0
1529563029143990,0,-1,-1,-2,-2,0,1,0
1529563029143990,-2,0,-1,-1,0,-3,-1,-2
1529563029144938,-2,-2,-3,2,-1,0,-2,-2
1529563029144938,-2,-2,-2,-1,0,-2,-2,-1
1529563029158946,-4,-1,-1,-2,-6,-4,-3,-1
1529563029158946,0,-1,0,-1,2,5,1,0
1529563029164930,0,-1,0,-1,2,3,2,0
1529563029164930,-1,-2,-2,-1,-1,-1,-2,0
1529563029180887,-1,0,-1,-2,1,-1,-2,-1
1529563029180887,-2,-1,-3,-1,-4,-5,-2,-2
1529563029182835,-2,-1,0,-1,-2,-1,0,0
1529563029182835,0,-1,-1,-2,0,0,0,0
1529563029203830,-1,-2,-3,-1,-1,0,0,0
1529563029203830,-1,-1,0,-1,-2,-2,-2,-3
1529563029205821,0,0,1,0,0,0,-1,0
1529563029205821,-1,0,1,-2,-3,-2,0,-1
1529563029217789,-2,-3,-1,1,-1,0,0,-1
1529563029217789,0,1,1,0,-1,-1,-1,1
1529563029224763,-3,-2,-2,1,0,0,-1,-1
1529563029224763,-3,-1,-1,-1,-1,0,-1,-2
1529563029241706,-2,-2,-2,-2,-2,-3,-2,-1
1529563029241706,-2,-2,-1,0,0,0,1,-1
1529563029242676,-1,-1,0,-1,-2,0,-1,-1
1529563029242676,-2,-1,-3,-2,1,-1,-1,1
1529563029264017,1,-1,0,-1,0,-1,-1,-1
1529563029264017,0,-1,-2,-2,-1,-2,-1,-2
1529563029266011,-2,0,-1,-1,-1,-1,-1,-2
1529563029266011,1,-1,-1,-1,-1,2,2,0
1529563029277989,0,-2,-2,-1,-1,1,2,0
1529563029277989,-4,-2,-2,-2,-3,-3,-3,-1
1529563029286941,0,0,0,-2,-2,-3,-1,0
1529563029286941,-1,-1,0,-1,-1,0,-1,-1
1529563029300764,-2,1,-1,0,0,-2,-1,-1
1529563029300764,-1,-1,-3,-2,-1,0,0,0
1529563029308722,0,-1,-3,-3,-4,-3,-1,0
1529563029308722,-1,-2,-1,0,0,-2,-3,-3
1529563029323680,1,-1,1,1,2,4,1,-1
1529563029323680,0,-2,-3,-1,0,2,2,-1
1529563029325673,-1,-2,1,-2,0,2,7,-1
1529563029325673,0,0,-2,-2,-5,-12,-17,-6
1529563029338023,-2,1,0,1,-2,-3,-4,-4
1529563029338023,1,-1,-1,0,-1,0,-1,7
1529563029347029,-3,-2,1,-1,-3,-3,-2,-11
1529563029347029,0,-3,-1,0,-2,2,4,1
1529563029361259,-1,0,0,-2,0,-1,-1,-1
1529563029361259,1,2,0,-1,-2,-2,-2,-2
1529563029362961,-4,-1,-3,-1,-2,0,-1,1
1529563029362961,2,-1,0,-2,2,1,2,-1
1529563029384103,0,-2,1,0,0,-1,-2,1
1529563029384103,-3,-3,-1,-1,0,1,-1,-4
1529563029385101,2,1,-1,0,1,-2,-3,2
1529563029385101,-3,0,-2,0,0,0,0,0
1529563029398191,-4,-1,-1,-1,-2,0,0,-1
1529563029398191,0,1,0,-1,-1,0,-2,-1
1529563029406345,-2,-2,-2,-2,1,-2,-3,1
1529563029406345,0,-1,-1,-2,-3,-3,-3,-1
1529563029421000,1,-1,-6,-2,-3,1,3,0
1529563029421000,-1,-2,0,1,-1,-3,-4,-3
1529563029422995,-2,0,3,0,-3,-2,-3,2
1529563029422995,-3,-1,-2,0,0,0,2,0
1529563029444248,1,-2,-5,-2,1,0,0,0
1529563029444248,-2,-3,-2,0,0,-2,-1,1
1529563029445935,0,-1,-1,0,-2,-1,-2,-2
1529563029445935,0,0,-1,-1,-1,2,0,0
1529563029457140,-1,-1,0,0,-1,-1,-1,-1
1529563029457140,-2,0,0,-1,-2,-2,0,-1
1529563029466274,0,-1,-1,0,-2,-2,1,-1
1529563029466274,-2,-1,-1,0,0,0,1,-3
1529563029481257,-3,0,-2,0,0,-3,-1,-1
1529563029481257,-2,-2,0,-1,-2,-2,-3,-2
1529563029483074,-1,-2,-1,-2,-1,-1,-2,-1
1529563029483074,-2,0,-1,-2,-1,0,0,0
1529563029504335,0,0,-1,-1,-3,-1,-2,2
1529563029504335,10,2,-1,-1,-3,-3,0,9
1529563029506027,5,-1,-3,0,-1,-1,0,2
1529563029506027,0,-3,2,0,-1,-4,-3,-3
1529563029517066,-5,0,4,2,1,1,1,-9
1529563029517066,-38,-2,-2,0,-1,0,0,-22
1529563029526295,-54,0,-4,-2,1,1,-4,-21
1529563029526295,-29,-3,-4,-5,0,2,0,-6
1529563029541352,9,-3,-1,-1,0,-2,-3,5
1529563029541352,43,0,1,0,3,0,-1,12
1529563029543177,49,-2,0,3,1,-2,-3,13
1529563029543177,31,1,-1,4,2,0,2,6
1529563029564122,13,-2,1,2,1,-2,-1,7
1529563029564122,4,-2,0,-1,-1,-1,-2,2
1529563029565119,-4,-2,0,-1,-2,-1,-1,0
