timestamp,emg1,emg2,emg3,emg4,emg5,emg6,emg7,emg8
1528876026953353,-1,-2,-1,0,-1,-1,0,-1
1528876026953353,-1,-1,-1,-2,-2,-1,-1,-2
1528876026960336,0,-2,-1,-1,0,-1,-1,2
1528876026960336,-1,0,-1,-1,-1,0,-2,0
1528876026968314,-2,-1,-1,0,2,-1,-1,-2
1528876026968314,-1,-1,-2,2,-1,-1,0,-3
1528876026975295,-2,0,-1,1,0,-1,-1,0
1528876026975295,-3,-3,-1,-1,0,-2,-1,-2
1528876026984271,0,-2,-1,-2,-2,1,0,-1
1528876026984271,-1,-2,-1,-1,-2,0,-1,-1
1528876027013193,-2,0,-2,-1,-1,-1,1,-2
1528876027013193,-1,-3,-1,-1,-1,-2,-2,-3
1528876027020175,-2,0,0,-1,-1,-2,-1,-1
1528876027020175,-2,-2,-2,-1,0,-2,0,1
1528876027028161,0,-1,0,-1,0,-2,-3,-3
1528876027028161,-1,1,-3,-1,-1,-2,0,-1
1528876027035141,-2,0,1,-1,-1,-1,-2,0
1528876027035141,0,1,-1,-2,-1,-1,-1,-1
1528876027053088,-1,-2,-1,-2,-1,-1,0,-1
1528876027053088,-1,-1,0,0,0,1,0,-2
1528876027059072,0,0,-1,-1,-1,-2,-1,-2
1528876027059072,-1,-2,-1,-1,-2,-1,-1,0
1528876027066053,-1,0,-3,-2,-4,-1,0,-1
1528876027066053,0,-1,-1,-2,-2,-1,0,0
1528876027073034,0,-2,-2,-1,0,-1,-2,-1
1528876027073034,-1,-2,-1,-1,-3,-1,-1,-1
1528876027088007,0,-1,-3,1,-2,-1,-1,-2
1528876027088007,0,0,2,0,-1,0,1,-3
1528876027103951,0,-2,-2,-1,0,-2,0,0
1528876027103951,-1,0,-1,-1,1,0,-1,1
1528876027110934,-1,0,-2,-1,1,-2,1,-17
1528876027110934,1,-1,-2,-1,-1,-3,-3,20
1528876027125893,1,-1,0,-2,-3,-1,2,0
1528876027125893,-1,0,0,0,0,1,-4,0
1528876027140853,0,0,4,0,-1,-1,-2,-3
1528876027140853,-1,-1,-4,-2,-3,-2,-1,1
1528876027147834,-1,-1,-1,-2,-4,-3,-5,-1
1528876027147834,0,1,-1,0,-3,-7,-3,-4
1528876027164788,-1,0,-2,0,1,8,6,2
1528876027164788,-1,-2,0,2,3,3,3,-3
1528876027170773,-2,-3,0,-3,-5,-2,-3,1
1528876027170773,-2,-2,-2,-1,-3,-4,-2,-1
1528876027192714,-3,1,-3,-3,-3,-6,-5,-7
1528876027192714,1,-2,-1,-2,-5,-4,0,7
1528876027222634,2,1,-3,1,8,7,-1,-3
1528876027222634,-3,0,3,2,-4,1,3,-2
1528876027230612,-1,-5,-2,-2,0,-4,-2,3
1528876027230612,3,1,2,-6,-9,-9,-4,-6
1528876027240587,-4,-2,-6,-4,-12,-5,-3,-1
1528876027240587,-2,0,-5,-2,4,-5,0,-11
1528876027252555,-2,-1,-3,-1,3,0,25,-3
1528876027252555,-1,-1,0,-2,-1,5,-3,-1
1528876027268511,7,-3,-1,-5,-17,-11,-2,-12
1528876027268511,-3,-2,1,-3,-2,-8,-9,-4
1528876027275494,8,4,7,-1,-7,-17,-38,3
1528876027275494,-2,-1,1,5,13,4,6,-14
1528876027298477,-5,-10,-15,-11,-2,-13,-28,-9
1528876027298477,0,2,3,-11,-14,9,24,3
1528876027313444,2,8,5,0,-34,-6,-8,-2
1528876027313444,-2,-6,-8,1,61,9,-1,-4
1528876027320401,-4,0,1,4,-2,4,-19,-13
1528876027320401,5,-3,-1,-2,-8,-9,5,18
1528876027335387,-4,4,9,20,-11,1,67,6
1528876027335387,-2,-1,-7,-29,-22,-2,2,1
1528876027343314,0,-1,3,-5,-11,3,-2,0
1528876027343314,4,2,-2,1,-14,-12,10,11
1528876027358272,-2,-1,-3,5,14,3,-21,-2
1528876027358272,-4,-1,9,5,-14,-11,-9,-11
1528876027373233,-2,-5,-23,-33,-24,-1,-7,0
1528876027373233,2,8,14,20,0,-20,10,0
1528876027380214,-5,-12,-10,-14,18,12,-4,-4
1528876027380214,2,2,-12,-36,-5,4,-6,-1
1528876027395201,-1,0,12,9,-8,-4,6,1
1528876027395201,-1,1,2,-6,-17,0,3,-3
1528876027403151,-2,-3,1,24,18,-3,-13,-2
1528876027403151,-3,-2,9,14,-28,-9,-3,-2
1528876027418140,-4,-10,-36,-26,1,-5,4,1
1528876027418140,-6,-8,-15,-20,12,6,1,-5
1528876027433072,-2,2,19,29,9,-4,7,0
1528876027433072,-4,4,10,-1,-3,-2,-10,-7
1528876027440053,-3,-4,-13,-1,4,-7,-8,-3
1528876027440053,-1,3,0,-4,-7,0,2,0
1528876027455013,2,0,4,9,-6,-4,0,2
1528876027455013,0,0,1,13,7,5,2,-1
1528876027462992,1,3,12,4,14,1,-2,2
1528876027462992,-2,-5,-7,-5,6,5,-1,-3
1528876027477988,-2,1,3,-19,-4,-3,-1,-1
1528876027477988,0,0,-2,11,-1,0,1,-1
1528876027492965,1,2,12,18,9,-1,3,0
1528876027492965,-5,-9,-6,2,-12,-1,-5,-2
1528876027500890,3,3,-9,-24,-9,0,-5,-1
1528876027500890,-1,8,7,22,11,-3,-1,-2
1528876027515850,4,3,9,2,-6,-1,-2,-1
1528876027515850,-6,-10,1,11,6,4,5,-1
1528876027522878,0,-3,-24,-13,2,-4,-1,0
1528876027522878,-1,-4,-6,5,0,0,-1,1
1528876027537845,-1,4,-8,-16,-10,-3,3,0
1528876027537845,0,-1,9,-2,-7,-5,4,0
1528876027552805,2,7,-5,3,6,2,1,0
1528876027552805,-3,-14,6,17,1,3,3,1
1528876027560943,-2,-5,-20,-26,-3,-2,-1,-2
1528876027560943,3,1,7,1,0,-1,-3,-1
1528876027575933,0,-6,-9,-19,-1,0,1,-1
1528876027575933,1,7,6,18,3,-5,-9,-3
1528876027582885,1,7,11,5,0,-3,2,1
1528876027582885,2,-4,-3,-7,3,4,10,4
1528876027597990,-2,-6,-3,-5,-5,0,-3,0
1528876027597990,-4,-9,-5,25,5,-1,2,-3
1528876027612851,-4,-5,13,11,-1,-2,-22,-8
1528876027612851,2,7,-7,-26,-3,4,28,8
1528876027620785,4,-1,7,22,4,-1,19,4
1528876027620785,-5,-4,-2,-6,0,-6,-18,-10
1528876027636019,-2,-5,-10,0,-7,-2,1,0
1528876027636019,2,9,3,-2,0,-2,-20,-2
1528876027643107,-3,0,5,9,-1,1,11,0
1528876027643107,4,9,1,-27,0,-2,-21,0
1528876027658253,-4,-16,6,44,9,4,15,3
1528876027658253,-4,-4,-9,-23,-6,-5,-3,-4
1528876027673052,1,0,-44,-71,-6,-3,-4,2
1528876027673052,2,4,-14,-2,0,3,3,-3
1528876027680372,-6,-8,-1,-24,-3,-1,0,-2
1528876027680372,-1,-6,-10,11,1,-1,-3,2
1528876027695331,1,12,17,2,-5,-3,-4,-4
1528876027695331,2,2,8,1,-2,-10,-15,0
1528876027703355,2,0,-25,-22,-1,14,13,1
1528876027703355,1,-2,30,10,3,0,2,1
1528876027718315,-2,3,-3,31,0,0,13,0
1528876027718315,-3,0,-30,-46,-6,-2,-44,-11
1528876027733229,4,7,-10,9,8,10,26,5
1528876027733229,-3,-18,7,8,-1,2,12,4
1528876027740281,0,3,3,-15,-3,-2,-12,2
1528876027740281,-8,-6,-25,-26,-10,-8,3,-10
1528876027755480,-3,-1,3,-4,-3,-7,-23,-5
1528876027755480,8,9,17,21,0,3,7,-5
1528876027763461,-4,-3,-25,-2,-1,-4,-6,-3
1528876027763461,-2,-7,24,-13,4,4,8,6
1528876027778439,3,11,9,-7,5,-1,-8,-4
1528876027778439,0,-7,-6,-22,-9,2,17,2
1528876027793290,-6,-3,9,-15,-8,-7,-5,-5
1528876027793290,2,-6,6,5,-4,-1,8,7
1528876027800262,2,-14,6,-8,-11,1,-11,-1
1528876027800262,2,-16,-12,-10,-59,-16,4,0
1528876027815222,-7,-9,7,-4,48,10,4,-3
1528876027815222,0,5,-6,-8,-8,0,-4,0
1528876027823201,-7,1,-11,-14,-9,-7,-9,-7
1528876027823201,-1,7,-5,25,9,2,9,4
1528876027838288,2,5,5,-11,-34,-13,-17,-1
1528876027838288,-6,5,2,-8,3,-9,-54,-19
1528876027853120,-5,-11,-30,-23,-11,-5,-5,2
1528876027853120,-4,-2,6,16,13,0,-18,-15
1528876027860241,-1,0,9,-3,-4,-9,-77,-14
1528876027860241,4,-3,-9,-15,2,8,70,25
1528876027875222,4,-3,0,7,-6,-11,-36,-1
1528876027875222,-8,-5,-13,-3,-2,6,94,9
1528876027883189,0,5,6,-8,-1,0,-25,-5
1528876027883189,-2,-7,-25,-12,11,7,-25,-9
1528876027898549,-1,1,5,4,-4,1,7,4
1528876027898549,3,5,4,-17,-12,-9,-25,-3
1528876027913492,-5,-4,6,8,-11,-7,-36,-13
1528876027913492,2,1,-9,5,0,3,13,12
1528876027920473,2,-1,-9,-9,-2,-2,33,2
1528876027920473,-4,-1,-2,-12,6,4,-10,-5
1528876027935277,4,4,21,18,3,-2,-16,12
1528876027935277,1,1,-3,1,2,5,42,9
1528876027943426,0,0,4,9,-2,-3,15,2
1528876027943426,3,-3,-11,-8,-8,-7,-30,-7
1528876027965588,-18,-4,-3,-24,-2,5,-7,-15
1528876027965588,4,2,-2,6,7,-3,-7,2
1528876027980715,-2,-10,1,46,0,-1,23,-1
1528876027980715,-3,-1,4,-18,-9,1,-11,0
1528876027987691,0,-1,-3,4,-2,1,-5,-3
1528876027987691,-3,-5,-1,14,-2,-4,-9,-2
1528876028002519,2,-3,-19,0,-8,-2,19,3
1528876028002519,-1,0,-2,-16,7,5,-7,-2
1528876028018474,-2,0,8,37,-1,-1,12,-1
1528876028018474,-2,-3,-11,-7,-1,-8,-16,-3
1528876028033433,3,5,10,-27,-6,1,8,-2
1528876028033433,0,-2,5,14,-2,3,-6,1
1528876028040469,-3,2,2,10,-2,-2,-2,-4
1528876028040469,-2,-3,4,-6,-4,-5,-2,-3
1528876028055556,1,3,14,13,3,4,6,1
1528876028055556,-1,4,-12,-7,-9,-9,-7,-7
1528876028070676,-2,-16,8,-5,5,4,0,2
1528876028070676,0,6,5,30,3,-3,-2,0
1528876028085632,4,4,5,0,5,3,11,5
1528876028085632,-5,-8,-6,-23,-6,0,-10,-5
1528876028092821,2,3,-10,-1,-4,-2,2,-1
1528876028092821,-1,4,0,0,4,-1,-2,-1
1528876028100676,-1,-4,2,-15,0,0,-2,0
1528876028100676,1,3,10,44,3,-1,-3,1
1528876028107981,-1,-4,-28,-40,-6,-1,-11,-2
1528876028107981,2,2,18,8,7,2,6,3
1528876028122940,0,1,-30,-20,-5,-2,9,-2
1528876028122940,1,-6,6,14,9,5,1,3
1528876028137894,0,4,-6,-20,0,0,0,0
1528876028137894,-1,-2,14,-11,0,1,-1,-1
1528876028145855,4,2,5,17,6,1,1,2
1528876028145855,-9,-9,-23,-17,-15,-6,-7,-10
1528876028152701,3,-2,13,14,6,3,-2,3
1528876028152701,-3,-1,-17,-4,-3,-4,-12,-3
1528876028160680,-4,-5,20,11,3,-2,0,-6
1528876028160680,2,4,-23,6,5,7,13,5
1528876028175793,-2,-19,-14,-3,3,-1,15,0
1528876028175793,0,6,19,18,-11,-3,-22,-5
1528876028182774,-1,-1,-18,-21,3,2,-1,2
1528876028182774,-3,-2,9,11,1,-5,-10,-4
1528876028198602,-4,2,-10,-13,-6,-5,-3,-4
1528876028198602,-1,-4,-1,-15,-2,-2,-2,0
1528876028205716,2,3,12,2,-1,0,12,-1
1528876028205716,-2,-2,1,-2,1,1,0,-2
1528876028212550,-3,1,-2,0,-5,-5,-8,-3
1528876028212550,2,10,18,-4,-3,-1,13,0
1528876028220533,-4,15,-22,-17,-9,-7,-5,-4
1528876028220533,0,-30,30,5,10,7,1,6
1528876028235879,1,3,-5,-7,-5,-2,-17,-1
1528876028235879,-5,-2,-14,-3,3,7,30,0
1528876028243008,-3,8,-6,-5,-11,-20,-45,-6
1528876028243008,1,5,14,2,1,-4,-4,-9
1528876028257961,3,-6,4,-6,1,11,35,11
1528876028257961,1,-18,8,-3,4,-8,-36,-4
1528876028266081,-7,-1,-3,1,-11,-2,25,-8
1528876028266081,0,-6,1,5,0,8,35,10
1528876028273134,-4,-1,13,16,4,-5,-100,-16
1528876028273134,-2,-1,-24,-9,-8,3,103,18
1528876028281069,3,24,-26,-24,-14,-24,-77,-15
1528876028281069,2,-31,45,9,15,6,-52,-3
1528876028296043,6,0,8,19,4,17,117,21
1528876028296043,3,10,12,31,10,22,28,11
1528876028310878,5,-2,0,-19,-5,1,0,8
1528876028310878,2,21,-20,-9,-5,1,-7,-1
1528876028332827,-4,-2,-16,-13,2,-8,-54,-13
1528876028332827,-4,-3,6,2,-6,-19,-34,-12
1528876028355758,-3,-8,-1,1,-2,3,5,-16
1528876028355758,2,4,-12,-11,-2,-2,21,11
1528876028370718,-6,-4,-9,-18,-3,-7,-11,-2
1528876028370718,-1,-3,-13,0,-2,-1,-26,-7
1528876028386094,-4,4,-4,19,-5,1,10,0
1528876028386094,-4,-5,0,-9,-5,-17,-83,-11
1528876028401059,4,-9,5,-19,-4,-4,-4,4
1528876028401059,-5,-5,-7,1,-4,-3,-4,-3
1528876028415110,4,8,-6,-28,2,0,8,7
1528876028415110,-2,-1,12,16,-5,-5,-5,-4
1528876028430070,-1,-3,-19,1,24,2,-7,-4
1528876028430070,-3,2,-17,-3,0,-5,-43,-9
1528876028438049,3,2,19,11,1,8,66,13
1528876028438049,-2,-2,0,-24,-4,2,10,-3
1528876028453007,-5,2,-25,3,-2,-10,-48,-12
1528876028453007,0,-2,-1,-9,0,1,-3,-1
1528876028467969,1,-3,6,13,0,3,24,8
1528876028467969,2,-4,0,2,3,3,13,5
1528876028475947,0,-4,0,2,-6,-2,-7,-2
1528876028475947,-2,-1,-2,2,0,-2,-27,-8
1528876028490906,1,-3,-17,-15,-4,-3,18,1
1528876028490906,0,-2,3,3,-1,1,3,0
1528876028497888,0,2,3,0,8,6,-10,0
1528876028497888,-1,-4,-13,7,2,2,8,1
1528876028512848,-2,0,8,3,-7,-10,-1,-5
1528876028512848,0,3,7,3,3,-6,-23,-5
1528876028535787,-3,-6,-10,-7,-4,-4,4,3
1528876028535787,-4,-5,0,10,-7,2,12,-5
1528876028542768,0,3,4,5,3,-5,-22,3
1528876028542768,-1,-3,-13,-9,3,9,15,-7
1528876028572688,3,1,7,-36,0,-4,-25,4
1528876028572688,0,-2,3,50,0,0,38,5
1528876028587648,-1,-3,-6,-10,-6,-2,1,-1
1528876028587648,0,0,-5,4,0,0,6,4
1528876028602608,-2,-2,3,5,1,0,-8,-7
1528876028602608,-1,1,-7,-25,-3,-2,-25,-6
1528876028610587,-1,0,-1,-5,1,-1,10,1
1528876028610587,3,-1,2,9,5,3,27,5
1528876028617567,-4,-2,1,5,-4,-3,-1,-1
1528876028617567,-2,2,-2,-9,-2,-2,-12,-2
1528876028625547,-2,1,3,30,6,0,-7,-7
1528876028625547,-3,-4,-2,-13,-2,3,7,4
1528876028632528,0,0,-6,-18,-5,-1,0,-4
1528876028632528,-2,1,-1,6,4,-4,-7,-5
1528876028647540,0,-2,7,5,-4,-1,4,1
1528876028647540,-1,-1,-5,-5,-1,0,-3,-1
1528876028655520,-2,-2,5,3,-1,-1,2,-3
1528876028655520,0,1,0,1,-3,-3,6,2
1528876028670480,-1,-3,-2,-6,0,0,-1,-2
1528876028670480,-2,-1,-5,2,-2,-5,-8,-2
1528876028678482,0,-1,1,6,3,2,12,4
1528876028678482,-4,-2,-6,-12,-3,-4,-22,-9
1528876028693400,-2,1,-1,-5,-3,-2,-4,0
1528876028693400,-1,-3,-4,-3,-2,-1,0,-2
1528876028708336,1,-2,-2,-7,-6,-3,-10,-2
1528876028708336,-1,-1,-4,9,4,-1,3,-1
1528876028715361,0,0,3,-6,-5,-2,-3,-1
1528876028715361,-3,-2,0,3,0,-1,2,-3
1528876028730320,2,3,-1,0,3,2,-2,1
1528876028730320,-1,-2,-2,0,-4,-1,6,-2
1528876028738249,0,0,-4,-2,-2,-3,-7,-1
1528876028738249,-2,-3,-5,-3,-4,-1,4,-3
1528876028753535,0,-1,3,4,1,0,-1,-2
1528876028753535,0,-3,1,-4,-2,0,-1,-1
1528876028760564,-1,-2,0,-3,1,0,-2,-1
1528876028760564,1,1,-4,2,-2,-2,1,0
1528876028775583,-2,-1,-6,-4,-4,-2,-2,0
1528876028775583,0,2,3,-3,0,3,9,-1
1528876028790858,-1,-1,-3,4,0,-2,-4,-2
1528876028790858,-1,-3,-2,-5,-3,0,6,2
1528876028797702,0,-2,2,-3,-1,-1,-4,1
1528876028797702,0,0,1,-1,-1,0,7,2
1528876028812658,-2,-1,-2,1,-3,-4,-6,-3
1528876028812658,0,0,-3,0,-2,-2,-5,-4
1528876028820646,-1,-2,-2,-1,-1,0,8,0
1528876028820646,0,0,1,3,1,0,-7,0
1528876028835633,-3,-2,-3,2,-1,0,3,-2
1528876028835633,-2,-2,-2,-3,-1,-1,-3,1
1528876028850711,-3,-1,-1,0,-1,-2,-3,-2
1528876028850711,-2,-2,-2,-4,1,0,1,-1
1528876028857834,0,0,-3,-1,-5,-2,-4,-3
1528876028857834,-2,-1,-1,-4,0,-1,-3,-3
1528876028872655,-4,0,0,2,-2,-2,-3,-2
1528876028872655,1,-1,-2,-4,-4,-4,-2,0
1528876028880752,0,-1,0,0,4,2,1,-2
1528876028880752,-1,-2,1,0,-1,0,2,1
1528876028895718,-2,0,-2,0,2,0,-2,0
1528876028895718,-1,0,0,-1,-1,-1,-2,1
1528876028918074,-1,-4,2,-1,-1,-1,-1,0
1528876028918074,-3,-1,-2,-6,-5,-5,-3,-3
1528876028925381,-2,0,0,0,-1,-2,0,0
1528876028925381,0,3,0,-1,-2,-2,-2,-1
1528876028940387,0,-1,-2,-2,-1,-2,-1,1
1528876028940387,-2,-3,-6,-3,1,2,0,0
1528876028948365,-1,-5,-1,1,-1,1,-1,-2
1528876028948365,-1,0,-2,-2,-2,-4,0,-2
1528876028963465,-1,-1,-1,0,-1,4,-1,-2
1528876028963465,0,-1,0,2,-2,-3,0,-1
1528876028978192,-2,0,-3,-2,-4,-5,-3,-2
1528876028978192,1,-2,0,1,1,3,-1,-2
1528876028993010,-2,-3,2,-1,1,0,-1,-1
1528876028993010,0,0,1,-2,-2,-1,0,-1
1528876029001066,-3,-5,-3,0,0,1,-1,0
1528876029001066,0,-1,-1,0,-2,-2,-1,0
1528876029015335,0,0,0,-2,-3,-3,-3,-1
1528876029015335,-1,-5,-2,-1,-1,-1,-2,1
1528876029030142,0,-2,2,2,1,0,3,1
1528876029030142,-1,-1,0,-2,-2,-3,0,-1
1528876029038120,0,0,0,0,-1,-2,-1,1
1528876029038120,-2,2,-8,-3,-3,-1,-3,-2
1528876029053078,0,2,-4,-3,-4,-2,1,-2
1528876029053078,-3,-4,-1,2,-1,0,0,1
1528876029060060,-1,-2,2,-1,0,0,0,1
1528876029060060,-6,-10,-9,-3,-1,-1,0,-1
1528876029075071,-1,-2,9,3,2,2,-1,-1
1528876029075071,5,2,11,3,1,0,2,1
1528876029090989,-1,-3,-6,-1,-1,-1,-1,0
1528876029090989,-2,-2,0,1,-1,-1,2,0
1528876029097961,-2,-2,-13,-4,-5,-4,-20,-6
1528876029097961,5,1,2,1,0,4,24,3
1528876029113274,0,5,4,0,-1,-3,-6,1
1528876029113274,-1,-1,1,-2,0,2,8,1
1528876029120093,13,2,-3,-2,-3,-3,-7,4
1528876029120093,-22,-4,-2,-1,-1,-2,-14,-7
1528876029135297,0,3,0,-2,-1,-2,4,1
1528876029135297,4,-1,-3,-2,-1,-1,-5,-1
1528876029150274,1,-2,1,1,-2,1,2,-2
1528876029150274,-4,-1,0,-1,0,-2,-3,-1
1528876029158388,-2,-1,1,0,0,1,6,-1
1528876029158388,1,1,1,-2,-1,-1,-3,0
1528876029173212,-2,-1,-3,0,-2,-1,-5,-3
1528876029173212,4,1,-1,-2,-2,-3,-2,-1
1528876029180372,-4,1,-1,0,-2,0,1,-2
1528876029180372,1,0,-2,-1,-2,-1,-3,0
1528876029195675,-3,1,-2,-3,0,-2,4,2
1528876029195675,-2,-1,-2,-1,-2,-3,-10,-2
1528876029210977,-2,-4,-8,-3,-1,-3,-16,-7
1528876029210977,2,4,0,0,-1,3,22,6
1528876029217963,-2,1,-2,0,-1,-1,-7,-3
1528876029217963,3,0,-3,-2,-2,-2,0,-1
1528876029232920,-1,-2,-8,-2,-4,-2,-5,-5
1528876029232920,-1,-1,0,-2,-2,-2,-10,-2
1528876029240935,-3,-2,-2,-1,-3,0,4,1
1528876029240935,0,-1,0,-2,0,-1,-3,-1
1528876029255898,-2,-2,3,-2,1,1,15,5
1528876029255898,1,0,-1,-2,-1,-1,-13,-7
1528876029270863,-1,-1,2,-1,-1,1,5,2
1528876029270863,0,1,2,0,1,-1,-5,-3
1528876029277834,1,-1,-2,-1,0,0,-5,-3
1528876029277834,-9,-3,-2,-2,-2,-3,4,0
1528876029300739,3,1,3,1,-3,0,3,-1
1528876029300739,0,-1,-1,0,-1,-2,-5,-3
1528876029307720,-1,-3,-1,-1,-1,-2,-1,-4
1528876029307720,0,-1,-1,-2,-1,0,2,2
1528876029322680,-2,-2,-2,1,0,0,-1,-1
1528876029322680,1,-1,0,-1,0,0,-1,-1
1528876029337660,-3,-1,-2,0,-1,-2,-2,-3
1528876029337660,2,-2,8,5,0,-1,1,1
1528876029352943,-1,-1,-1,1,-1,-2,-1,0
1528876029352943,-1,0,-1,0,-1,-2,-2,0
1528876029360922,-1,0,0,-1,-3,-1,-1,-2
1528876029360922,-1,-1,-12,-3,-1,0,1,-1
1528876029375866,-1,-1,-1,-3,-2,-2,-3,-2
1528876029375866,0,0,0,-2,-2,-1,-1,0
1528876029390828,-1,-2,0,-2,-1,0,0,-1
1528876029390828,-2,1,-3,-1,-1,-2,-2,-3
1528876029397809,-2,-1,-1,-1,-2,-2,-1,-1
1528876029397809,0,-1,-2,0,-3,-1,-2,-1
1528876029412950,-1,-2,-2,1,-1,0,0,-1
1528876029412950,0,0,2,-2,0,-1,-2,-1
1528876029420928,-1,-3,0,-1,-1,1,-1,-1
1528876029420928,-2,1,0,-2,-1,-1,-1,1
1528876029435339,0,0,-1,-1,-3,-1,-3,-2
1528876029435339,-1,-1,-2,-3,-2,-1,-1,0
1528876029450155,-1,0,-1,-2,0,-1,-1,0
1528876029450155,-1,0,-1,-3,-2,1,-1,-1
1528876029458448,-2,-4,-1,0,0,0,-2,-1
1528876029458448,1,-1,-1,0,-1,0,1,-1
1528876029473402,0,-2,0,-1,-2,0,-1,-2
1528876029473402,-1,0,-1,-2,-1,-1,-1,-2
1528876029480584,-1,-1,-3,-1,1,-1,-3,-2
1528876029480584,-1,-1,-1,-2,-1,-2,-2,-2
