timestamp,emg1,emg2,emg3,emg4,emg5,emg6,emg7,emg8
1528444864232998,0,0,-1,0,0,1,-1,1
1528444864232998,-1,0,-3,-1,-1,-1,-2,-1
1528444864232998,-1,0,-2,0,-1,-2,-1,0
1528444864232998,0,0,-1,-1,-1,0,1,-3
1528444864234994,-1,1,-3,-1,-2,-1,-1,0
1528444864234994,0,-2,0,0,-2,-2,-1,-1
1528444864235990,1,0,-1,-3,-1,-1,-1,0
1528444864235990,-1,0,-1,-3,-2,-2,0,0
1528444864243971,-1,-1,-2,-1,-1,-1,-1,-1
1528444864243971,-1,-2,-1,-2,-2,0,-1,0
1528444864247959,-1,-3,0,0,-2,-1,-1,-1
1528444864247959,-1,-3,-3,-2,-1,0,-2,-1
1528444864262920,-1,-3,0,-1,-2,-1,-2,-2
1528444864262920,-2,-2,-1,-3,0,-2,-2,-2
1528444864272894,-4,-1,0,-3,-1,-2,0,-2
1528444864272894,-2,-1,-1,-2,-2,-2,-1,-2
1528444864280871,-1,-1,-1,-2,-2,-1,0,-2
1528444864280871,-2,-1,1,0,-2,-2,0,-2
1528444864302814,2,-1,-4,0,-3,0,-1,-1
1528444864302814,-3,-2,-1,0,0,-2,-2,-2
1528444864341709,-1,0,-2,0,-2,-1,0,-1
1528444864341709,-1,0,0,-2,0,-1,1,-1
1528444864342706,0,-1,-1,0,-1,-1,-1,-1
1528444864342706,-2,-1,-2,1,-1,-1,-2,-1
1528444864343703,-2,-2,1,-1,-2,0,-1,-1
1528444864343703,-1,-3,-2,-1,0,-2,-1,-2
1528444864345697,1,-2,0,-1,-2,-2,-2,-1
1528444864345697,0,0,-1,-2,-1,-1,0,1
1528444864353676,-1,0,0,0,0,-1,-1,-1
1528444864353676,-1,-1,-1,-1,-4,-1,-3,0
1528444864368638,0,-2,-1,-3,-1,0,-2,0
1528444864368638,1,-2,0,-2,-1,0,-1,-2
1528444864369633,-2,-2,-2,-2,-1,-1,-1,-1
1528444864369633,-1,-1,-2,0,-1,-1,-1,-1
1528444864383596,-1,-1,0,1,0,-1,-1,-1
1528444864383596,-3,-2,-2,-1,1,-3,0,-3
1528444864392572,0,-1,-2,0,-2,1,-1,0
1528444864392572,-2,-1,-1,-2,0,0,1,-1
1528444864405564,-1,-1,-1,-1,-2,-2,-1,0
1528444864405564,1,0,-1,-1,-3,-3,-1,-2
1528444864413516,-1,-2,-1,-2,-1,-1,-1,-1
1528444864413516,-1,-2,0,0,-1,1,-3,-1
1528444864428503,-2,-1,-1,-1,0,0,0,-1
1528444864428503,-3,-1,-1,0,-1,-2,0,0
1528444864429475,0,-1,0,-2,-2,-2,-1,-1
1528444864429475,-1,1,1,-1,-3,-1,-1,-1
1528444864451460,-1,-1,-1,-2,0,-1,-2,-1
1528444864451460,-1,-1,-1,0,-2,0,-3,-2
1528444864452413,0,1,-1,-1,0,-3,-1,-2
1528444864452413,0,0,-2,-2,-1,0,0,-1
1528444864465377,-2,-1,-1,0,-2,-2,-2,-2
1528444864465377,-1,-2,-1,-2,-3,-1,-1,-2
1528444864474400,0,-2,-2,0,-1,-1,-2,0
1528444864474400,-1,0,-2,0,-1,-3,-1,-1
1528444864489357,-1,0,0,-1,-1,-1,-1,-1
1528444864489357,-1,-1,-2,-1,-1,1,-2,-1
1528444864489357,-1,-2,-2,-2,-2,-2,-2,-2
1528444864489357,0,2,0,-1,1,-2,0,-2
1528444864511293,-1,-1,-2,-1,-2,0,0,0
1528444864511293,0,0,-1,0,0,-1,-2,0
1528444864512253,-1,-2,-2,-1,-1,-1,-1,-2
1528444864512253,-1,-3,-3,-2,-2,-1,-1,0
1528444864535258,-1,-2,-2,-2,-1,-1,-2,-1
1528444864535258,0,-1,-1,-3,-3,-1,1,-1
1528444864535258,-2,-2,0,0,-1,-1,-1,1
1528444864535258,-1,-1,1,-1,-2,0,-3,1
1528444864549153,-1,-1,0,0,1,0,1,-1
1528444864549153,-1,-1,0,-1,2,-1,-2,-1
1528444864550151,0,0,-1,1,1,-1,-1,-2
1528444864550151,-2,-2,0,-2,-1,-2,0,-2
1528444864571095,-1,-2,-2,-1,-2,-1,-1,-1
1528444864571095,0,-1,-1,-1,-1,-1,-1,0
1528444864572093,-1,0,-2,-2,-2,-1,-1,-2
1528444864572093,1,-2,-3,-1,0,1,0,0
1528444864595077,0,-3,-2,0,-4,-2,0,-2
1528444864595077,-1,-2,1,0,-1,-2,0,-2
1528444864595077,0,0,-1,-1,1,0,0,-2
1528444864595077,-1,1,-2,0,-3,1,-1,-1
1528444864608993,-1,-1,0,-2,-2,-1,-1,1
1528444864608993,0,0,-1,-2,-2,0,-3,-1
1528444864609991,1,-1,0,-1,-1,0,-2,0
1528444864609991,-2,-3,-1,-1,-1,-2,-3,-1
1528444864630987,-1,0,1,-2,0,-1,0,-1
1528444864630987,-1,-2,-2,-1,-2,-1,0,-2
1528444864631932,0,-1,-2,0,-3,-3,-2,-1
1528444864631932,-1,-2,-1,-2,-1,-4,-1,0
1528444864654871,1,1,1,0,0,0,-1,-3
1528444864654871,0,-2,-2,-2,0,0,-1,1
1528444864654871,-2,-1,-1,0,-2,-1,-1,-2
1528444864654871,-1,-1,-1,-1,-1,-1,-2,-1
1528444864668874,-1,-1,-2,-2,-1,0,0,0
1528444864668874,-1,0,-1,-1,-1,-1,-2,-2
1528444864669831,1,-1,-1,0,-1,1,-1,0
1528444864669831,0,-1,-1,-2,-1,0,-1,-1
1528444864691772,-1,-1,-4,-2,-1,-3,-1,-1
1528444864691772,0,0,0,-3,-1,-1,0,-2
1528444864691772,-3,-2,0,-2,-1,-1,-1,0
1528444864691772,0,-1,0,0,-2,-3,-2,-3
1528444864714711,-1,-2,-4,0,-2,-1,0,0
1528444864714711,-3,-3,-1,-1,-1,-2,-1,-3
1528444864715709,0,-1,0,-1,-2,0,-1,-1
1528444864715709,-1,-1,-1,-1,0,-1,-1,-1
1528444864728673,-1,-3,-1,-2,1,-1,-1,0
1528444864728673,-2,-1,-3,-1,-2,-1,0,-1
1528444864729671,0,-1,-1,-3,-1,-3,0,-1
1528444864729671,-1,-3,-1,-1,0,-1,0,-1
1528444864751612,-1,0,1,-1,-1,1,-2,1
1528444864751612,-1,0,-3,-1,0,0,-2,-1
1528444864752609,-3,-1,-1,-1,0,0,-2,-1
1528444864752609,0,0,-1,-1,-1,-1,-1,-1
1528444864774552,0,-2,-2,-2,-2,-2,1,0
1528444864774552,0,0,-1,-1,-2,-1,-1,0
1528444864775548,-1,0,-2,-1,-1,-1,0,-2
1528444864775548,-1,-1,0,0,-2,0,0,0
1528444864788513,-1,0,-1,0,-1,-2,-1,-1
1528444864788513,-3,-1,0,0,-1,-3,-2,-1
1528444864789511,-2,-1,-2,-1,-2,-1,-2,1
1528444864789511,-3,0,-2,-3,-1,-2,0,-1
1528444864812451,-2,-3,-1,1,-1,-1,-2,-1
1528444864812451,-1,-1,0,0,-1,-1,-1,-1
1528444864812451,0,0,0,0,0,-1,-1,-3
1528444864812451,-1,0,-1,0,-1,0,-1,-1
1528444864834430,-2,-2,-1,0,-1,-1,-2,-1
1528444864834430,-1,-1,-1,-1,-2,-1,0,-1
1528444864835389,-1,-1,0,-2,0,-2,-1,-1
1528444864835389,-1,-2,-2,-2,-1,0,0,-2
1528444864849352,-2,-1,-1,-2,-1,-1,-1,-3
1528444864849352,-2,0,-2,1,-3,-2,-1,0
1528444864849352,-1,-1,-2,-1,0,-1,1,-1
1528444864849352,-1,0,-2,-1,-1,-1,-1,-3
1528444864872290,-1,-2,-1,0,0,-1,-1,-1
1528444864872290,0,-2,-1,-2,-1,1,0,-1
1528444864873288,0,-1,-2,-2,-1,-1,-1,-1
1528444864873288,0,0,-3,1,0,-1,0,1
1528444864894248,-1,0,-1,-1,-1,-1,-2,-1
1528444864894248,-1,-1,-1,-1,-2,-1,-1,1
1528444864895229,0,0,-1,-2,-1,-1,0,-2
1528444864895229,0,-2,-2,-3,-2,-1,0,0
1528444864909191,-1,0,-1,-1,0,0,-1,-1
1528444864909191,0,0,0,-1,0,0,-1,-1
1528444864910199,-3,0,-1,-1,-1,0,-2,0
1528444864910199,-1,-1,0,-2,-2,-2,0,-3
1528444864932130,-1,1,-2,-1,0,2,-1,-1
1528444864932130,-1,-2,-1,-1,0,-2,-1,-2
1528444864933127,-1,-3,-1,-1,-1,-2,1,-2
1528444864933127,-1,-1,1,0,-2,-1,-1,-2
1528444864954121,-1,-1,0,-2,-1,-1,-1,0
1528444864954121,0,-2,-1,-2,-2,0,0,-2
1528444864955107,-1,-1,-1,-2,-2,-1,-2,-1
1528444864955107,-1,-2,-1,-3,0,1,-2,1
1528444864969378,-2,-1,-2,-1,-2,0,-1,-1
1528444864969378,0,-2,-2,-1,1,-2,0,-2
1528444864970029,-1,0,0,0,-1,0,-2,0
1528444864970029,0,0,0,0,-2,0,-1,-2
1528444864992593,0,1,0,-1,-1,-2,-1,-1
1528444864992593,-1,-1,-1,0,0,-1,0,0
1528444864993290,0,-3,-1,-1,-2,-1,-1,-1
1528444864993290,-1,-2,-2,-2,0,-1,-1,-1
1528444865014672,0,-2,-1,-2,1,0,0,0
1528444865014672,-2,-2,-1,-1,-2,-1,-1,-1
1528444865015670,-1,-1,0,-2,-1,-1,-2,1
1528444865015670,0,-2,-1,2,0,0,-2,0
1528444865028692,-1,0,-2,-2,-1,-1,-1,-1
1528444865028692,0,2,-1,-1,-3,-1,-2,-1
1528444865036647,0,-1,-1,-2,-1,-3,-1,-1
1528444865036647,-1,-1,-2,-2,-3,-2,-3,0
1528444865051607,-1,-1,0,0,0,-1,0,0
1528444865051607,-1,-1,0,-1,-1,-1,-2,-1
1528444865052594,-3,-1,-1,-2,0,0,-1,-2
1528444865052594,-1,0,0,0,0,-2,-1,-1
1528444865074513,-1,-1,-1,-2,1,-2,0,-1
1528444865074513,-2,-2,-2,-3,0,0,-2,-1
1528444865075509,-1,-1,0,1,-1,-2,-1,-1
1528444865075509,-1,-2,-1,0,0,1,0,-1
1528444865088754,-1,0,-2,0,-2,-1,-2,0
1528444865088754,0,1,1,-1,-2,0,0,-1
1528444865096675,-2,0,-2,-2,-1,0,0,-2
1528444865096675,-1,0,-1,-4,0,-1,-2,-1
1528444865111694,-1,-3,-1,-1,0,-3,-1,-2
1528444865111694,-1,-1,-3,-1,0,-3,-1,-1
1528444865111694,-1,-2,-2,0,-1,-3,-2,-1
1528444865111694,-1,0,-1,0,-2,-2,0,-3
1528444865135227,-1,-1,-2,-2,-1,-1,0,0
1528444865135227,0,-1,-2,-3,-1,-1,-2,-3
1528444865135227,-1,0,-1,-2,-2,-1,-1,-2
1528444865135227,-2,-1,-1,-2,-3,-1,0,-1
1528444865157441,-1,-1,-2,-1,-1,0,-3,-1
1528444865157441,-2,-1,1,-1,-1,-1,0,1
1528444865158094,0,0,-2,-2,0,-1,-1,-1
1528444865158094,-6,-8,-1,-1,1,-3,-1,-1
1528444865172088,6,9,-1,-1,-1,-2,-1,-1
1528444865172088,-1,-2,0,0,-1,0,-1,-1
1528444865172088,-2,-1,-1,1,-1,1,-1,0
1528444865172088,-1,-1,-1,-1,0,0,0,-1
1528444865202630,-3,-4,-1,0,-2,-2,-1,-1
1528444865202630,-2,0,-4,-1,1,-1,-2,0
1528444865203286,0,-2,0,-1,-2,-1,-1,-2
1528444865203286,0,0,-2,1,-2,-1,-1,0
1528444865208538,-1,-2,0,-1,-3,0,-1,-1
1528444865208538,0,1,-1,0,-2,-2,-1,-2
1528444865216272,-3,-1,-4,-1,-1,-1,-1,-1
1528444865216272,0,0,-1,-1,-1,-1,0,-1
1528444865231780,-2,-1,-2,-2,-1,-1,-2,-1
1528444865231780,-3,-2,-1,-1,-3,-3,-2,0
1528444865232768,1,0,-2,-1,0,-2,0,-2
1528444865232768,0,-2,-3,0,0,0,-1,0
1528444865254699,-2,-2,-2,-1,-1,-1,-1,-1
1528444865254699,0,-1,-1,0,1,-2,0,-2
1528444865255464,-1,-1,2,-1,-2,-2,-1,-1
1528444865255464,0,2,1,1,-1,1,-1,-1
1528444865268432,-2,-3,-3,-1,-1,0,0,-2
1528444865268432,0,-3,-3,-3,0,-1,-1,-1
1528444865276517,0,-1,-2,1,-1,-2,-1,-2
1528444865276517,1,-1,-2,-2,-1,-2,0,-1
1528444865291677,-2,-1,0,-2,-1,-1,-2,-2
1528444865291677,-1,-1,-2,-1,-1,-1,-1,0
1528444865292366,-1,-1,-1,0,-1,-1,-2,-1
1528444865292366,-1,0,-1,-2,-1,-1,-3,1
1528444865313573,0,-2,-1,-1,-3,-2,0,-2
1528444865313573,-1,0,-1,-1,-2,1,-1,-1
1528444865322286,-2,-3,-2,-3,1,-1,0,0
1528444865322286,-2,-1,1,-2,0,-2,-1,0
1528444865337073,-1,-1,-2,0,0,-1,-1,-3
1528444865337073,-1,-1,0,-2,0,-1,-1,-1
1528444865338809,0,-1,-3,-1,-1,-1,-1,-1
1528444865338809,-2,-1,-1,0,0,0,0,-2
1528444865359754,-2,-1,0,-1,-1,-2,-1,-1
1528444865359754,-1,-1,-1,-1,-1,0,1,0
1528444865360751,-2,-2,-2,-1,-2,0,-1,-1
1528444865360751,-2,-1,-1,0,-3,-1,0,0
1528444865373717,-2,-2,0,-1,1,0,-2,0
1528444865373717,-2,0,0,0,-1,-1,-2,-1
1528444865389674,1,-2,1,0,0,0,-2,-1
1528444865389674,-2,0,-2,-2,-1,-3,-2,-3
1528444865397700,0,-1,-1,0,-1,-1,-1,-1
1528444865397700,-2,0,0,0,0,1,0,-1
1528444865398702,-1,0,-3,-3,-2,-1,-1,-1
1528444865398702,1,-1,-2,0,-1,-1,-1,-2
1528444865419645,0,0,-1,-1,-2,-2,0,1
1528444865419645,-1,-3,-1,1,0,-2,-1,-2
1528444865421640,-2,-1,-2,-5,-5,-1,-2,-1
1528444865421640,0,-1,-1,-1,0,0,0,0
1528444865434064,-3,-2,-1,-2,-2,-1,0,-1
1528444865434064,0,-1,-2,-3,-2,-1,-1,-1
1528444865442058,0,0,1,-1,-1,-1,-2,-1
1528444865442058,-1,-1,-1,-1,-1,0,-1,0
1528444865457005,-1,0,-2,-5,-1,1,-1,-1
1528444865457005,0,0,0,1,0,-1,-2,-3
1528444865459007,0,1,-1,0,-2,-1,-2,-2
1528444865459007,0,-2,-1,-1,0,-3,-1,-2
1528444865479944,-1,0,-1,0,-1,-1,1,0
1528444865479944,-3,0,-3,-2,-3,-2,-1,-1
1528444865480941,-1,-2,-3,1,1,-1,0,0
1528444865480941,0,0,-2,-2,0,1,-1,-2
1528444865492921,0,-2,0,1,-1,-2,-1,-2
1528444865492921,-1,0,-2,-4,-5,-2,-1,0
1528444865501885,0,-2,-1,0,0,2,-1,0
1528444865501885,0,0,-2,-2,1,1,-1,0
1528444865516845,1,-3,-2,2,0,-2,-4,-2
1528444865516845,1,-2,0,-1,-2,-2,-1,0
1528444865518840,-1,-1,-1,0,-2,-4,0,-2
1528444865518840,-2,-2,-2,-1,-2,-3,-2,-1
1528444865539783,-4,-1,0,1,0,-1,-2,-1
1528444865539783,0,-2,0,0,1,-1,-1,0
1528444865540781,-1,-2,-1,0,-2,-3,0,0
1528444865540781,0,0,0,-1,-1,0,-2,-1
1528444865552749,-1,-1,0,0,-1,-1,-1,0
1528444865552749,0,-3,-3,-1,-1,-2,-1,-2
1528444865562722,-1,-1,-2,-3,0,-1,-1,-2
1528444865562722,0,0,-1,1,-3,0,0,0
1528444865576691,-3,-1,0,-2,-2,-2,-2,-3
1528444865576691,-2,0,-1,-3,0,-1,-2,-1
1528444865578692,0,-1,-1,0,-1,1,-1,0
1528444865578692,-2,-2,-3,-1,-1,-3,-1,-1
1528444865599624,1,0,-1,-2,-2,-2,-2,0
1528444865599624,0,-2,-2,-1,0,2,-1,-2
1528444865601618,-3,0,-1,0,-1,-2,1,-1
1528444865601618,-2,-2,-2,-2,0,-1,-1,-2
1528444865613586,0,-1,-1,-3,-1,-1,1,-1
1528444865613586,-1,-3,0,0,-2,0,-1,-2
1528444865622562,3,4,-1,0,-2,-1,-2,-1
1528444865622562,-1,0,0,-1,-2,-2,-1,-1
1528444865636525,0,-2,-1,-1,0,0,1,0
1528444865636525,-2,0,-1,0,-2,0,-1,0
1528444865643511,-2,-2,-1,-2,0,0,-1,-3
1528444865643511,-2,-2,-1,-1,-2,-1,-2,-1
1528444865659464,-1,-1,-2,-1,0,-1,0,-2
1528444865659464,-1,0,0,-1,-1,-2,0,-1
1528444865661459,-1,-1,-1,-1,-2,-1,-1,-2
1528444865661459,0,-2,-1,0,-1,-1,-1,-1
1528444865673427,0,-1,3,-1,-1,-1,-1,-1
1528444865673427,-1,0,-2,0,0,1,-2,-1
1528444865682402,-3,-3,-1,-1,-1,-2,-2,-1
1528444865682402,1,0,-1,-2,0,0,0,1
1528444865697413,0,-3,-3,-1,-3,1,1,0
1528444865697413,-1,-1,0,-2,-1,-1,0,-2
1528444865698400,-1,-3,-1,-1,-1,-2,-2,0
1528444865698400,-4,-1,-3,0,-2,-1,-1,-1
1528444865719359,-1,0,-2,-2,0,-1,-1,-1
1528444865719359,0,-1,-2,2,-2,1,0,0
1528444865721304,-1,-3,0,-1,0,0,1,0
1528444865721304,1,-2,-1,-2,-1,-2,-2,-1
1528444865733324,-1,1,-1,-1,-1,-3,-3,-2
1528444865733324,0,-2,-3,-3,-3,0,-2,0
1528444865742245,-2,0,-1,0,-1,-1,0,0
1528444865742245,0,-2,0,-1,-3,-2,-2,-2
1528444865757240,-1,-1,0,-1,-1,-1,-1,0
1528444865757240,-1,-1,-1,-1,0,-1,-1,-1
1528444865763190,-1,-1,-1,-2,-1,-1,-1,1
1528444865763190,-1,0,-1,-1,-2,-1,-1,0
1528444865780310,-1,-1,0,-1,-1,0,-2,-2
1528444865780310,-2,-1,-1,0,-1,-3,-2,-1
1528444865781159,0,-1,-1,-2,-3,-2,0,-1
1528444865781159,-3,0,1,2,0,0,1,-3
1528444865793107,-2,-1,0,-1,-1,-1,-1,1
1528444865793107,-1,-1,-1,0,0,-2,-2,-1
1528444865802139,-3,-1,-1,-3,-2,-2,-1,-1
1528444865802139,0,-1,-1,-1,-1,-1,-2,-2
1528444865817601,-2,-2,0,1,-1,-2,-1,-1
1528444865817601,-1,-1,-2,-3,-1,0,0,0
1528444865818580,-1,-1,0,-1,0,1,-1,-3
1528444865818580,0,0,0,-1,-1,0,-1,1
1528444865840294,0,0,-1,-1,-1,0,-1,-1
1528444865840294,-1,-2,1,-3,-2,-3,-1,0
1528444865841285,-2,-2,-1,0,-2,-1,0,-2
1528444865841285,0,-2,-1,-2,-2,1,-3,0
1528444865853253,-1,-2,-1,-1,-2,-2,-1,-2
1528444865853253,-2,-1,-2,-1,-1,0,0,0
1528444865863226,1,-1,0,1,-1,0,-1,1
1528444865863226,-2,-1,-2,-1,0,-3,0,0
1528444865876415,-2,0,0,-1,-2,-2,0,0
1528444865876415,-1,0,-1,-1,0,-1,-2,-3
1528444865883580,-1,0,-1,0,-2,-1,-1,-1
1528444865883580,0,-1,-2,1,-2,0,-1,-2
1528444865900367,-3,-2,-2,-2,-1,1,-2,-2
1528444865900367,-2,-1,-3,2,-1,-2,-1,-2
1528444865901126,-2,-1,-2,-2,0,0,0,-1
1528444865901126,-1,-1,0,-1,-1,-1,-1,-1
1528444865913093,0,0,-1,-1,0,0,-1,0
1528444865913093,-1,-3,-1,-2,-3,-2,-1,-2
1528444865922737,-1,-1,-1,-1,-1,-1,-2,0
1528444865922737,0,-2,-1,-2,0,0,-2,-1
1528444865936952,-2,-1,-3,-1,-1,-2,-3,-1
1528444865936952,-1,2,0,-2,-2,0,-2,-1
1528444865944727,-2,-2,-1,-1,0,1,-1,-1
1528444865944727,-1,0,-1,-1,-1,-3,-1,-2
1528444865959716,1,-3,-1,1,-3,0,0,-1
1528444865959716,-1,1,1,0,1,-1,0,0
1528444865961654,1,-1,-2,-1,-1,-1,-2,-2
1528444865961654,-2,-1,-1,-1,-1,-1,-1,-3
1528444865981228,-2,0,-3,-2,-1,-1,-1,-1
1528444865981228,-1,-3,-1,-1,-3,0,0,-3
1528444865989564,-1,0,0,1,0,-1,0,0
1528444865989564,-1,0,-1,0,-1,-2,-2,1
1528444865996902,-3,-1,-1,-2,-1,-2,-2,-2
1528444865996902,-2,-1,-2,-2,1,-2,-1,0
1528444866003903,0,0,-3,-2,-2,-1,-1,-2
1528444866003903,-1,-2,-1,-2,-2,0,0,-2
1528444866020312,-1,1,0,0,1,0,-2,-1
1528444866020312,-1,0,0,0,-2,-1,-2,0
1528444866021281,-1,-1,-1,-1,-2,-1,1,0
1528444866021281,-2,-3,0,0,0,0,0,0
1528444866042430,-1,-1,-1,-2,-1,0,-1,-1
1528444866042430,1,0,0,-1,0,-1,-1,-1
1528444866043213,-2,-1,-1,-1,0,0,-1,-1
1528444866043213,-1,-1,-2,0,-2,-1,-1,-1
1528444866057256,0,0,-1,-1,-1,-1,0,-1
1528444866057256,-1,-1,-2,-2,-2,-1,0,1
1528444866063485,-1,0,-2,0,-2,-2,0,-3
1528444866063485,-1,-1,-1,-1,-1,0,0,-1
1528444866080338,-1,-1,-1,-1,-2,-2,-1,-1
1528444866080338,-3,-1,-2,-1,-2,-2,-1,0
1528444866081093,-1,-1,-2,-2,0,-1,-3,-1
1528444866081093,-1,-1,-1,-1,-1,-1,-1,-1
1528444866102600,-1,-2,-2,0,-3,0,0,-3
1528444866102600,0,-1,-1,-1,-3,1,-1,-1
1528444866103333,-1,0,0,-3,-3,-1,-2,0
1528444866103333,-1,-2,-2,-2,-1,-1,-1,-1
1528444866115714,-2,-1,-2,-2,0,-1,0,-1
1528444866115714,-2,-2,0,-1,-1,-1,0,0
1528444866124610,-1,-1,-1,0,1,-1,0,0
1528444866124610,-1,0,-1,-1,0,-1,-1,-1
1528444866140443,-1,-2,-1,0,0,-2,0,0
1528444866140443,0,-1,-2,-2,-1,-2,-2,-2
1528444866141238,0,-1,-2,-1,-2,0,0,-2
1528444866141238,0,1,-2,0,-2,-2,-1,-2
1528444866162825,-2,0,-2,0,0,0,-1,0
1528444866162825,-1,-1,0,-1,-2,-1,0,0
1528444866163481,0,-2,-2,-1,-3,-3,0,-1
1528444866163481,-1,-2,0,-1,0,-1,0,-1
1528444866176446,-2,-1,-1,-2,-2,-1,-1,-1
1528444866176446,-2,-1,0,-1,-2,0,-1,0
1528444866183427,0,-2,-1,-1,1,-1,-1,0
1528444866183427,-1,-2,-1,0,0,-1,-1,-1
1528444866200385,-1,-1,-2,1,-1,-1,-1,-1
1528444866200385,-2,-1,-2,-2,-1,-1,0,-2
1528444866201380,-1,-1,-1,-1,-1,-2,0,0
1528444866201380,-1,-1,-1,-2,-2,-1,-1,-1
1528444866222489,-1,0,-1,1,0,-2,-1,0
1528444866222489,0,-2,-1,0,-2,0,-1,-1
1528444866223751,-2,-3,-1,0,-3,-2,0,-2
1528444866223751,-1,0,-3,-2,0,-1,-1,-1
1528444866235720,0,-2,1,-3,-1,0,-1,0
1528444866235720,-1,-2,-2,-2,-3,-1,-1,-2
1528444866244666,-1,-1,0,0,0,0,-3,1
1528444866244666,-1,-1,-1,1,-2,-3,-2,-1
1528444866259639,0,-1,1,-1,-3,-2,0,-1
1528444866259639,0,0,-1,1,-1,-2,-1,-1
1528444866261387,-1,-1,0,-2,-1,-2,-1,-3
1528444866261387,-3,-4,-2,-1,0,0,0,-1
1528444866282816,1,-1,-1,-1,0,-2,-1,-1
1528444866282816,-1,-2,-2,-1,1,-2,-1,-1
1528444866283646,-1,0,-3,0,-2,0,0,-1
1528444866283646,-1,0,1,1,-1,0,-1,-1
1528444866295634,-1,-2,-1,-2,-1,0,-1,0
1528444866295634,0,-2,-1,0,-2,-2,-2,-2
1528444866310576,-2,-2,-1,-1,-1,-1,0,-2
1528444866310576,1,-1,-2,-1,-1,-1,-1,-2
1528444866319551,-1,-1,-1,-1,-2,-2,-1,-2
1528444866319551,1,-1,1,1,0,-1,1,-1
1528444866321546,-1,-2,0,-1,-1,-1,-1,-2
1528444866321546,-1,-2,0,-4,-1,-1,-1,-1
1528444866342761,-1,-1,0,-1,-1,1,0,-1
1528444866342761,-1,-2,-3,-2,-1,0,-1,-2
1528444866343487,0,-1,-2,-1,-1,0,-2,0
1528444866343487,0,0,-1,-2,-2,0,-1,0
1528444866356705,-2,-1,-3,-1,-1,-2,-2,-2
1528444866356705,-1,0,1,-2,-2,-1,-1,-1
1528444866363686,1,-1,2,1,-1,-1,1,1
1528444866363686,-1,0,-1,0,-2,-2,-1,0
1528444866379654,-1,-1,-2,-2,-1,-1,-1,1
1528444866379654,-1,0,-2,0,0,-2,-2,-1
1528444866381416,-2,0,1,-3,0,0,-1,0
1528444866381416,0,0,-1,-1,-2,0,-1,0
1528444866402827,-1,-1,-2,-3,-1,-3,-2,-2
1528444866402827,1,0,-1,-2,0,-1,0,-3
1528444866403654,0,-2,-2,-3,-1,-1,0,-1
1528444866403654,-2,-2,-1,1,-2,-1,-2,-1
1528444866416914,-1,-1,-1,0,1,-1,-1,-3
1528444866416914,-2,0,-1,-2,0,-2,-1,-1
1528444866423997,-1,-3,-3,-2,-2,-2,-2,-2
1528444866423997,0,1,0,0,-1,-2,-1,-1
1528444866440403,-1,-1,-1,0,-3,0,1,-1
1528444866440403,-2,-2,0,-1,-1,0,-2,-1
1528444866441160,0,-1,0,0,0,-1,1,0
1528444866441160,0,0,-2,-3,-2,-1,0,0
1528444866462429,0,-2,-2,0,-2,-1,-2,0
1528444866462429,-2,0,-1,-1,-1,-1,0,0
1528444866463382,0,-2,-1,-2,0,-1,-4,-3
1528444866463382,-1,-1,-1,-1,-1,0,-2,-1
1528444866476365,-1,0,-2,-3,2,1,-1,-1
1528444866476365,-1,-1,-2,0,-2,-1,-2,-2
1528444866484685,-2,-1,-1,1,-1,0,-2,-1
1528444866484685,-2,-1,0,0,-2,-1,0,-1
1528444866499912,-1,-1,-1,0,-1,0,-1,-1
1528444866499912,0,-1,0,-1,-2,0,-1,0
1528444866501896,1,-1,-1,-1,-2,0,-1,-1
1528444866501896,-1,-3,-2,-1,-1,0,-1,-2
1528444866522788,-1,1,0,-1,-1,-1,-1,-1
1528444866522788,-1,-1,0,-2,-1,-3,-1,-2
1528444866523639,-1,1,0,-1,-1,-3,-1,0
1528444866523639,0,-1,-1,-3,0,-1,0,-1
1528444866535800,0,-3,-2,-2,-1,-1,0,-1
1528444866535800,-2,-1,-2,0,-1,-2,1,-2
1528444866544542,0,-1,-1,0,-1,-1,0,0
1528444866544542,-1,-1,-2,-1,-1,-2,-1,-2
1528444866559593,-2,0,0,0,-1,0,-1,-1
1528444866559593,-2,-1,-3,-3,-2,1,0,-1
1528444866561514,1,-1,-2,-2,-3,-1,-1,0
1528444866561514,0,-2,0,-1,0,0,0,-1
1528444866582922,0,-1,-1,-1,-1,-2,-2,-1
1528444866582922,-1,0,-2,0,0,0,0,-1
1528444866584997,-1,0,-2,0,-2,-2,-2,1
1528444866584997,0,-1,-2,-1,-3,0,0,-1
1528444866595942,-1,0,-1,-2,-2,-2,-2,-1
1528444866595942,1,0,-1,0,0,-1,-2,-1
1528444866604680,-3,-1,-2,-2,1,0,-1,-4
1528444866604680,-2,-2,0,-1,-3,-1,-1,0
1528444866620331,0,0,1,-1,-1,-2,-1,-1
1528444866620331,-1,0,-1,-1,-3,-2,-2,-2
1528444866622010,0,-1,-3,-2,-2,-2,-2,-1
1528444866622010,-2,-2,-2,0,0,-2,-1,-1
1528444866642540,0,-1,-2,-1,-1,0,-1,-1
1528444866642540,0,-1,1,-2,-3,0,-1,-1
1528444866643254,-1,-1,-1,-1,-1,-1,0,-3
1528444866643254,-1,-1,-1,0,-1,-3,-1,-1
1528444866656452,-1,-3,-1,-1,1,-1,-1,-2
1528444866656452,-2,-2,-1,-2,-2,0,-1,0
1528444866665157,0,-2,0,1,-1,0,0,-2
1528444866665157,1,1,-1,-1,-2,-1,-2,-1
1528444866680315,-1,-2,-2,-1,-2,0,0,0
1528444866680315,-2,-2,-1,-1,-1,-1,-1,0
1528444866681114,0,-2,2,-1,0,0,-1,0
1528444866681114,-1,0,-4,-1,-1,-2,-1,-1
1528444866702058,-1,-1,-2,1,-1,-1,-1,-1
1528444866702058,-1,1,-2,-2,1,-2,0,-1
1528444866704132,-1,-1,-3,0,-3,0,-1,-2
1528444866704132,-1,-1,1,0,-1,1,-1,-1
1528444866716269,-1,-1,-2,-1,-2,-1,0,0
1528444866716269,0,-2,0,0,1,-1,1,-1
1528444866725398,0,-2,0,-2,0,-1,-1,0
1528444866725398,-1,0,-1,-2,-1,-1,-1,-2
1528444866739657,-2,-1,-3,0,-3,-2,-1,-1
1528444866739657,-3,-1,-2,0,-2,-1,-1,0
1528444866746487,-1,0,-1,-3,-3,-3,-2,-2
1528444866746487,-1,-3,-1,0,1,-3,0,-1
1528444866762690,0,-3,-1,-1,0,-1,-2,-1
1528444866762690,0,-1,0,-1,0,0,0,-1
1528444866763444,-1,-1,-2,0,-1,-2,-2,-1
1528444866763444,-1,-1,-2,0,-1,-2,0,-2
1528444866775655,-1,-1,-1,-2,-1,-1,-1,0
1528444866775655,-1,-2,0,-1,-1,-1,-3,-1
1528444866784669,-1,-1,0,-1,0,-1,-1,-1
1528444866784669,-1,-2,-1,0,-1,-1,-1,-2
1528444866800158,0,-1,0,-1,-1,0,0,0
1528444866800158,0,-1,-2,-1,-2,0,0,0
1528444866801911,-2,-3,1,-1,-1,-1,-1,-1
1528444866801911,0,-2,-3,0,-1,-1,-1,-2
1528444866822122,-2,1,0,-1,-1,-1,-1,-2
1528444866822122,0,-2,-2,-2,-1,1,-2,-1
1528444866823852,0,-2,-1,-2,-1,-2,0,0
1528444866823852,-2,0,-1,-1,-1,0,-2,-1
1528444866836090,-2,0,1,0,-2,1,-2,-1
1528444866836090,1,-1,-1,-1,0,-2,-1,-2
1528444866844797,-2,-1,-2,0,-1,-1,0,-2
1528444866844797,-3,-1,-2,-1,-3,0,-1,0
1528444866867809,-2,-2,-2,-1,0,-2,-1,-1
1528444866867809,0,0,-2,-2,-1,-2,0,-1
1528444866868732,-2,-1,-2,0,-1,-1,0,-2
1528444866868732,-1,-1,-2,-3,0,0,0,-1
1528444866882345,-1,-2,0,-2,-1,-2,-2,0
1528444866882345,-1,0,-1,-1,-2,-2,-2,0
1528444866884023,1,0,-1,-2,-1,1,-1,1
1528444866884023,-2,-1,0,-1,-1,0,-1,0
1528444866905219,-1,-2,0,-1,-1,0,0,-2
1528444866905219,-1,-1,-1,-1,-2,-1,-1,-3
1528444866907017,-1,-1,-3,-1,-2,0,1,-1
1528444866907017,0,0,-1,-1,0,-1,-3,-1
1528444866918936,1,-2,-1,-1,-1,-1,0,1
1528444866918936,0,-1,0,0,-2,-1,0,-1
1528444866926165,-1,-1,-2,0,-1,-1,-1,-1
1528444866926165,0,-1,-2,1,-1,-2,-2,-2
1528444866942130,-3,0,-2,-1,-1,-2,-2,-3
1528444866942130,0,-1,0,0,0,-3,-1,0
1528444866943863,-1,0,0,0,0,-2,-1,0
1528444866943863,0,0,0,-1,-3,-2,-1,-1
1528444866964595,-2,0,-1,-1,-1,-1,-1,-1
1528444866964595,-3,0,-3,-2,-1,-2,-1,0
1528444866966843,-1,-1,-1,-1,-1,-2,-2,0
1528444866966843,-2,-1,-1,-3,-1,-1,0,-1
1528444866979797,1,-2,-1,-1,-3,0,0,-3
1528444866979797,-1,-1,0,-3,-2,-1,-1,1
1528444866981552,-1,-2,-3,-1,0,-2,-2,-1
1528444866981552,0,1,-2,0,0,-1,0,0
1528444867002727,-2,-1,-2,-1,-1,-1,0,-1
1528444867002727,-1,-1,-1,0,1,-1,-2,-1
1528444867003542,-1,-1,0,-1,0,-1,-1,-1
1528444867003542,-1,-3,-1,-2,-1,-1,0,1
1528444867025112,0,0,-2,-1,-1,-2,-1,-1
1528444867025112,-1,-1,1,0,0,0,-1,0
1528444867026113,-2,-1,-1,-3,-2,-2,0,-1
1528444867026113,0,-2,0,-1,-2,0,-1,-2
1528444867040317,-1,-2,-2,-1,0,0,-2,-2
1528444867040317,-2,-1,-1,-1,-1,0,-3,-3
1528444867041103,-1,0,-1,-2,-1,0,0,-2
1528444867041103,-1,0,-1,-2,-3,-1,0,0
1528444867062767,1,-2,-2,1,-2,-2,0,0
1528444867062767,-1,-1,-1,0,-2,-1,0,-1
1528444867063493,0,-1,-1,-1,-1,-1,-2,1
1528444867063493,-1,-1,-2,-1,1,-1,-2,1
1528444867084702,-1,1,-1,-2,-1,-2,0,0
1528444867084702,-2,-1,-1,-1,-2,-1,0,-1
1528444867086432,0,-1,-1,0,-4,-3,0,-3
1528444867086432,0,0,-1,-1,-2,0,0,-2
