timestamp,emg1,emg2,emg3,emg4,emg5,emg6,emg7,emg8
1528189229595255,-1,0,-1,0,0,0,1,-1
1528189229595255,0,1,-1,-2,-1,-1,-1,-1
1528189229605229,0,-3,-3,-1,0,-2,-1,-1
1528189229605229,0,-2,-1,-2,0,-2,-1,-1
1528189229619192,-1,-1,0,0,0,-1,-2,-2
1528189229619192,0,-1,-1,-1,-2,-1,-1,-1
1528189229621193,-1,1,-1,-2,-2,-1,-1,-2
1528189229621193,-2,-1,0,-1,-1,-1,-1,-2
1528189229642129,-2,-1,-1,-1,-2,-2,0,0
1528189229642129,0,0,-4,0,0,-1,-1,-1
1528189229644124,0,-1,-1,0,1,-1,-1,-1
1528189229644124,0,-1,-1,0,0,0,0,0
1528189229665078,-1,-2,-1,0,0,-1,-1,1
1528189229665078,-1,0,1,-1,0,-1,-1,-1
1528189229666064,-1,-1,-3,-1,0,-1,-1,-2
1528189229666064,0,0,-2,-1,1,0,-3,-3
1528189229687008,1,-1,-1,0,1,-2,-2,-1
1528189229687008,-2,-2,0,-2,-1,0,-2,-2
1528189229689004,-2,1,-1,-2,1,-2,-1,-1
1528189229689004,-1,1,-1,-2,-2,0,0,0
1528189229709946,-1,-1,-1,-2,-3,-2,0,1
1528189229709946,-2,-1,0,0,-2,-1,-3,0
1528189229710959,-1,-1,0,-1,0,0,-2,-1
1528189229710959,-1,-3,-2,-1,-2,0,-1,-2
1528189229715948,0,-1,-1,-1,-1,1,-2,-1
1528189229715948,0,-1,-1,0,0,-2,0,-1
1528189229741861,0,1,-1,-1,-3,0,0,0
1528189229741861,-1,-2,1,-1,-2,-2,-2,0
1528189229742858,-1,-2,-2,0,0,0,-1,-2
1528189229742858,-2,-2,-1,0,-1,0,-1,-3
1528189229752833,-2,1,-1,-1,0,-2,0,-1
1528189229752833,-1,0,-1,-1,0,-1,-1,-1
1528189229761808,-2,-1,-1,-1,-2,0,-1,-2
1528189229761808,0,-1,-1,-2,-1,-3,1,0
1528189229767793,0,-4,0,-1,0,-2,-2,-2
1528189229767793,-2,-1,-1,0,-1,0,0,0
1528189229775772,-1,-1,-1,0,0,-1,-1,0
1528189229775772,0,-1,-1,-1,0,-3,-1,-1
1528189229784747,-1,-2,-2,-1,0,1,-1,-1
1528189229784747,-1,-2,-1,-2,0,-1,-1,-1
1528189229799708,0,-1,-3,-1,-2,0,-2,-1
1528189229799708,-2,-1,0,0,-2,0,-1,-2
1528189229801703,-2,-2,-1,-2,-2,-2,0,0
1528189229801703,1,0,-1,-1,-1,0,-1,-1
1528189229829627,0,-1,-2,-2,-1,-2,0,-1
1528189229829627,-1,-2,0,0,0,0,-2,-1
1528189229831682,-2,-2,-1,-1,-2,0,-2,0
1528189229831682,0,0,-2,-2,0,-1,-1,-2
1528189229835647,-1,-2,0,0,-2,-2,-2,-2
1528189229835647,-1,0,-1,-1,-1,-1,-1,-2
1528189229852592,-2,-1,1,0,1,-1,-2,-1
1528189229852592,-1,-2,-2,0,-1,-3,-1,0
1528189229859576,-1,-1,-2,-2,0,-2,-1,0
1528189229859576,-3,-1,-1,-1,-2,-3,-1,-1
1528189229861571,-1,-2,-1,-1,-3,0,-3,-1
1528189229861571,-1,-1,-1,-1,-1,-1,-1,-2
1528189229882487,-2,-2,-2,-1,-1,0,0,-2
1528189229882487,-1,0,0,-2,-1,0,0,0
1528189229883483,0,0,0,-1,0,-1,1,-1
1528189229883483,-1,-1,-1,0,0,-2,1,-2
1528189229895453,-1,0,0,-1,-1,-1,-3,0
1528189229895453,-1,1,-1,-1,0,0,-2,-2
1528189229921382,0,0,-1,-2,-1,-1,-1,0
1528189229921382,-1,-1,-1,-1,-2,-2,0,0
1528189229922400,0,0,-1,-2,-1,-2,1,-2
1528189229922400,0,-2,-1,-2,-1,-1,-1,1
1528189229925371,-1,-1,1,0,0,1,0,-1
1528189229925371,-1,0,0,0,-1,-1,0,0
1528189229943323,-2,0,0,-1,-2,0,0,1
1528189229943323,0,-1,0,0,-3,-1,-3,0
1528189229944474,-1,-1,-2,-2,0,0,-2,-1
1528189229944474,-1,-1,-1,-1,-1,0,-1,0
1528189229964523,-2,1,-1,-1,0,-1,-1,0
1528189229964523,-2,-2,-2,-1,-2,0,0,0
1528189229964523,-2,-4,-1,-1,-1,-1,-2,0
1528189229964523,0,-2,-2,-1,-1,1,-1,1
1528189229988231,1,-1,-2,-1,0,-2,-1,-2
1528189229988231,0,-2,-2,-1,0,1,0,0
1528189229989201,0,-1,-1,-2,-2,-2,-1,-1
1528189229989201,0,-1,-2,-2,-1,0,-2,-2
1528189230002166,-3,-1,-1,-2,-2,0,0,-3
1528189230002166,-1,0,0,0,-1,-2,0,-1
1528189230009430,0,0,-1,-1,0,-3,0,-1
1528189230009430,-1,-1,1,-1,1,-1,-2,-1
1528189230024425,1,0,1,0,-3,-1,-3,0
1528189230024425,-3,-4,-2,-2,-1,-1,-1,-1
1528189230025105,-1,-1,-1,0,0,-1,0,-1
1528189230025105,-1,-2,-2,-1,-1,-2,0,-1
1528189230039616,-3,0,-1,-2,-1,-1,-1,-1
1528189230039616,-1,-1,-2,-1,-3,-1,-1,-1
1528189230039616,-2,-2,-1,-1,-2,0,-1,-1
1528189230039616,-1,0,-2,-2,-1,0,0,-1
1528189230061331,-1,-2,-3,-1,0,0,-1,-1
1528189230061331,-2,1,-1,-2,-1,-2,1,-2
1528189230062312,-2,0,-1,1,-1,1,-1,-2
1528189230062312,0,-2,0,-2,-1,-3,-1,1
1528189230108584,-1,-2,-1,1,-1,1,-1,0
1528189230108584,0,-1,-1,0,-1,1,-2,0
1528189230109186,0,0,-2,0,-1,-1,0,0
1528189230109186,0,-1,-1,0,-1,-1,-1,-2
1528189230111220,-1,-2,-1,-1,-1,-2,-1,0
1528189230111220,-2,-2,-1,0,-2,-1,-3,-1
1528189230114412,0,-2,-2,-1,-2,-1,-3,-1
1528189230114412,-1,0,-1,-1,-3,0,-2,-2
1528189230130298,-2,-1,0,-1,1,-1,-1,-1
1528189230130298,-1,0,-2,-1,-1,-2,-1,-1
1528189230130298,0,-1,-1,-1,-1,-1,-1,-2
1528189230130298,-2,0,0,-1,-1,-1,-1,-1
1528189230152309,-1,0,-1,0,-1,0,-2,-2
1528189230152309,-1,-1,1,0,-1,-1,0,-2
1528189230153068,0,-1,-1,0,-1,-2,0,-3
1528189230153068,0,0,-1,-1,-1,-1,-1,-2
1528189230175013,-2,-2,0,0,1,0,0,-2
1528189230175013,-1,-2,-2,-1,-1,-1,0,-1
1528189230175013,-1,-1,-1,-1,-1,-2,-3,0
1528189230175013,-1,0,0,0,-2,-2,-1,-1
1528189230182261,-1,-1,-2,-1,-1,0,-2,-1
1528189230182261,-1,1,-1,-2,0,0,-3,-1
1528189230183244,-2,-1,-2,-1,-1,-1,-1,0
1528189230183244,-2,-2,-1,-1,-1,0,0,0
1528189230204728,0,-1,-1,-1,-1,-2,-1,-1
1528189230204728,1,-1,0,-1,-1,-2,-1,-1
1528189230204728,0,-2,-1,-1,-2,-1,-2,-1
1528189230204728,0,-2,-2,0,-1,-2,-1,0
1528189230220539,-1,-2,-1,0,-2,-1,-1,-2
1528189230220539,-2,-1,0,-1,-2,0,-1,-1
1528189230221537,0,0,0,1,-1,-2,-2,0
1528189230221537,0,-1,-1,-1,-1,0,1,-1
1528189230242934,1,0,-2,-2,-1,-1,-1,-1
1528189230242934,-2,1,-1,-2,-1,-2,0,0
1528189230243780,-2,-2,-2,-2,-1,-1,0,-1
1528189230243780,-2,-2,0,0,0,-2,-2,-1
1528189230264135,-1,-1,-1,-2,-1,-1,-2,0
1528189230264135,-1,1,-2,-2,-2,0,0,-2
1528189230264723,-1,-1,-1,-3,0,0,0,-2
1528189230264723,0,-1,0,0,-1,-1,-1,0
1528189230286712,-1,1,-1,-2,0,-2,0,0
1528189230286712,-1,-1,0,-1,-2,-1,-2,0
1528189230287666,-1,0,0,-1,-1,0,-1,-1
1528189230287666,-2,-2,-2,-2,-2,-1,0,0
1528189230301625,-2,-1,0,-1,-3,-1,-1,-3
1528189230301625,-2,-2,-1,-1,1,-1,-1,-2
1528189230309649,-1,-1,-1,-1,0,-1,-1,-1
1528189230309649,1,-2,-2,-1,-1,-1,-1,-2
1528189230324625,-1,-1,1,-1,-2,-2,-1,-1
1528189230324625,-1,-2,-1,-1,0,-2,-1,-1
1528189230324625,-1,0,0,-2,-1,0,-1,0
1528189230324625,0,1,0,-2,1,0,-1,-3
1528189230346926,-1,-1,-2,-1,-1,-3,0,-2
1528189230346926,-1,-1,-2,0,-1,0,-2,1
1528189230347503,-1,-2,-2,-3,0,-3,0,-2
1528189230347503,-2,-1,-1,0,-1,-2,-1,-1
1528189230361949,-1,-1,-3,0,-1,-1,-1,1
1528189230361949,-2,-2,0,0,-2,-2,-2,-2
1528189230369325,-2,-2,-1,-2,-2,0,0,0
1528189230369325,-3,0,-1,-1,0,1,-2,-3
1528189230384402,-2,-2,-3,-1,0,-1,0,1
1528189230384402,-1,-1,-2,-1,-3,-3,-1,-1
1528189230385053,-3,0,-2,1,-2,0,0,-2
1528189230385053,-2,0,0,-1,0,-1,-1,-1
1528189230406022,-2,-2,-2,-1,-1,-1,-1,-2
1528189230406022,-2,-1,-1,-2,-2,-2,0,-1
1528189230406994,1,-1,0,-1,0,0,-2,-2
1528189230406994,1,-1,-2,0,-2,-2,0,0
1528189230430200,1,1,-1,-1,-3,1,0,-1
1528189230430200,-1,0,-3,-1,0,0,0,-1
1528189230430856,-2,-2,-1,0,-2,-1,-1,0
1528189230430856,0,-2,-2,-1,-1,-1,0,1
1528189230444635,-1,-1,-1,0,1,-1,-2,-1
1528189230444635,2,-1,-1,-1,-1,-1,0,-2
1528189230444635,-1,-2,-1,0,-1,-2,-1,0
1528189230444635,1,-1,0,-1,0,-2,-1,-1
1528189230474470,-1,0,-1,-1,-2,-1,0,1
1528189230474470,-2,-2,-1,0,0,-3,-2,-1
1528189230498428,-1,-1,-1,1,0,-1,-1,-2
1528189230498428,-1,-3,0,-1,-3,-1,-2,0
1528189230500205,0,-2,0,-1,-2,-1,0,0
1528189230500205,-1,1,-1,-1,-1,-1,-2,1
1528189230501215,-1,-1,0,-1,-1,0,-1,-1
1528189230501215,0,-3,-2,-1,-2,-1,-1,-2
1528189230505174,-4,-1,-2,-1,0,-2,-2,-2
1528189230505174,-1,-1,-2,-2,0,-1,-1,-1
1528189230506171,0,-1,-1,0,-2,-2,-1,0
1528189230506171,-3,1,-1,0,-1,0,-1,-1
1528189230526354,0,-1,-1,-2,-2,-2,-2,-1
1528189230526354,0,-1,-1,-1,-1,-2,1,1
1528189230527115,-3,1,-2,0,-1,-2,0,-1
1528189230527115,-1,-1,-1,-1,-1,0,-2,-2
1528189230541077,1,-1,-1,-1,-2,0,-1,-3
1528189230541077,-1,-3,0,-1,0,-1,-2,-1
1528189230549056,-1,-1,0,-3,-2,-2,-1,-2
1528189230549056,-3,0,-1,-1,-1,-2,0,0
1528189230564281,-1,-2,-1,-1,-1,0,0,0
1528189230564281,1,1,-2,-1,-1,0,0,-3
1528189230565256,0,-3,0,-1,-2,-1,-2,-1
1528189230565256,-2,0,-1,0,-1,0,-2,0
1528189230587260,-1,-1,-2,-2,0,-2,0,-2
1528189230587260,-2,0,-1,0,-3,-1,-1,-2
1528189230587260,-2,-2,-2,-1,-2,-2,-1,-1
1528189230587260,-2,-1,0,-1,-2,0,-1,0
1528189230609958,-4,-1,-2,0,-3,-1,0,0
1528189230609958,-2,-1,-1,-1,-1,1,-1,-2
1528189230610508,-2,-1,-3,-1,0,-2,-1,-1
1528189230610508,1,-1,0,-1,0,-1,-1,-1
1528189230632454,-1,0,-1,-1,-1,-1,-2,-1
1528189230632454,1,-2,-1,-1,-2,-3,1,0
1528189230633672,1,-2,-2,0,0,0,-1,0
1528189230633672,-1,-2,-3,-2,0,-1,0,0
1528189230646761,-3,-4,0,-3,0,-1,-1,-3
1528189230646761,3,5,0,0,-1,0,-1,-1
1528189230647409,-2,0,0,-1,-1,0,-1,-1
1528189230647409,-2,-1,0,-2,-3,-1,-2,-3
1528189230662368,0,0,-2,-2,-2,-1,-1,-1
1528189230662368,-3,-2,-2,-1,0,-1,-1,-2
1528189230668901,-2,-5,-2,-1,-1,0,1,0
1528189230668901,4,3,0,-2,-2,-2,-1,-1
1528189230684650,0,-1,-1,-1,0,-1,-3,-1
1528189230684650,-2,-2,-1,-2,-1,0,-2,1
1528189230684650,-1,0,-1,0,-1,-1,0,-1
1528189230684650,-4,-3,-3,-2,-1,0,0,-1
1528189230706583,0,-1,-1,-1,0,-1,-1,-1
1528189230706583,-1,-2,0,0,-1,1,-1,-2
1528189230707782,-1,-1,-1,-1,-2,-1,0,-3
1528189230707782,-1,-1,0,-2,0,-1,-1,-2
1528189230730028,-1,0,-1,0,-1,-2,-1,-1
1528189230730028,-3,-2,-2,-1,-2,0,-1,0
1528189230731044,0,-1,1,-2,-1,0,-1,1
1528189230731044,-1,-1,-1,-1,-2,-3,1,-1
1528189230744772,-1,-2,0,0,-1,-1,-2,-2
1528189230744772,-1,-2,-1,-1,0,-2,-1,-1
1528189230744772,-1,-1,-2,-1,-1,-1,-2,-1
1528189230744772,-3,1,-1,-1,-1,0,-3,0
1528189230774872,0,1,-2,-1,-1,0,1,0
1528189230774872,-1,-2,-2,-1,-2,-1,-1,0
1528189230775644,1,-1,-2,-1,-3,-1,-1,-1
1528189230775644,-1,-2,-2,-1,-3,-1,-2,-1
1528189230780849,-1,-1,0,-1,-1,-2,0,-1
1528189230780849,-1,0,0,-1,-1,0,-1,-2
1528189230796808,0,-1,-2,0,-1,-1,0,0
1528189230796808,0,-1,-2,-1,-1,-1,-2,-2
1528189230803796,-1,0,0,-1,-1,-3,-1,-2
1528189230803796,0,-1,0,-1,-1,-2,-2,0
1528189230818576,-2,-2,-2,-2,0,0,0,0
1528189230818576,1,-1,0,0,-1,0,0,-1
1528189230842491,0,-2,-1,-2,-1,0,1,-1
1528189230842491,-1,-2,-1,0,0,-2,0,0
1528189230842491,-1,1,0,-2,0,-3,0,-2
1528189230842491,0,-1,-1,-2,-1,-2,0,1
1528189230849448,-1,-2,0,0,-2,-1,-1,-2
1528189230849448,-1,-2,-1,-1,-1,1,-1,-2
1528189230850445,-3,-2,0,-2,-1,0,-1,-1
1528189230850445,-2,-3,-2,-3,0,-2,-1,-2
1528189230864406,-1,-1,0,-1,-1,-1,-2,0
1528189230864406,1,-1,-2,-3,-2,-1,-2,-2
1528189230864406,-1,0,-1,-1,-3,-1,-1,-1
1528189230864406,-2,-1,-2,-1,-2,-2,-1,1
1528189230886347,-1,-1,-2,-2,0,0,-1,-2
1528189230886347,-1,-1,-1,-1,-1,-2,-1,-1
1528189230887352,-1,-1,-2,-1,-1,0,-1,-1
1528189230887352,1,-2,-2,1,-2,-2,-2,-2
1528189230909286,0,-2,-1,-3,-1,-1,-2,1
1528189230909286,-2,-2,-1,-3,-2,0,1,0
1528189230910283,1,-2,0,-1,-1,-1,0,0
1528189230910283,0,0,-1,0,-1,0,-2,-1
1528189230924248,-1,-1,0,-1,-1,-2,0,-1
1528189230924248,-2,-1,-1,-2,-1,-1,-2,-2
1528189230939206,-1,1,-1,-3,-2,0,0,-1
1528189230939206,-1,0,-1,-2,-2,0,-1,-2
1528189230946187,0,-2,-1,-1,-3,-1,-2,1
1528189230946187,-2,-1,-2,-1,-1,-1,-1,1
1528189230947201,-3,-1,0,2,-1,-1,-3,-1
1528189230947201,-1,-1,0,-1,0,-1,-1,0
1528189230986081,0,-1,-1,-2,-2,-1,-3,-3
1528189230986081,0,-3,-1,0,-2,-1,0,-1
1528189230987078,0,-1,-2,1,-1,-2,-1,-2
1528189230987078,-1,-1,-1,-2,0,-1,0,0
1528189230988089,-1,-2,-2,-2,-2,-1,-1,1
1528189230988089,-1,0,-1,-2,-1,-3,0,-2
1528189230999046,1,-1,-1,-1,-1,-1,-2,-1
1528189230999046,-2,0,-1,-1,-3,0,-1,-1
1528189231006028,-1,-2,-1,-1,-1,-1,-1,-1
1528189231006028,-1,0,-2,-1,0,-1,-1,-1
1528189231007025,2,-1,-2,-1,0,0,0,0
1528189231007025,-1,-1,0,-2,-1,-2,1,-1
1528189231029964,-1,0,-2,-1,-1,0,-2,1
1528189231029964,-1,-1,0,0,-1,0,-2,0
1528189231029964,-3,-1,-2,-1,-1,0,-1,-1
1528189231029964,0,0,-1,0,0,-2,-1,-1
1528189231043926,-1,-1,-2,0,1,-3,1,-2
1528189231043926,0,-1,-1,-1,0,-1,0,-2
1528189231044924,-1,-1,-1,-2,-2,-1,-1,0
1528189231044924,0,-3,-3,-2,-3,-1,0,-2
1528189231074844,0,-3,-1,0,-1,-1,0,0
1528189231074844,-1,-1,-2,0,-2,-2,-1,-1
1528189231075841,-1,0,-1,-1,0,-1,-2,-1
1528189231075841,-2,-2,-1,-1,-2,-1,-2,0
1528189231096785,-1,-3,-2,-2,-3,-2,0,-2
1528189231096785,-1,-1,0,-2,0,-1,-2,0
1528189231097792,-1,0,-3,-1,-1,-2,0,0
1528189231097792,0,-3,0,-4,-2,-1,-1,-2
1528189231111745,0,0,-1,-3,-1,0,0,0
1528189231111745,-2,-1,-2,-1,-1,-1,-1,1
1528189231112743,-2,-1,-1,0,-1,-3,-1,-1
1528189231112743,-1,-1,0,0,0,-1,0,-2
1528189231134686,-3,-1,-1,-1,-1,-2,-1,-2
1528189231134686,0,-1,-1,0,-1,-1,-1,0
1528189231135682,-1,-1,0,-1,-2,0,-1,-1
1528189231135682,-2,-1,-2,-1,-2,0,0,-2
1528189231150224,0,0,0,-2,-2,0,0,-1
1528189231150224,-3,-1,-2,-2,-1,-1,-3,-2
1528189231150224,0,-1,-3,1,-1,-2,-2,-1
1528189231150224,1,0,-2,0,-1,0,-1,0
1528189231164236,-1,-1,-1,0,-2,-2,-1,-2
1528189231164236,-2,0,-1,-1,-2,-1,-2,-2
1528189231164236,-3,-1,0,-1,0,-1,0,0
1528189231164236,-2,-2,0,-2,0,-2,0,-1
1528189231187189,0,-1,-1,-1,0,-1,-2,-1
1528189231187189,1,-2,0,-2,-3,0,1,-2
1528189231187189,-1,0,-1,-3,0,0,0,-2
1528189231187189,-1,-1,0,1,-1,-1,-2,-1
1528189231217284,-2,-2,-2,-1,0,-2,-2,0
1528189231217284,-2,-1,-1,-2,-1,-1,-2,-2
1528189231218060,1,1,0,-2,-1,-1,-2,1
1528189231218060,0,0,-2,1,-1,0,-1,-1
1528189231224267,-1,-1,-1,-1,-2,-3,-1,-1
1528189231224267,-1,-1,-2,-1,0,0,0,-1
1528189231225263,-2,-1,-1,-1,-2,-2,-2,-3
1528189231225263,-2,-3,-1,-1,-2,-1,-2,-1
1528189231247083,-1,-4,0,-1,-1,-1,-1,-1
1528189231247083,-1,-2,-1,-1,-2,-1,-1,-1
1528189231247998,-1,-1,-2,-1,-1,-2,0,-1
1528189231247998,0,0,-2,-1,-1,0,-2,-1
1528189231270466,0,1,-3,-1,-1,-1,-1,-1
1528189231270466,-1,-2,-2,-2,0,-2,0,-2
1528189231270466,-1,-1,1,-1,-1,1,-1,0
1528189231270466,-1,-1,0,-2,-1,-2,0,-1
1528189231284065,0,-1,-2,-1,-1,-1,-2,-1
1528189231284065,-1,-1,-1,-1,0,0,-1,-1
1528189231284661,-1,-1,-1,0,-3,-3,-1,0
1528189231284661,-1,1,-2,-2,-1,-2,-1,-2
1528189231306844,-1,-1,-1,0,-1,-1,-2,-2
1528189231306844,-1,-1,-2,0,-2,-1,1,-1
1528189231307601,0,-1,-1,-1,0,-1,-2,1
1528189231307601,0,-1,-2,-2,-2,-1,-1,0
1528189231329542,0,-2,-1,2,0,0,0,-2
1528189231329542,-1,-1,-2,-2,0,-1,-3,0
1528189231330545,-1,-1,-2,0,-1,-1,1,-3
1528189231330545,-2,-2,-1,-1,-1,-3,-1,-1
1528189231351484,-1,1,-1,-1,-2,-2,-2,-2
1528189231351484,-2,-1,0,0,-2,-1,-1,0
1528189231358497,-1,-2,-2,-2,1,-1,0,-1
1528189231358497,-2,-2,-2,0,1,0,-1,0
1528189231374660,0,-1,-1,-1,1,-1,1,-1
1528189231374660,0,-1,-1,-1,-1,1,0,-1
1528189231375422,-2,-1,0,-1,-1,-1,0,-2
1528189231375422,-1,-1,0,1,-2,-1,-1,-2
1528189231389944,-1,-1,-1,-1,-1,-1,0,0
1528189231389944,-2,-1,-2,1,-1,-1,-1,-2
1528189231390692,-1,-2,0,-2,-2,-1,0,0
1528189231390692,-1,-2,0,0,0,-2,-1,-1
1528189231404642,-2,0,0,-1,-1,-1,-1,-1
1528189231404642,1,-1,0,0,-1,0,0,0
1528189231404642,1,-2,-1,-1,0,0,-1,-1
1528189231404642,-2,-1,-1,-2,0,0,-1,1
1528189231426587,0,-1,0,-2,-2,-2,-2,-1
1528189231426587,-2,-3,1,-1,0,-2,-2,-1
1528189231427905,-1,-1,-3,-1,-3,0,0,-2
1528189231427905,0,-1,-2,-1,-1,0,1,-1
1528189231449522,-2,0,-2,-1,-1,0,0,-2
1528189231449522,-1,-1,-1,-2,0,-2,-1,-1
1528189231450520,-1,-2,-1,-1,-2,-1,-1,-1
1528189231450520,0,-1,-2,-2,-1,-2,0,-1
1528189231463500,-1,-2,-2,-2,-2,0,-1,0
1528189231463500,-1,-1,-1,-1,-2,-1,0,-1
1528189231471728,-2,-1,0,0,-1,-1,0,1
1528189231471728,-1,0,-1,-2,-1,-1,-1,-1
1528189231486987,0,-2,-1,0,0,1,0,0
1528189231486987,-1,0,-1,-1,-1,-1,-2,0
1528189231494120,-1,-1,-1,-1,0,-2,-1,-2
1528189231494120,-1,0,-1,-2,-1,0,-1,0
1528189231517992,-2,-1,-2,-2,-1,-3,-1,-1
1528189231517992,-2,-2,0,-1,-1,-2,-1,0
1528189231517992,-1,-1,-2,-2,-1,-2,-1,-3
1528189231517992,-3,-2,0,-1,0,-2,1,-1
1528189231523951,-2,-1,1,-2,-1,-1,-1,-2
1528189231523951,0,-1,-1,0,-2,-1,0,-2
1528189231539688,-1,-2,-1,0,-1,-1,-1,-2
1528189231539688,-2,-1,-2,-1,-2,-1,-1,-2
1528189231546672,-1,0,0,-1,-1,-2,-2,0
1528189231546672,0,-1,-2,-1,-2,0,-1,-1
1528189231547669,0,-1,0,-1,-1,0,0,0
1528189231547669,1,-2,-1,-2,-2,-1,-2,-3
1528189231593802,-1,-1,0,-1,0,-2,0,-1
1528189231593802,0,-1,-1,-1,-2,-1,-1,-2
1528189231594810,0,-1,-1,-1,-1,0,-1,-1
1528189231594810,-1,0,-3,-1,-1,-1,-2,0
1528189231596661,0,-2,-2,-1,0,-2,0,0
1528189231596661,-2,-1,-2,-2,0,0,1,-1
1528189231598533,-1,0,-1,-2,1,-2,-1,-1
1528189231598533,-1,-2,0,-1,-3,0,-2,-1
1528189231606667,1,-2,0,-1,-1,-2,-1,-2
1528189231606667,-1,0,-1,-2,-1,-1,-1,-2
1528189231630894,-1,0,0,-1,-1,0,-3,0
1528189231630894,0,0,-2,-1,0,0,-1,0
1528189231631487,-1,-2,-1,-2,-2,-1,0,0
1528189231631487,-2,-2,0,-2,0,-1,-2,-1
1528189231632466,-1,-2,0,-1,-2,-2,-3,-2
1528189231632466,-2,0,0,-1,-2,-3,-1,0
1528189231652413,-1,0,-2,-1,-1,0,-1,-2
1528189231652413,-3,-1,-1,0,0,-2,-2,-2
1528189231652413,-3,-1,-1,0,0,-2,-2,-2
1528189231652413,-3,-1,-1,0,0,-2,-2,-2
1528189231652413,-3,-1,-1,0,0,-2,-2,-2
1528189231652413,-3,-1,-1,0,0,-2,-2,-2
1528189231652413,-3,-1,-1,0,0,-2,-2,-2
1528189231652413,-3,-1,-1,0,0,-2,-2,-2
1528189231652413,-3,-1,-1,0,0,-2,-2,-2
1528189231652413,-3,-1,-1,0,0,-2,-2,-2
1528189231652413,-3,-1,-1,0,0,-2,-2,-2
1528189231652413,-3,-1,-1,0,0,-2,-2,-2
1528189231652413,-3,-1,-1,0,0,-2,-2,-2
1528189231652413,-3,-1,-1,0,0,-2,-2,-2
1528189231652413,-3,-1,-1,0,0,-2,-2,-2
1528189231652413,-3,-1,-1,0,0,-2,-2,-2
1528189231652413,-3,-1,-1,0,0,-2,-2,-2
1528189231652413,-3,-1,-1,0,0,-2,-2,-2
1528189231652413,-3,-1,-1,0,0,-2,-2,-2
1528189231652413,-3,-1,-1,0,0,-2,-2,-2
1528189231652413,-3,-1,-1,0,0,-2,-2,-2
1528189231652413,-3,-1,-1,0,0,-2,-2,-2
1528189231652413,-3,-1,-1,0,0,-2,-2,-2
1528189231652413,-3,-1,-1,0,0,-2,-2,-2
1528189231652413,-3,-1,-1,0,0,-2,-2,-2
1528189231652413,-3,-1,-1,0,0,-2,-2,-2
1528189231652413,-3,-1,-1,0,0,-2,-2,-2
1528189231652413,-3,-1,-1,0,0,-2,-2,-2
1528189231652413,-3,-1,-1,0,0,-2,-2,-2
1528189231652413,-3,-1,-1,0,0,-2,-2,-2
1528189231652413,-3,-1,-1,0,0,-2,-2,-2
1528189231652413,-3,-1,-1,0,0,-2,-2,-2
1528189231652413,-3,-1,-1,0,0,-2,-2,-2
1528189231652413,-3,-1,-1,0,0,-2,-2,-2
1528189231652413,-3,-1,-1,0,0,-2,-2,-2
1528189231652413,-3,-1,-1,0,0,-2,-2,-2
1528189231652413,-3,-1,-1,0,0,-2,-2,-2
1528189231652413,-3,-1,-1,0,0,-2,-2,-2
1528189231652413,-3,-1,-1,0,0,-2,-2,-2
1528189231652413,-3,-1,-1,0,0,-2,-2,-2
1528189231652413,-3,-1,-1,0,0,-2,-2,-2
1528189231652413,-3,-1,-1,0,0,-2,-2,-2
1528189231652413,-3,-1,-1,0,0,-2,-2,-2
1528189231652413,-3,-1,-1,0,0,-2,-2,-2
1528189231652413,-3,-1,-1,0,0,-2,-2,-2
1528189231652413,-3,-1,-1,0,0,-2,-2,-2
1528189231652413,-3,-1,-1,0,0,-2,-2,-2
1528189231652413,-3,-1,-1,0,0,-2,-2,-2
1528189231652413,-3,-1,-1,0,0,-2,-2,-2
