timestamp,emg1,emg2,emg3,emg4,emg5,emg6,emg7,emg8
1528449068104762,-6,-20,-53,-23,0,-2,-1,-3
1528449068104762,1,8,6,3,-2,-1,-1,-1
1528449068119722,-2,-1,-24,-20,0,-2,-1,-1
1528449068119722,-3,8,9,-3,-5,-3,-1,-4
1528449068120719,-2,-2,17,16,-1,-1,-1,4
1528449068120719,9,-4,-14,-6,-1,-2,-6,-11
1528449068141664,1,-3,3,-2,4,2,-2,-1
1528449068141664,-5,-3,0,1,-2,-4,-3,-2
1528449068143659,-3,2,-4,-1,0,-9,-14,-7
1528449068143659,-6,-5,7,-1,-2,0,11,0
1528449068155626,2,0,-1,-1,1,5,17,5
1528449068155626,2,0,-11,2,-6,-7,-4,1
1528449068164603,-2,-2,7,1,2,6,-2,-4
1528449068164603,3,7,-2,-19,-3,6,7,7
1528449068179562,-5,-3,-4,-4,-1,-6,-6,-2
1528449068179562,0,-5,-11,-6,-11,-4,5,1
1528449068180560,-6,-5,4,9,6,0,-2,0
1528449068180560,-3,-2,-3,5,-3,-9,-11,-4
1528449068201503,2,6,11,7,11,10,3,-2
1528449068201503,8,3,-5,-4,0,2,6,5
1528449068203498,-4,-12,12,4,-7,-10,-5,1
1528449068203498,-4,-1,0,-4,-6,-3,-4,-5
1528449068215465,-4,-2,4,2,6,2,-2,-1
1528449068215465,-2,-2,0,2,11,5,-7,1
1528449068224442,5,7,8,2,-1,1,8,-1
1528449068224442,-3,-10,-5,1,-1,-4,-1,3
1528449068239401,0,0,-2,-9,-14,-10,-7,-3
1528449068239401,3,4,9,11,6,5,-1,0
1528449068240399,1,-1,-26,-13,-5,-2,4,-3
1528449068240399,-4,-5,-7,-4,4,0,-6,7
1528449068261343,1,-2,-5,-1,2,-3,-4,0
1528449068261343,-6,-2,1,2,5,5,0,-3
1528449068263339,2,5,35,14,-4,-6,-10,-3
1528449068263339,-5,-9,-16,-16,-3,-2,-6,-8
1528449068275306,-6,-10,-15,0,2,4,-8,-6
1528449068275306,-1,-3,-4,-11,-5,-3,2,0
1528449068284281,1,2,-4,8,10,4,-1,1
1528449068284281,7,8,14,7,-9,-9,1,-1
1528449068299243,2,7,31,17,-2,-4,6,2
1528449068299243,-1,-11,-16,-30,2,2,-5,-2
1528449068301238,-1,0,-2,-4,-3,4,4,-1
1528449068301238,-4,-1,-1,8,5,0,0,-2
1528449068322206,2,5,2,-3,-16,-10,1,2
1528449068322206,-5,-1,-5,10,-3,-4,-5,-4
1528449068323179,1,3,3,-12,-3,0,2,1
1528449068323179,2,5,13,5,2,3,1,0
1528449068335146,-2,-14,-15,-4,-3,-3,-5,-1
1528449068335146,-7,3,-5,-2,-4,-3,1,-3
1528449068344121,2,7,9,-3,-3,-1,1,1
1528449068344121,1,-4,-19,1,-3,0,1,0
1528449068358086,4,6,6,1,11,0,-3,-2
1528449068358086,-8,-39,-9,5,1,-2,-1,-1
1528449068365067,0,44,8,-7,-10,-5,-2,-2
1528449068365067,1,-14,9,8,0,2,-1,-1
1528449068396981,1,-5,-26,-12,4,4,0,2
1528449068396981,-2,-5,21,-5,-8,-7,-3,-5
1528449068398977,0,4,-30,2,1,1,1,0
1528449068398977,-2,3,2,-2,1,-2,-2,-2
1528449068399973,-4,10,1,1,-5,-3,1,-1
1528449068399973,3,8,5,-3,-3,0,-2,-3
1528449068403963,-7,-42,5,1,2,-1,0,0
1528449068403963,-6,-18,-24,-7,-1,0,1,-1
1528449068418921,-6,16,8,-2,-7,-3,-6,-4
1528449068418921,4,-16,-13,-2,-4,-4,-1,3
1528449068424905,4,-40,13,3,-3,0,1,5
1528449068424905,2,-34,3,3,8,2,0,1
1528449068441860,-6,-43,1,-2,1,0,-1,-5
1528449068441860,-5,12,-6,-6,-2,0,1,-1
1528449068443859,1,18,-4,-1,-2,-3,-5,-2
1528449068443859,-6,18,11,3,-1,4,4,1
1528449068455834,2,24,4,5,1,0,1,3
1528449068455834,8,32,-9,-3,2,1,-1,2
1528449068464799,6,12,-6,-1,2,4,2,0
1528449068464799,-7,15,2,-7,-8,-8,-3,-2
1528449068478762,-1,5,4,6,3,3,2,-3
1528449068478762,-2,6,-5,-3,3,3,-2,0
1528449068485743,4,7,-2,-2,-3,-4,-5,-1
1528449068485743,-1,8,1,0,-1,-1,0,0
1528449068501729,2,7,1,-5,-1,-4,-4,1
1528449068501729,1,-1,-20,-9,-10,-5,2,-2
1528449068503695,-8,-9,0,12,11,3,3,-1
1528449068503695,2,14,7,4,10,4,-1,-2
1528449068524640,0,-15,-10,-21,-16,-11,-7,-3
1528449068524640,-1,5,6,7,8,3,0,-2
1528449068525645,-6,11,-3,-13,-11,-4,-6,-5
1528449068525645,4,10,-2,7,-3,-3,-1,-1
1528449068538602,-5,-3,-5,-2,-2,-2,-5,-5
1528449068538602,-3,-7,-15,-16,-15,-3,-2,-1
1528449068545583,1,1,9,11,13,2,0,2
1528449068545583,-4,-7,-7,-7,0,-5,-6,-7
1528449068562538,0,0,7,-3,-17,-3,1,1
1528449068562538,1,-1,9,10,4,-3,-4,1
1528449068563534,-3,-10,-5,4,-21,-8,-4,-2
1528449068563534,-1,-9,-5,-16,22,10,6,0
1528449068584479,1,1,-1,0,-5,1,1,2
1528449068584479,-11,-13,11,-2,-2,0,2,0
1528449068585477,2,3,11,1,1,-3,4,1
1528449068585477,0,-8,-15,5,-2,-1,-6,-3
1528449068598442,-4,-9,-26,-11,-1,0,0,-2
1528449068598442,-2,-1,-2,3,11,4,0,0
1528449068605423,-4,-5,-2,-10,-13,-5,-2,-3
1528449068605423,0,0,4,-8,-17,-7,-3,1
1528449068621380,0,1,6,-1,-4,-2,-3,0
1528449068621380,-2,-5,-5,25,26,1,-3,-3
1528449068623375,-1,-1,-6,-2,8,3,4,0
1528449068623375,0,-2,-9,-1,-4,1,-1,1
1528449068644319,0,-2,7,6,-6,-2,-1,1
1528449068644319,-2,5,28,-7,-10,-8,-5,-4
1528449068646314,0,-7,-30,-25,-9,0,-1,-1
1528449068646314,4,1,-3,12,4,0,0,-2
1528449068658282,-3,-3,-5,-7,13,5,0,0
1528449068658282,0,-26,-13,6,-5,-1,2,1
1528449068667257,2,18,19,1,6,3,0,-1
1528449068667257,-4,6,-15,-9,-20,-7,-1,-1
1528449068682220,-2,-12,16,6,5,-2,-2,-1
1528449068682220,15,0,24,7,6,4,3,6
1528449068683215,-6,3,-34,-18,-12,-4,-2,-5
1528449068683215,1,-5,2,6,1,0,0,1
1528449068704159,-4,-10,-16,7,7,2,1,1
1528449068704159,-3,13,14,-7,-9,-3,-4,-7
1528449068706154,-2,-27,-1,-3,-7,-3,-4,-3
1528449068706154,0,11,-31,-10,0,-1,-3,-1
1528449068718121,-6,-10,-13,2,5,4,-1,0
1528449068718121,-5,-14,-28,-9,-14,-4,-3,-2
1528449068727099,1,1,5,3,4,1,2,-1
1528449068727099,-1,3,21,3,5,2,-1,-1
1528449068742058,-4,3,12,-3,-6,-2,0,0
1528449068742058,-3,5,-9,1,-5,-1,-4,-4
1528449068743056,0,5,9,4,8,-2,-2,-1
1528449068743056,1,-4,16,-8,-6,-1,1,-1
1528449068764000,6,5,5,12,0,-2,-4,-2
1528449068764000,0,16,6,-25,-19,-8,-3,-2
1528449068765995,-9,-16,-2,14,16,6,2,1
1528449068765995,2,-2,5,10,1,0,1,0
1528449068777979,-3,0,-5,-10,0,-1,2,-1
1528449068777979,-2,0,-11,9,1,1,-1,0
1528449068786939,3,5,5,-5,-8,-2,2,0
1528449068786939,-1,0,10,-7,-10,-9,-3,1
1528449068801898,1,6,16,14,8,3,0,-3
1528449068801898,4,-1,-20,0,14,12,6,6
1528449068802896,0,-11,-12,-11,-25,-17,-3,-2
1528449068802896,-1,0,9,10,6,10,12,5
1528449068824837,2,7,-4,-17,-9,-2,-1,-1
1528449068824837,-2,2,11,6,4,0,-1,-1
1528449068826831,-1,-1,-11,-8,-7,-7,-2,-2
1528449068826831,-4,-5,-8,-6,-15,-9,-3,-4
1528449068837803,0,-7,-7,3,0,-4,-3,-2
1528449068837803,3,4,0,-8,2,5,11,5
1528449068846877,1,5,12,4,10,10,1,-1
1528449068846877,-1,-2,7,-6,-6,-5,-4,-2
1528449068861738,2,2,-7,-18,-25,-10,-3,-2
1528449068861738,-4,0,19,35,32,8,1,-4
1528449068863733,-1,-8,-23,-2,3,4,-1,-1
1528449068863733,-4,-5,3,9,0,-4,-6,-4
1528449068891961,-1,1,-1,-13,-7,-4,-2,-2
1528449068891961,-3,0,-3,2,-14,-7,-5,-5
1528449068892961,-2,1,15,5,3,1,-1,-2
1528449068892961,0,-1,0,3,1,2,-3,-1
1528449068898527,0,0,-10,11,10,6,-3,-4
1528449068898527,-8,-7,4,-13,-19,-13,-8,-7
1528449068907235,4,3,0,6,27,11,3,4
1528449068907235,-1,-7,-8,-7,-9,-4,-3,-1
1528449068920200,-1,0,7,1,-16,-8,-4,-2
1528449068920200,0,-3,-5,1,30,12,6,2
1528449068929191,-3,0,-6,-19,-10,-7,-6,-4
1528449068929191,0,2,0,5,4,2,-1,-1
1528449068944179,1,-2,-8,8,3,1,0,0
1528449068944179,-4,-4,1,1,-18,-8,-3,-3
1528449068951259,-1,2,4,0,4,0,2,1
1528449068951259,0,4,5,15,9,3,1,0
1528449068966806,-1,-1,-3,-3,6,1,0,-2
1528449068966806,0,-2,0,-12,-12,-5,-4,-2
1528449068968471,-3,-6,-1,8,-2,1,0,-2
1528449068968471,0,1,15,-11,-2,-2,-2,1
1528449068980698,1,15,-18,-4,3,2,2,0
1528449068980698,3,-37,-14,0,-1,0,-1,1
1528449068989728,4,42,27,3,-8,-5,-2,-1
1528449068989728,-7,-30,-7,-7,1,1,0,-4
1528449069004023,6,18,12,6,4,1,1,2
1528449069004023,0,18,-25,-8,-4,-2,-3,0
1528449069010673,6,-1,44,9,1,2,4,4
1528449069010673,2,0,-4,-9,-2,-2,-2,0
1528449069026629,2,17,2,10,8,5,8,3
1528449069026629,-8,0,-11,-12,-10,-5,-7,-5
1528449069028623,-7,-18,-36,-7,-6,-1,0,-4
1528449069028623,9,2,22,13,7,4,3,4
1528449069049831,-16,-32,17,11,6,-1,-3,-2
1528449069049831,-1,-33,20,-9,3,-1,0,1
1528449069050751,4,57,-21,-4,-7,-6,-4,-4
1528449069050751,3,24,12,0,-2,-2,-3,-2
1528449069063667,-2,-10,-13,-9,-2,0,-1,-3
1528449069063667,1,2,8,8,-9,-3,0,0
1528449069070898,-2,-27,10,5,5,1,-2,0
1528449069070898,-4,-9,-22,-20,5,0,-7,-3
1528449069087993,3,11,2,-13,-10,-4,-3,0
1528449069087993,1,7,12,9,2,1,2,1
1528449069088951,-1,-17,-12,5,0,1,0,0
1528449069088951,0,11,-12,-4,-12,-5,-1,-2
1528449069117136,0,-11,6,4,8,1,-2,-2
1528449069117136,-1,3,-10,4,10,5,1,0
1528449069118131,-5,-9,-2,0,-4,-2,-3,-2
1528449069118131,-3,-3,-5,-6,-6,-3,0,-1
1528449069124118,-1,-4,8,0,-4,-3,-1,-1
1528449069124118,1,3,-16,-6,4,3,0,-1
1528449069130838,-2,-4,3,12,4,-1,-4,-1
1528449069130838,-5,2,-8,-40,-12,-6,-2,-3
1528449069146828,6,-7,-8,3,-4,-1,-2,-1
1528449069146828,0,7,-1,-3,-6,-5,-3,-1
1528449069148797,0,-7,6,7,-1,0,1,-1
1528449069148797,-4,-3,1,18,8,1,0,-1
1528449069169761,-6,0,8,2,-8,-6,-4,-4
1528449069169761,0,-5,-15,-16,14,5,0,-1
1528449069170733,1,-8,-2,-13,-8,-2,0,0
1528449069170733,-3,-5,-4,5,0,-1,2,-1
1528449069182701,0,-4,-13,0,-2,1,1,-1
1528449069182701,0,14,20,-2,-11,-6,-1,0
1528449069191676,-3,-18,-7,3,3,-1,-1,-2
1528449069191676,2,19,6,5,1,4,1,1
1528449069206638,0,-2,4,6,10,4,1,0
1528449069206638,-4,-3,-5,-7,-11,-6,-3,-3
1528449069208632,-3,0,-9,-12,-5,-2,-1,-1
1528449069208632,-1,-5,4,14,6,-1,1,-1
1528449069229575,-3,-5,1,-11,-5,-2,-2,-1
1528449069229575,-1,5,-18,6,14,3,1,-2
1528449069230573,-2,2,10,-4,-10,-4,-1,-1
1528449069230573,0,-3,1,1,3,2,0,0
1528449069242799,1,0,-7,1,0,-3,-1,-2
1528449069242799,-4,-6,-7,-1,-18,-8,-1,-3
1528449069251863,-3,-4,-8,-21,21,5,0,0
1528449069251863,-3,-3,0,11,2,1,-2,-3
1528449069266822,-1,-1,-2,4,5,3,-1,-2
1528449069266822,0,2,7,5,-9,-4,0,-1
1528449069268790,-2,-2,0,6,-13,-6,-4,-2
1528449069268790,-1,-4,-4,-18,-2,0,2,-1
1528449069289377,-3,2,-10,-8,7,5,3,1
1528449069289377,-3,-2,11,8,-5,-5,-5,-1
1528449069291321,-1,-3,-3,0,-4,-1,0,-1
1528449069291321,-2,-2,0,-2,1,-1,1,-2
1528449069303320,0,-1,9,2,-6,-4,-4,-1
1528449069303320,-1,0,2,2,-10,-5,-2,1
1528449069312264,-1,-1,-3,-13,18,5,-2,0
1528449069312264,-1,1,-7,-6,-4,-3,-3,0
1528449069327418,-2,-4,-5,-3,0,-2,0,-1
1528449069327418,-2,1,0,-5,-4,1,1,-1
1528449069328222,-1,0,7,2,-26,-10,-3,-3
1528449069328222,-1,-4,-4,22,17,3,-1,-1
1528449069349404,0,5,0,-17,-8,1,0,0
1528449069349404,-3,-2,1,15,-1,0,-2,-3
1528449069351160,-1,3,3,-24,-8,-1,1,-1
1528449069351160,-1,-3,-2,-5,-14,-6,-5,-1
1528449069363626,-2,1,6,7,-1,-4,-3,-2
1528449069363626,-2,-1,-9,-8,17,7,-2,-2
1528449069371698,4,-2,-5,5,4,0,0,0
1528449069371698,1,-4,-5,-8,-3,-2,0,-1
1528449069387657,1,-1,-1,-3,-4,-4,-1,0
1528449069387657,-1,-2,-4,-5,-4,-4,-1,0
1528449069388656,-4,3,3,13,4,2,2,0
1528449069388656,1,-1,0,-5,2,0,-1,1
1528449069408829,-2,-4,-2,8,-2,-1,3,-1
1528449069408829,1,1,0,-24,-4,-3,0,-1
1528449069417244,-3,1,4,6,-2,1,1,0
1528449069417244,0,-2,-4,6,-3,-2,-1,-2
1528449069423468,0,-3,0,3,1,-2,-3,-2
1528449069423468,-1,-2,-9,2,8,1,0,0
1528449069432203,-2,-1,-1,4,1,-1,-3,-1
1528449069432203,-1,-1,1,0,-9,-4,-1,-1
1528449069447404,-2,0,-3,-3,9,2,-2,-1
1528449069447404,-1,0,-1,-2,-4,-1,-1,0
1528449069449158,1,0,4,8,3,0,1,0
1528449069449158,-2,-8,-17,-5,-6,-3,0,0
1528449069469108,0,0,4,-5,-1,-2,1,-1
1528449069469108,-2,-1,2,6,-2,0,2,0
1528449069469108,0,-5,-4,1,-3,0,-1,-2
1528449069469108,-2,8,3,-2,9,3,-2,2
1528449069491388,-4,-7,-10,-4,-2,-3,-2,-2
1528449069491388,-1,10,10,-3,-2,1,-1,0
1528449069492049,-3,-14,-3,0,-6,-2,-1,-2
1528449069492049,-2,7,10,6,1,-4,0,1
1528449069506656,-1,-8,-12,-10,2,1,1,2
1528449069506656,1,4,-1,-5,-5,-4,-2,-2
1528449069506656,0,-1,-2,4,0,0,-4,-2
1528449069506656,-1,-8,-8,-5,-3,-2,0,-4
1528449069529915,0,7,-1,2,-5,-4,-2,0
1528449069529915,-1,-6,4,5,3,0,1,0
1528449069529915,0,7,-1,-12,0,0,1,0
1528449069529915,-3,-4,-1,2,-1,-1,-2,-2
1528449069551055,-2,-1,21,4,3,-1,-3,-1
1528449069551055,-2,-3,-33,-6,-6,-4,-3,-3
1528449069551797,-2,-6,0,-4,-4,-3,-3,-1
1528449069551797,-2,-1,-6,-2,-3,0,-2,-5
1528449069566346,1,8,17,-1,-7,-2,3,-2
1528449069566346,-2,-7,-3,-2,17,6,1,1
1528449069567057,5,18,3,6,3,0,-4,3
1528449069567057,-3,-4,8,0,-1,-3,-3,0
1528449069589045,3,2,-13,-4,-7,-3,-2,-1
1528449069589045,-5,-12,-6,-4,-5,-3,-3,-2
1528449069589045,-6,-7,-12,-6,-2,-3,-3,-4
1528449069589045,-2,-1,-7,0,3,3,1,-1
1528449069611341,5,-2,7,5,3,3,0,2
1528449069611341,4,10,7,-3,-5,-3,-3,0
1528449069612287,-2,-11,-5,-2,-2,-3,-2,-2
1528449069612287,0,-9,1,3,0,-1,3,4
1528449069626251,-4,3,-7,-3,2,-1,-3,-2
1528449069626251,-6,-24,-5,-6,-4,-2,-1,-3
1528449069627515,4,16,4,3,1,1,-1,0
1528449069627515,-1,3,5,0,-2,-1,-2,-1
1528449069649259,0,3,-7,-5,-7,-3,0,2
1528449069649259,4,0,17,13,10,3,1,1
1528449069649259,0,-3,-11,-4,-5,-5,0,-1
1528449069649259,1,-3,-2,-1,-2,-1,0,-2
1528449069671368,1,-7,7,0,0,0,-1,0
1528449069671368,3,3,-1,-14,-9,-2,1,-1
1528449069672509,-7,-3,1,5,-1,0,0,-4
1528449069672509,0,9,4,-1,-1,-1,2,1
1528449069686328,1,-10,-17,-2,-2,-2,-4,-1
1528449069686328,5,-3,6,2,-3,-2,-2,0
1528449069686328,-8,-12,-10,-3,-2,0,-2,-3
1528449069686328,-2,-1,4,-1,0,2,-3,1
1528449069708294,-5,-6,-2,2,4,1,1,-1
1528449069708294,-1,-1,5,2,-1,-3,-2,-1
1528449069709291,2,6,-6,2,-1,0,1,0
1528449069709291,-1,-6,-6,-9,0,-1,0,-2
1528449069731583,-6,-5,-2,1,0,-1,-3,-1
1528449069731583,-3,5,-1,1,-1,0,0,-3
1528449069732241,-2,-2,5,0,-2,0,-2,-2
1528449069732241,-5,0,0,2,-2,-2,0,-2
1528449069754208,3,17,6,-11,-3,-1,-2,-4
1528449069754208,-3,-14,-16,0,-4,0,1,1
1528449069755208,-2,-6,2,-5,-7,-3,-2,-1
1528449069755208,4,4,5,-5,-4,-1,-4,-1
1528449069769301,-2,-7,-7,0,8,3,2,0
1528449069769301,-6,6,13,9,-1,-3,-3,-3
1528449069769301,2,1,-4,-5,8,2,1,1
1528449069769301,3,6,6,5,-2,0,-4,-2
1528449069791652,1,1,0,-3,-7,-5,-2,-3
1528449069791652,-8,-8,-6,-13,-4,-3,-3,-4
1528449069792624,8,2,7,4,-2,-2,0,2
1528449069792624,-1,-1,-1,-2,0,-2,2,0
1528449069806383,-1,-1,-7,0,-1,-3,-2,-1
1528449069806383,-2,1,-5,-2,-1,2,0,-1
1528449069807381,-1,6,2,2,-1,-1,0,0
1528449069807381,-2,-2,4,-3,1,-1,-3,-3
1528449069828815,-3,-5,-3,0,-1,-1,-1,0
1528449069828815,2,8,-9,-2,-1,-1,0,0
1528449069829565,-2,-3,1,7,1,2,1,0
1528449069829565,0,2,0,-2,-2,-2,-2,-1
1528449069851526,-6,1,2,-2,-4,-2,1,-3
1528449069851526,2,0,6,2,0,-4,-2,-2
1528449069851526,2,-7,-16,-4,0,1,0,0
1528449069851526,-5,-5,-4,3,0,-2,-2,-1
1528449069866502,-1,-3,0,0,-2,-1,-4,-3
1528449069866502,-3,3,0,-1,-1,-1,0,-1
1528449069866502,-2,0,2,-2,-4,-3,-2,-2
1528449069866502,1,-4,-5,-1,-2,-1,-1,-1
1528449069888443,-3,-2,0,-3,0,-2,-1,-2
1528449069888443,-1,1,-1,-3,-3,-2,-2,-1
1528449069889404,-2,-3,1,-1,0,-1,0,0
1528449069889404,-1,1,-4,-5,0,0,1,-1
1528449069911389,3,6,4,5,-2,0,-1,0
1528449069911389,-1,-8,-11,-1,1,0,-3,-3
1528449069911389,-6,-7,4,3,2,-2,0,-2
1528449069911389,0,-1,0,-6,0,0,1,-1
1528449069926364,-2,-4,-1,0,0,-2,2,1
1528449069926364,1,6,0,2,-1,-1,0,0
1528449069927344,4,10,10,-4,-2,-1,-1,0
1528449069927344,-1,-4,-2,0,0,0,-2,-2
1528449069948302,2,0,-2,1,-1,1,-2,-1
