timestamp,emg1,emg2,emg3,emg4,emg5,emg6,emg7,emg8
1528278667672862,-3,0,-2,10,5,-9,-4,-3
1528278667672862,0,-3,-4,-7,-5,-3,-2,3
1528278667679844,-2,1,4,6,1,5,-2,-5
1528278667679844,-2,-3,-2,-16,-13,-10,-8,-2
1528278667693806,-3,-5,-6,-1,-20,-17,-6,-4
1528278667693806,-2,1,3,4,4,9,3,0
1528278667702781,-3,0,-5,-1,-5,-1,-2,-2
1528278667702781,-3,-2,-7,-12,-18,-5,-6,-2
1528278667725720,0,-5,-2,7,34,23,13,6
1528278667725720,-6,-6,-7,0,-18,-23,-13,-6
1528278667726718,3,4,2,-12,-13,-13,-4,1
1528278667726718,2,4,-1,9,9,10,0,-2
1528278667773592,0,-2,-1,-3,-3,-1,14,6
1528278667773592,0,2,0,-14,-20,-7,-3,-1
1528278667774589,-4,-8,-11,-20,-10,13,11,-2
1528278667774589,-3,-1,0,15,20,7,-13,2
1528278667777581,1,-1,-8,-25,-31,-23,-1,0
1528278667777581,0,1,3,8,3,4,-2,-4
1528278667777581,2,1,3,1,-8,7,20,5
1528278667777581,-2,-1,-2,-5,-17,-20,-11,-2
1528278667784562,-6,-6,-4,3,-19,-3,-2,-5
1528278667784562,1,0,-2,-6,22,7,-3,-1
1528278667791544,-8,-14,-20,-26,0,-21,-30,-9
1528278667791544,-1,2,7,14,-32,-7,14,2
1528278667799523,11,17,13,8,-9,-16,8,5
1528278667799523,3,2,2,7,-5,18,17,3
1528278667814484,-2,-2,-2,8,30,19,-7,-1
1528278667814484,-3,-5,-6,-15,-3,-34,-38,-5
1528278667821465,4,-1,3,-9,7,41,10,7
1528278667821465,-3,-6,0,20,38,52,40,7
1528278667845399,1,8,12,32,18,-1,12,2
1528278667845399,0,-6,-3,-29,-31,-19,-9,-3
1528278667846397,-5,-5,-7,8,1,-28,-28,-10
1528278667846397,-5,-2,0,5,5,-8,-18,-9
1528278667859363,0,-2,-1,-15,-27,-11,-10,-2
1528278667859363,1,2,0,4,25,8,7,2
1528278667860360,0,0,-1,-2,11,24,26,4
1528278667860360,-3,-4,-5,0,14,15,5,1
1528278667882301,-4,-5,-4,-10,-27,-38,-14,-9
1528278667882301,-4,-3,-1,-1,-12,-19,-15,-6
1528278667883298,-1,-4,1,6,18,24,7,0
1528278667883298,-1,-2,-8,-20,-25,-10,-1,0
1528278667905240,2,3,6,10,-10,-10,-5,2
1528278667905240,3,4,1,6,26,27,23,1
1528278667906250,-3,-5,-11,-22,-20,-24,-12,-6
1528278667906250,-4,-2,-7,13,3,-22,-11,-4
1528278667920200,-1,-2,-6,-13,-23,-6,-3,0
1528278667920200,-1,0,6,-3,-2,-17,-6,-2
1528278667920200,-3,0,4,4,7,26,6,-2
1528278667920200,4,5,5,8,18,-6,-6,1
1528278667942141,-1,0,-5,-7,6,14,4,0
1528278667942141,-1,-3,-3,8,11,18,12,2
1528278667943138,0,-4,-8,-8,-6,-11,-7,-3
1528278667943138,-3,2,7,-2,-16,-15,-9,-4
1528278667965080,1,0,5,10,23,10,0,1
1528278667965080,-5,-9,-17,-11,-1,17,19,3
1528278667966092,-4,2,1,5,4,-8,-16,-7
1528278667966092,-1,-3,2,-17,-12,-8,-8,-4
1528278667980040,1,0,-1,19,8,-4,3,0
1528278667980040,-3,-2,-1,-12,-11,12,4,-1
1528278667981038,2,2,-2,2,3,-8,-7,-1
1528278667981038,-1,0,8,7,1,-2,-2,0
1528278668001982,0,1,-1,-9,-8,9,12,3
1528278668001982,0,1,-8,11,13,0,-4,-4
1528278668002979,0,-7,2,-3,3,0,-2,1
1528278668002979,0,5,-1,-22,-25,-16,-6,-1
1528278668032925,-3,-4,2,20,16,6,1,-4
1528278668032925,-1,-4,-4,-25,-15,2,-7,-5
1528278668033897,-3,-2,3,36,31,1,0,-2
1528278668033897,3,-1,-2,11,-1,-6,0,3
1528278668039910,-1,1,3,-4,-4,1,-2,0
1528278668039910,-1,4,1,-6,7,3,-1,-2
1528278668040914,-3,-3,-5,-21,-24,-8,-6,-4
1528278668040914,-6,-9,-1,-16,-2,-2,-8,-5
1528278668062819,0,8,11,20,8,0,1,0
1528278668062819,1,2,4,1,-6,-3,-5,-3
1528278668063826,-1,-3,1,0,-1,0,-1,1
1528278668063826,-1,-7,-18,-5,-1,-5,-2,-2
1528278668085758,1,6,-1,-25,-18,-6,-5,-3
1528278668085758,-1,-1,10,16,11,6,4,0
1528278668086756,4,3,2,6,2,-1,0,3
1528278668086756,-4,-8,-14,-6,-6,0,1,-1
1528278668099720,1,7,8,-3,-1,1,-3,-1
1528278668099720,-2,0,-3,-4,-10,-1,-2,-2
1528278668100717,-2,1,7,17,13,2,-2,-5
1528278668100717,-7,-1,4,-4,-9,-5,-5,2
1528278668122659,7,1,-2,-5,-3,-5,-4,-1
1528278668122659,-10,-17,-22,1,3,1,-4,-9
1528278668123657,-13,-12,-1,-12,-7,-2,14,4
1528278668123657,14,40,23,0,-4,-1,-9,3
1528278668145597,17,0,-12,5,11,6,11,1
1528278668145597,25,76,22,-2,-7,-13,-28,1
1528278668146595,-7,-86,-23,-7,0,5,3,-8
1528278668146595,7,4,-9,7,-7,-6,6,26
1528278668159562,-41,-73,2,6,12,15,40,2
1528278668159562,-8,23,-10,-2,1,4,-5,8
1528278668167541,25,21,-10,-8,-1,3,-1,-1
1528278668167541,23,18,16,8,7,5,3,-12
1528278668190504,32,3,-10,-4,1,1,10,39
1528278668190504,-58,-37,-51,-9,-4,-7,-27,-53
1528278668191501,36,61,70,33,13,4,0,38
1528278668191501,-16,-41,-15,-11,-7,-12,-10,-27
1528278668205477,8,19,-23,-20,-12,-10,-20,2
1528278668205477,-12,-28,12,8,11,18,44,10
1528278668206436,-25,13,-25,-37,-17,-17,-23,-27
1528278668206436,-14,-25,-46,14,0,-3,-4,-7
1528278668219455,-11,5,8,2,-2,-4,-11,-9
1528278668219455,10,-8,-1,-2,-8,-5,-1,5
1528278668227399,-5,5,11,-14,3,7,8,1
1528278668227399,5,-7,14,1,0,-4,1,6
1528278668241343,-13,-3,-18,-13,-39,-28,-32,-24
1528278668241343,9,-5,0,-15,3,11,17,13
1528278668250318,1,2,-16,-40,-22,5,-1,-4
1528278668250318,-11,-4,8,79,74,21,10,-1
1528278668265278,-12,1,15,-28,-87,-63,-33,-16
1528278668265278,16,7,20,26,73,35,24,14
1528278668267274,-8,-16,-22,-17,-2,10,-5,-3
1528278668267274,-11,-6,-13,-71,-71,-34,-19,-10
1528278668279241,10,22,22,58,67,46,27,10
1528278668279241,5,-7,8,17,-23,-37,-21,-3
1528278668288217,-9,-6,-13,-43,-40,-20,-9,-7
1528278668288217,0,4,-1,-11,14,13,9,5
1528278668302316,0,2,-3,2,12,4,2,-1
1528278668302316,1,-8,-9,-34,-43,-25,-5,3
1528278668310195,0,4,18,79,61,16,10,5
1528278668310195,-1,1,2,-29,-57,-12,-5,-2
1528278668326177,-4,3,0,-40,-10,-11,-16,-10
1528278668326177,4,-1,10,40,43,24,10,2
1528278668327117,-6,-2,-9,28,6,-13,-7,-7
1528278668327117,0,-2,7,-23,-15,-12,-11,-1
1528278668339666,-4,-8,-8,20,22,18,14,2
1528278668339666,0,1,3,-41,-39,-12,-5,0
1528278668348373,-2,0,-6,0,19,9,2,-2
1528278668348373,-2,-2,-5,-7,-6,-1,4,1
1528278668361337,-1,0,4,3,20,19,6,0
1528278668361337,-2,-4,-1,7,-22,-20,-11,-6
1528278668370314,-1,0,-3,-8,-7,-8,-8,-3
1528278668370314,-3,-3,-9,-12,0,7,5,1
1528278668386321,1,5,7,27,10,2,-2,-2
1528278668386321,2,-7,1,3,-1,-2,4,4
1528278668387269,-4,-4,0,18,3,4,2,-1
1528278668387269,0,6,11,0,11,9,3,4
1528278668408254,3,1,-2,-13,-12,-13,-3,-2
1528278668408254,3,0,-4,5,16,15,7,4
1528278668409254,-4,-10,-5,-16,-22,-9,-7,-3
1528278668409254,-2,4,7,10,7,-4,0,-1
1528278668422174,-4,-11,-12,10,9,6,1,-1
1528278668422174,3,19,11,-13,-13,-7,-8,-3
1528278668429207,-5,-10,-34,-15,6,8,7,0
1528278668429207,0,-9,32,26,8,-1,-3,-2
1528278668446399,-7,-10,-21,-14,5,7,0,-3
1528278668446399,0,13,10,-6,-4,-2,-4,1
1528278668447109,-1,1,2,1,-13,-16,-10,-4
1528278668447109,-8,-2,12,14,15,9,-1,-9
1528278668459509,-5,13,-8,-24,-18,-13,-13,-13
1528278668459509,26,-14,-8,2,-3,-16,-43,-26
1528278668468067,-28,16,8,1,1,11,39,45
1528278668468067,23,22,-33,-1,-4,4,19,-3
1528278668483259,-31,-35,4,-16,-4,-4,-15,5
1528278668483259,17,20,10,19,-4,-6,-15,-30
1528278668488996,-36,-109,-4,6,0,-4,-12,27
1528278668488996,32,77,24,-5,9,9,11,15
1528278668511938,-45,2,-47,-10,-2,-2,-11,-9
1528278668511938,4,-4,38,15,11,14,33,15
1528278668521908,9,26,-33,-6,-21,-29,-32,-29
1528278668521908,-8,-36,18,6,7,0,-1,-6
1528278668528279,18,9,-5,-1,-1,-1,-10,-10
1528278668528279,-24,-21,-30,-25,-8,-6,-1,-7
1528278668529892,25,30,-16,1,9,16,27,8
1528278668529892,-20,-15,-12,-7,-8,-6,-16,-5
1528278668543093,21,22,62,37,18,12,25,2
1528278668543093,-16,-24,-32,-23,-12,-5,-11,2
1528278668549491,9,5,18,-10,-9,-2,16,4
1528278668549491,-3,-2,-38,-2,21,5,-37,-38
1528278668566230,-4,-16,16,16,-19,-11,-41,-17
1528278668566230,6,2,3,-43,-40,-12,51,54
1528278668567199,14,22,25,58,53,19,30,10
1528278668567199,1,-4,-2,0,59,79,33,17
1528278668588388,-1,-5,7,8,7,-10,-2,-8
1528278668588388,-5,-4,-6,-6,17,25,-8,-8
1528278668590410,-4,0,-1,-19,-54,-50,-42,-26
1528278668590410,1,0,0,-9,-6,-21,4,9
1528278668602091,2,-4,-12,-8,-9,-15,-1,-1
1528278668602091,-3,6,-2,4,-28,-20,-10,-1
1528278668609189,-1,-5,-18,-70,-27,5,-3,-9
1528278668609189,-8,-14,-1,30,-2,-12,-4,2
1528278668626238,9,8,-4,-49,-3,9,7,7
1528278668626238,-2,4,16,64,32,-17,-5,1
1528278668627022,4,11,25,23,0,13,-6,-10
1528278668627022,-5,-7,-4,-37,-22,5,1,2
1528278668648300,5,2,2,21,25,2,9,5
1528278668648300,-3,-3,-12,-8,12,29,13,0
1528278668649961,2,10,21,31,11,-1,-13,-11
1528278668649961,-7,-12,-9,-3,4,-3,-2,2
1528278668662962,2,-3,-9,-40,-55,-16,3,4
1528278668662962,-2,1,5,32,44,21,1,-2
1528278668669497,0,3,11,-5,0,-5,-14,-12
1528278668669497,-1,-4,-7,-3,-29,-29,-2,4
1528278668693162,3,-2,0,7,4,6,9,5
1528278668693162,-1,-1,-1,-16,7,15,0,1
1528278668694159,-1,4,-1,7,9,-3,-5,-4
1528278668694159,4,2,6,15,0,-4,2,5
1528278668708151,0,-3,-9,-11,6,5,7,5
1528278668708151,-3,-1,-5,-6,-35,-17,-8,-4
1528278668709410,2,1,11,20,26,7,3,0
1528278668709410,-3,-6,-19,-18,-12,-7,-3,-2
1528278668722352,4,5,1,18,7,1,2,0
1528278668722352,-5,-6,-25,-26,-13,-8,-2,0
1528278668731350,0,12,56,16,2,6,4,2
1528278668731350,-6,-12,-5,6,-6,-10,-5,-4
1528278668744026,3,0,-2,-8,-9,-7,0,2
1528278668744026,-2,-5,-11,8,11,4,2,-1
1528278668753003,-5,-7,-22,-20,-6,-3,-2,-4
1528278668753003,0,5,20,13,4,0,-5,-2
1528278668767962,-8,0,-13,-15,-7,-8,-35,-31
1528278668767962,5,0,29,5,6,18,75,52
1528278668769957,-17,-22,-71,-17,0,0,-23,-19
1528278668769957,28,67,49,5,-10,-4,-10,-10
1528278668797882,28,-23,8,20,18,21,43,32
1528278668797882,-24,6,8,6,-2,-14,-63,-35
1528278668805860,-9,-35,-38,-21,-13,-8,23,32
1528278668805860,0,-26,-14,3,18,29,94,7
1528278668806857,7,55,7,0,-3,-14,-53,9
1528278668806857,45,-23,20,-1,-3,-4,-2,-8
1528278668812841,-50,0,-50,-16,-2,4,16,9
1528278668812841,-5,4,60,8,-10,-18,-48,-25
1528278668827831,11,-18,9,7,1,7,3,-8
1528278668827831,-34,13,21,11,1,-10,-23,3
1528278668829826,36,25,22,-5,-15,-7,1,-41
1528278668829826,8,-17,-45,-7,5,-1,-12,55
1528278668850771,-16,-21,-8,-19,-4,10,42,12
1528278668850771,-2,8,-27,-3,2,0,-7,-17
1528278668852741,-7,2,46,23,8,5,-8,-5
1528278668852741,-19,-8,-18,-35,-21,-12,-15,-23
1528278668864428,0,-6,22,30,14,2,0,-2
1528278668864428,-8,-4,-46,-27,-21,-19,-16,-6
1528278668873169,21,17,25,8,11,17,26,13
1528278668873169,0,-6,-35,-27,-20,-13,3,-3
1528278668888008,-10,-12,-13,19,24,12,3,3
1528278668888008,5,11,-11,2,-9,-18,-10,-8
1528278668894450,6,-8,-3,-3,14,23,1,4
1528278668894450,-5,-6,-3,14,-14,-12,-15,0
1528278668910556,-9,3,-6,-11,0,1,-1,-5
1528278668910556,1,9,5,29,8,6,10,-5
1528278668917471,3,-25,-13,-10,-7,-18,-16,1
1528278668917471,-12,-5,12,-2,-3,-2,-3,-2
1528278668924477,-14,3,-14,-5,-10,-3,8,-8
1528278668924477,25,17,17,7,10,11,6,5
1528278668933210,-4,4,9,-9,-11,-12,-11,-2
1528278668933210,4,-1,-2,9,10,2,4,-2
1528278668948218,-7,-7,0,6,-8,-9,-7,-8
1528278668948218,-7,-9,10,-25,-3,4,4,-1
1528278668954025,3,5,3,5,0,-5,-5,0
1528278668954025,-2,3,0,9,2,2,4,1
1528278668970288,1,5,6,-8,0,-1,-6,-5
1528278668970288,-8,-11,0,-2,-2,0,1,1
1528278668972282,4,1,-6,0,-11,-9,-4,-2
1528278668972282,-3,-8,-5,1,9,8,3,-2
1528278668984251,-1,1,-3,-10,-3,-7,-2,2
1528278668984251,-2,-11,-7,-16,-7,-9,-2,-2
1528278668993225,0,2,13,12,14,13,3,-1
1528278668993225,-3,-1,-2,0,-4,-6,-8,-4
1528278669007743,-2,-4,-2,-8,-6,-5,-2,-2
1528278669007743,-3,-3,-2,4,1,0,-1,-2
1528278669014692,1,1,0,0,-4,-7,-2,-1
1528278669014692,-3,-1,-9,-8,-1,-3,-4,-2
1528278669030945,5,4,0,0,-1,4,4,1
1528278669030945,-2,-6,-1,-1,-4,-2,1,1
1528278669031773,-2,1,-1,-2,-3,1,-4,0
1528278669031773,-2,-2,0,-3,1,-1,-3,-2
1528278669052946,0,-1,0,3,-5,-5,1,-2
1528278669052946,-2,-1,2,1,0,3,-2,1
1528278669054636,0,-1,-6,-8,-4,-5,-3,-3
1528278669054636,-2,-1,-5,2,6,4,1,1
1528278669067655,0,1,1,-3,-6,-4,-5,-2
1528278669067655,-3,-5,-3,0,0,1,1,-2
1528278669074582,1,1,0,-1,0,1,2,0
1528278669074582,-1,-1,2,6,-2,-6,-4,-5
1528278669091538,-1,1,-2,2,2,6,2,-1
1528278669091538,-2,-1,-2,-2,-3,3,3,0
1528278669093561,-1,0,0,0,-4,-6,-5,1
1528278669093561,-2,-2,0,-1,-1,-1,-2,-2
1528278669113521,-2,-3,-4,-4,-5,-5,-3,-1
1528278669113521,-2,-1,-2,2,4,4,2,-2
1528278669114503,-3,0,-5,-1,-5,-2,-1,-2
1528278669114503,-2,-2,-1,2,5,5,2,-1
1528278669127498,1,-2,-1,0,-1,-5,-3,-3
1528278669127498,0,-2,-3,0,-2,-6,-7,0
1528278669134477,0,1,0,-2,-2,5,6,1
1528278669134477,-1,-1,-1,8,2,-1,2,-2
1528278669150434,-4,-3,-7,-17,-10,-7,-9,-3
1528278669150434,-2,-1,3,10,7,9,15,1
1528278669152375,-1,-2,-2,-5,-2,7,5,-2
1528278669152375,-1,-2,-4,-2,-8,-19,-14,-4
1528278669173371,1,1,3,5,3,-6,0,4
1528278669173371,-2,-6,-16,-46,-21,19,13,-1
1528278669174336,-5,-2,14,52,19,-10,-7,-5
1528278669174336,2,4,6,-7,1,-38,-42,-4
1528278669186302,5,3,8,42,30,64,47,13
1528278669186302,2,0,0,7,13,24,12,6
1528278669195314,-2,-4,-3,-11,-13,-1,-4,-2
1528278669195314,-6,-8,-3,-7,-9,-4,9,-6
1528278669210274,-6,-4,-6,-20,-15,-47,-49,-16
1528278669210274,1,1,-1,0,-4,-16,-9,0
1528278669212215,2,3,-6,-28,-4,16,20,6
1528278669212215,-2,1,9,25,9,16,23,1
1528278669232216,-3,-3,1,8,-8,-28,-13,-6
1528278669232216,1,-1,1,-12,5,12,0,-2
1528278669249116,-1,1,1,2,-9,-29,-22,-5
1528278669249116,0,-3,-6,-9,-4,9,1,2
1528278669249116,-1,0,3,-4,2,13,23,4
1528278669249116,-2,1,9,-1,-4,-2,-5,-6
1528278669256123,-1,-1,-4,-21,-4,-14,-8,-1
1528278669256123,0,-2,-4,13,5,24,15,3
1528278669270059,1,2,-1,-13,-28,-20,-6,-5
1528278669270059,-2,-8,-38,-3,-4,-18,-14,-2
1528278669277096,3,3,14,12,14,10,5,0
1528278669277096,-4,-6,-10,13,-1,-2,1,-1
1528278669292053,-1,-2,12,-19,-13,-22,-23,-5
1528278669292053,2,2,0,9,1,-18,12,5
1528278669300978,4,1,-2,-4,3,28,12,6
1528278669300978,2,-1,-23,-15,11,34,11,3
1528278669307013,-1,1,1,4,9,8,1,0
1528278669307013,-3,-4,-7,-4,-1,3,-7,-4
1528278669315989,-3,0,16,-8,-11,-29,-14,-5
1528278669315989,-2,0,10,13,-12,-14,-6,-2
1528278669329953,-3,-1,6,5,5,6,-3,-2
1528278669329953,-3,-4,6,5,3,-6,5,0
1528278669336925,2,1,-7,17,8,20,19,3
1528278669336925,0,-1,-11,-23,-6,-8,-13,-2
1528278669352838,-1,0,2,0,-3,5,10,-1
1528278669352838,-2,-1,5,3,-10,-25,-16,-5
1528278669354834,-3,-4,-7,-10,-4,-4,-7,-5
1528278669354834,-1,1,8,-8,-5,-7,-2,0
1528278669366802,-1,-2,-8,4,2,-1,4,1
1528278669366802,-1,-2,0,0,-1,5,-2,-1
1528278669375777,-1,-3,-5,-5,-3,-1,-6,-3
1528278669375777,3,1,3,-14,-1,5,5,1
1528278669391000,0,0,-9,31,20,13,0,2
1528278669391000,-1,1,4,-6,-11,-18,-10,-3
1528278669391734,-1,-3,-3,-1,-9,-4,-8,-4
1528278669391734,-2,-1,0,1,1,-16,-13,-1
1528278669412698,3,4,-1,-12,7,16,18,8
1528278669412698,0,0,-3,8,10,39,21,1
1528278669414673,-1,-1,4,6,-2,-5,-6,-1
1528278669414673,-1,-3,-1,-14,-9,-13,-7,-5
1528278669426953,-3,-5,-10,-7,-9,-18,-15,-3
1528278669426953,-1,0,3,3,1,-1,2,2
1528278669435947,0,0,-10,-9,-3,-3,0,0
1528278669435947,-1,0,1,7,3,5,0,-2
1528278669450658,-1,-4,-2,-8,-5,-2,-1,-3
1528278669450658,-1,1,5,2,0,-8,-7,-2
1528278669456645,-1,-2,-2,1,1,2,2,1
1528278669456645,-1,1,2,1,-1,5,6,2
1528278669473719,-1,-2,-3,-5,-1,0,-2,0
1528278669473719,-2,-2,0,-2,-2,-3,-5,-3
1528278669474596,-2,-1,-4,-2,-3,-5,-2,-1
1528278669474596,0,1,0,4,2,-4,-10,-3
1528278669495780,0,-2,-3,-6,-1,15,22,2
1528278669495780,-3,-2,0,-2,-4,-13,-9,-3
1528278669497535,-2,-2,-1,3,-3,-22,-7,-1
1528278669497535,1,0,1,-2,1,-5,-6,1
1528278669509807,1,2,2,3,5,23,15,4
1528278669509807,1,1,1,4,7,31,20,6
1528278669516789,-3,-5,-6,-6,-3,-5,-6,-5
1528278669516789,-3,-3,-2,-8,-7,-6,-2,-3
1528278669540736,-3,-4,-3,-4,-10,-27,-19,-6
1528278669540736,0,-1,0,0,-5,-14,-10,-5
1528278669541719,0,-1,-3,-1,-1,5,3,0
1528278669541719,0,-1,1,2,-1,-3,0,-1
1528278669555713,1,1,-4,-6,-4,-2,-3,-2
1528278669555713,0,0,1,1,0,-3,-4,-2
1528278669556949,0,-2,0,3,1,4,1,1
1528278669556949,-1,-1,-1,-2,0,5,5,0
1528278669569644,-1,-2,-1,-3,-1,-2,-1,-2
1528278669569644,0,0,1,-1,-1,-3,-4,0
1528278669576625,-1,1,-2,1,1,-3,-2,-1
1528278669576625,0,-1,0,0,0,5,4,2
1528278669593742,-1,-3,-3,-2,1,-1,-4,0
1528278669593742,-3,-4,0,1,-2,-7,-7,-1
1528278669594639,0,-1,1,-5,-2,3,0,-1
1528278669594639,0,1,0,2,0,3,2,-4
1528278669615906,-1,-2,-2,0,-3,-1,-3,0
1528278669615906,0,1,0,1,-1,-3,-4,-2
1528278669616895,-1,-1,-1,-2,0,0,0,-1
1528278669616895,-3,-1,-1,1,-1,1,1,-1
1528278669630881,0,1,-1,-2,-2,-3,-1,-1
1528278669630881,-2,-1,-1,1,0,-2,-3,-4
1528278669638856,-2,-1,-1,-1,-3,-1,-1,-1
1528278669638856,2,0,-1,-1,5,7,3,0
1528278669647812,-1,-2,-3,-2,-2,-2,-4,-2
1528278669647812,-1,0,-2,-1,-1,-3,-1,-1
1528278669649807,-1,-1,-2,-2,1,1,-1,0
1528278669649807,0,0,2,1,-2,0,0,-1
1528278669659783,-3,-1,-1,-2,-1,-1,-2,-3
1528278669659783,-2,-1,-2,-1,-1,-1,-2,-2
1528278669668813,-2,-2,-2,-3,-3,-1,-1,-1
1528278669668813,-1,-3,-4,0,-4,-3,1,2
1528278669682722,0,0,-1,0,0,1,1,3
1528278669682722,-1,-2,1,0,-1,-2,0,1
1528278669689702,0,2,0,-2,3,2,1,1
1528278669689702,0,1,1,-1,1,-2,-1,0
1528278669705669,-1,2,0,0,0,1,-3,1
1528278669705669,0,0,-2,-1,-2,-1,1,0
1528278669706659,2,2,1,-2,-2,-1,-1,0
1528278669706659,0,1,1,-2,0,-1,-1,-2
1528278669719621,0,-2,-1,0,-2,-2,-1,-3
