timestamp,emg1,emg2,emg3,emg4,emg5,emg6,emg7,emg8
1528448011348026,0,-2,-3,-5,0,0,0,0
1528448011348026,0,1,-1,0,0,0,1,0
1528448011355998,-2,0,-1,2,-4,-2,0,-1
1528448011355998,0,-3,-1,-1,-2,1,-1,-2
1528448011370960,-1,-2,1,-2,0,1,0,2
1528448011370960,-3,-2,-2,1,-1,-2,-3,-2
1528448011377940,-1,-1,-1,-2,-3,-1,0,-1
1528448011377940,-1,-1,-2,-4,2,0,0,1
1528448011388910,-2,0,0,2,-2,-1,-2,-3
1528448011388910,0,-1,0,-1,-1,-2,-3,-3
1528448011400878,0,-1,-1,-4,2,0,-3,-1
1528448011400878,-2,1,-2,0,-1,-2,-2,-1
1528448011407860,-1,-2,-2,0,-1,-1,-2,0
1528448011407860,-1,-2,0,-3,-2,-2,0,-1
1528448011422819,-1,-2,-2,-1,1,1,0,-1
1528448011422819,-1,0,-1,1,-3,0,-1,-4
1528448011430798,-1,2,-2,1,-1,-1,-1,-2
1528448011430798,0,-2,0,-3,0,-1,-2,2
1528448011445758,0,-2,-1,0,-1,0,-2,-3
1528448011445758,-3,-2,-1,-1,-2,0,-1,0
1528448011453737,-1,-1,-2,-1,0,-1,0,0
1528448011453737,-1,-2,-1,-1,0,-1,-1,-2
1528448011468698,-3,-2,-1,-1,-2,-2,1,-2
1528448011468698,0,-1,0,-2,-3,-4,-2,-2
1528448011486650,-1,-2,-1,1,3,2,1,0
1528448011486650,-1,0,0,-2,3,1,0,-1
1528448011490639,0,0,-1,-1,-2,0,-2,-1
1528448011490639,0,-2,-2,-3,-5,-3,-2,-2
1528448011505651,-1,-1,-3,-3,-5,-5,-4,-1
1528448011505651,-1,-2,-1,2,-1,-2,0,-1
1528448011513631,2,1,2,1,0,6,2,1
1528448011513631,3,0,-1,0,4,4,1,4
1528448011528537,-4,0,-1,1,4,2,0,0
1528448011528537,-3,-5,-3,-5,-13,-8,-3,-3
1528448011543552,2,0,-1,-8,-28,-17,-2,0
1528448011543552,-1,0,-2,-2,11,2,-5,-2
1528448011550479,-1,0,3,6,17,21,4,0
1528448011550479,5,2,4,8,12,14,9,4
1528448011565438,-1,-1,4,5,16,11,2,1
1528448011565438,-2,-3,-2,-3,-10,-14,-5,-2
1528448011573417,-4,-4,-6,-11,-24,-18,-8,-5
1528448011573417,-4,-3,-7,-10,-13,-10,-7,-6
1528448011589374,3,-1,-3,-3,-13,-8,-4,-3
1528448011589374,0,3,2,2,4,4,4,4
1528448011603339,-3,-4,-5,-6,-5,-4,-4,-6
1528448011603339,0,-1,0,1,6,5,-2,-3
1528448011611323,-1,0,0,2,5,4,1,1
1528448011611323,8,3,1,0,1,11,4,2
1528448011626330,-3,-3,-2,-5,-13,-23,-6,0
1528448011626330,-4,-1,-2,-5,-10,-2,-2,-1
1528448011633320,-4,-3,-1,1,0,4,2,-2
1528448011633320,10,1,-1,-1,-4,-10,-3,-1
1528448011648216,-9,0,1,5,11,10,3,-1
1528448011648216,-2,-1,0,3,18,7,2,3
1528448011671157,1,2,1,6,1,-2,-9,-5
1528448011671157,14,7,5,9,4,19,33,11
1528448011678137,-12,0,2,2,8,2,-1,0
1528448011678137,-5,-3,-2,-2,-5,-4,-2,-6
1528448011686116,-4,-4,-3,-3,0,-6,-4,-1
1528448011686116,1,-3,-3,-10,-8,-5,-12,-4
1528448011701077,2,3,1,1,-3,-1,7,3
1528448011701077,-2,0,0,4,15,-5,-5,-2
1528448011708057,-18,-6,-4,-4,-6,10,0,-7
1528448011708057,0,-1,-3,-3,-11,-7,-13,-5
1528448011723033,9,2,4,2,2,-2,-5,0
1528448011723033,2,0,-1,-4,-4,-3,22,5
1528448011737977,-2,1,1,2,-7,-7,-14,-6
1528448011737977,2,1,0,4,0,9,5,0
1528448011745956,-1,-7,-4,-3,7,5,3,-1
1528448011745956,3,2,2,0,-2,-1,-12,-1
1528448011760924,1,1,-3,-3,-5,-10,4,2
1528448011760924,-6,-4,-2,-2,-11,-3,-11,-4
1528448011767897,16,0,-1,0,7,10,8,3
1528448011767897,-15,-4,-1,5,8,-1,-6,-1
1528448011782857,-4,-3,-6,-8,-15,-19,-10,-7
1528448011782857,-2,5,2,-3,-10,-12,-21,-5
1528448011790836,4,-4,-1,2,0,7,8,5
1528448011790836,10,7,4,1,9,-1,-7,0
1528448011805796,-3,5,4,6,-6,-5,-6,-3
1528448011805796,-1,-5,-8,-15,-24,-23,-7,-3
1528448011820757,4,1,-2,4,15,16,3,2
1528448011820757,-7,1,5,12,15,2,-15,-3
1528448011828735,-11,0,3,10,19,23,28,3
1528448011828735,2,-2,-1,1,1,13,24,6
1528448011843705,-6,1,-4,-9,-16,-4,14,1
1528448011843705,5,2,1,-7,-16,-17,-11,-1
1528448011850676,-1,-5,-6,-2,-2,-7,-11,-3
1528448011850676,2,-1,-4,-1,-2,2,5,3
1528448011865637,1,1,-4,-7,-13,-24,-26,-9
1528448011865637,3,-4,-6,0,7,10,11,2
1528448011880596,7,1,2,1,3,6,5,1
1528448011880596,-23,-8,-4,-3,5,1,-10,-3
1528448011888575,2,1,-1,-2,-1,-3,-11,-2
1528448011888575,1,-1,-1,-2,-10,-5,9,-3
1528448011903535,2,1,2,3,2,3,3,5
1528448011903535,7,0,1,0,-9,-2,-2,-1
1528448011910517,2,1,0,-4,-6,-14,0,2
1528448011910517,-1,0,1,2,8,6,-3,1
1528448011925476,-4,-1,-2,-1,-7,-12,-9,-2
1528448011925476,2,0,0,-3,-5,7,7,5
1528448011940436,-3,5,1,-1,-5,-6,5,-2
1528448011940436,1,-4,-5,-1,0,-8,-21,-6
1528448011948415,4,2,0,0,7,17,25,5
1528448011948415,8,5,3,-3,-7,-8,-18,-5
1528448011963375,-18,-8,-4,1,-2,6,16,0
1528448011963375,1,3,1,2,14,0,0,1
1528448011970356,1,-1,-1,-2,-5,4,7,0
1528448011970356,-4,-3,-1,1,2,-3,-11,-5
1528448011985317,5,-1,-2,-3,-4,-1,-3,0
1528448011985317,0,-3,-2,-4,-12,-12,-3,-3
1528448011993295,-3,-5,-6,-3,-9,-17,-22,-4
1528448011993295,-10,-2,0,3,12,20,20,4
1528448012008255,1,3,3,-2,0,-8,-14,-5
1528448012008255,2,0,-2,-2,-6,-11,-5,-2
1528448012023215,2,3,0,2,3,11,10,5
1528448012023215,-5,0,-3,-5,-9,-5,1,-2
1528448012031212,-2,-4,-3,-1,1,3,1,0
1528448012031212,-3,3,2,5,1,-3,-8,-3
1528448012046154,-1,-3,-1,-3,0,-2,-4,-3
1528448012046154,3,-1,-3,-5,-8,-6,-6,-3
1528448012053135,-5,-3,-3,-5,-7,-9,-4,-2
1528448012053135,5,1,-1,2,2,-1,-2,3
1528448012068095,2,1,2,5,8,21,20,6
1528448012068095,-3,-3,-2,-2,-2,-7,-10,-3
1528448012083058,3,3,-2,-5,-12,-17,-11,-6
1528448012083058,5,0,3,1,-1,-9,-13,-3
1528448012091033,-15,-4,0,2,4,6,10,1
1528448012091033,4,-3,-2,-2,-2,-3,-10,-4
1528448012112975,-3,1,1,1,4,11,15,4
1528448012112975,-4,-4,-4,-2,0,-5,-4,-3
1528448012120953,3,3,5,0,2,8,-2,-2
1528448012120953,-5,-4,0,-2,-5,-11,-16,-10
1528448012135913,8,-2,-3,-2,-1,-2,3,0
1528448012135913,-3,-1,-2,0,1,0,-5,-2
1528448012150873,0,1,1,-3,-1,-2,-13,-4
1528448012150873,-2,-3,-1,1,0,2,5,-4
1528448012157900,2,-3,-3,0,2,-2,-5,-1
1528448012157900,-2,0,-1,0,0,-3,2,0
1528448012165861,-5,-5,-3,-2,-2,-13,-11,-6
1528448012165861,5,1,-3,-2,-4,-1,-2,5
1528448012172847,-1,-1,-4,-3,-5,-7,-5,-4
1528448012172847,2,-3,0,2,4,7,5,2
1528448012188772,3,4,2,1,5,8,3,2
1528448012188772,4,0,0,-2,-2,2,4,3
1528448012202735,-4,-4,-3,-5,-5,-6,-6,-7
1528448012202735,-2,-3,-2,-4,-5,-8,-6,-5
1528448012210715,0,2,1,1,-1,-1,2,3
1528448012210715,-1,-1,0,3,7,13,19,7
1528448012225675,4,4,2,0,0,0,-10,-4
1528448012225675,3,-2,-2,-4,-3,2,9,5
1528448012233654,-7,0,-1,-4,-8,-20,-22,-10
1528448012233654,4,0,1,-1,2,6,-1,2
1528448012248613,-4,-2,-3,-2,-6,-18,-10,-5
1528448012248613,3,1,0,-1,-3,6,2,-3
1528448012263573,-1,0,1,0,-4,-3,-3,-1
1528448012263573,1,3,2,2,4,6,8,3
1528448012270608,0,-6,-5,-4,-1,-5,-4,-3
1528448012270608,-8,1,-1,-1,1,-2,-2,-1
1528448012285569,-2,-1,-1,-2,-3,-3,-2,1
1528448012285569,0,0,-1,-1,-1,-4,-1,-1
1528448012293503,2,0,0,0,2,3,8,4
1528448012293503,-1,0,-2,-3,-2,-5,-4,-3
1528448012308480,3,-3,-1,-1,0,-1,-2,-1
1528448012308480,-3,-2,-3,-5,-5,-1,0,0
1528448012323465,-4,-4,-2,-2,-2,-3,0,-1
1528448012323465,1,-3,0,1,4,7,6,0
1528448012330395,-4,-1,-2,-2,-2,-4,-7,-3
1528448012330395,-1,2,-2,0,1,11,13,3
1528448012345354,1,-5,-2,-1,-1,-4,-5,-1
1528448012345354,-2,-2,-2,0,2,0,3,-1
1528448012353333,-3,-2,-1,-2,-2,0,-5,-3
1528448012353333,-2,0,-1,-2,-4,-13,-13,-5
1528448012368294,-7,0,0,3,8,25,25,6
1528448012368294,-2,-4,-1,-4,-5,-11,-13,-4
1528448012391232,0,1,2,2,-1,0,1,0
1528448012391232,5,2,1,-1,-3,5,13,6
1528448012398359,2,-3,-5,-5,-7,-12,-10,-3
1528448012398359,4,0,0,4,8,5,11,4
1528448012413900,-3,-1,-2,0,3,6,6,0
1528448012413900,-3,-1,-1,-3,-2,3,9,1
1528448012421027,-1,0,-1,-4,-5,-4,-5,-2
1528448012421027,0,-3,-3,-1,-4,-5,-3,-3
1528448012435981,2,-1,-1,-1,-2,2,3,2
1528448012435981,-4,-1,0,-3,-4,-1,-1,-2
1528448012451000,0,0,-3,-3,-2,-3,-3,-1
1528448012451000,0,-1,-1,-1,-6,-10,-10,-3
1528448012466294,-1,-2,0,2,0,3,3,0
1528448012466294,0,-1,2,1,4,4,2,0
1528448012473269,2,-2,-1,0,1,-1,-4,-3
1528448012473269,-3,-3,-3,-3,-3,-3,-4,-3
1528448012488230,1,-1,-2,1,0,1,0,-2
1528448012488230,-4,-2,-1,0,3,1,3,0
1528448012503218,2,-1,-1,-1,-1,1,-2,-1
1528448012503218,-4,0,-1,-3,-5,-7,-4,-3
1528448012511085,2,0,-1,-2,-2,-1,0,1
1528448012511085,-4,-2,-4,-3,-2,-1,-3,-1
1528448012526221,-2,-1,0,1,-2,-3,-5,-2
1528448012526221,-2,1,0,4,6,2,4,-1
1528448012533247,-2,-3,0,1,6,10,11,3
1528448012533247,-2,-1,-2,-3,-3,-5,-6,-2
1528448012548300,-3,-1,-1,-2,-1,-4,-5,-4
1528448012548300,-2,-3,-2,-1,0,-2,1,-1
1528448012563908,-1,1,0,0,-1,-1,1,1
1528448012563908,-1,-3,0,1,4,4,2,1
1528448012570999,-4,-1,-2,-3,-3,-4,-3,-4
1528448012570999,0,-2,-2,-3,-1,0,-2,-1
1528448012593132,-1,-2,-3,-1,-3,-1,1,-1
1528448012593132,0,-3,-3,-4,-3,-1,-2,-2
1528448012601356,2,2,-1,0,1,0,0,0
1528448012601356,-2,-1,-2,0,-3,-2,-4,-3
1528448012616321,-1,-1,1,1,1,-2,-1,1
1528448012616321,2,-1,1,-1,-1,1,-1,-1
1528448012630843,0,-2,0,-1,2,-1,-2,0
1528448012630843,-4,0,0,-2,-2,-2,-4,-2
1528448012638871,-1,-4,-1,1,-2,-2,-1,-2
1528448012638871,0,0,0,0,-2,0,-1,-2
1528448012653841,-2,0,-1,0,1,1,-1,-2
1528448012653841,-2,-1,0,2,3,2,-1,0
1528448012675883,-1,-2,0,0,-1,-1,-3,-3
1528448012675883,0,1,0,0,-1,0,0,-2
1528448012683816,-3,-3,-2,-3,-5,-4,0,0
1528448012683816,-2,-1,-1,-4,-3,-5,-8,-5
1528448012698824,-1,-1,-2,0,-2,-1,4,0
1528448012698824,0,0,0,-3,-3,0,2,0
1528448012705801,0,-2,0,0,1,2,0,0
1528448012705801,-5,-1,0,0,-2,-2,-1,-1
1528448012721159,-3,0,-1,0,-3,-2,-3,-2
1528448012721159,1,-1,-2,-1,-4,-4,0,1
1528448012736122,2,1,1,2,1,3,1,1
1528448012736122,-1,0,1,3,7,6,3,1
1528448012751081,1,1,0,2,5,1,-1,0
1528448012751081,0,0,-3,-1,2,-1,-5,-2
1528448012758089,-3,-3,-2,-2,-8,-8,-5,-3
1528448012758089,-1,0,-2,-4,-4,-3,0,-2
1528448012773021,-1,-2,-2,0,-1,-4,-3,-1
1528448012773021,-1,1,-2,-3,-5,-4,-3,-2
1528448012796252,1,-2,1,1,0,3,4,1
1528448012796252,0,-3,0,-3,-3,-2,-3,-1
1528448012803226,-3,-2,0,-2,-2,-1,0,-1
1528448012803226,0,-4,-2,-2,-2,-4,-1,-2
1528448012818190,-1,-1,-2,-2,-1,-1,-2,-3
1528448012818190,-2,-1,0,1,-1,0,0,1
1528448012826003,-1,-2,-1,0,5,3,0,0
1528448012826003,0,-3,-3,-2,-3,-4,-3,-2
1528448012840977,1,0,0,1,4,3,1,0
1528448012840977,-1,-1,2,2,8,5,3,0
1528448012855922,-1,1,-1,-2,-6,-4,0,0
1528448012855922,-1,-1,-2,-1,1,5,1,-1
1528448012870883,0,0,0,1,0,0,0,1
1528448012870883,-1,-1,0,-1,0,-1,-2,0
1528448012878078,-1,-2,-3,-5,-7,-8,-5,-2
1528448012878078,-1,-1,0,0,-2,-1,1,-1
1528448012893201,-1,0,-1,0,0,-1,-1,-1
1528448012893201,0,0,-1,0,-1,-1,0,0
1528448012908141,1,-1,-2,-3,-4,-5,-2,-1
1528448012908141,-2,-2,-2,0,-2,-2,0,-1
1528448012916147,-1,0,0,-2,3,2,-2,-2
1528448012916147,-3,-3,-3,-3,-2,-3,-2,-2
1528448012930674,-1,-1,-2,-1,-3,-2,-3,-1
1528448012930674,1,1,0,0,1,2,-1,0
1528448012946484,-3,-2,1,0,1,2,0,-1
1528448012946484,0,0,-2,-3,-3,-3,-3,-1
1528448012960430,-1,-1,-1,2,6,14,4,1
1528448012960430,2,0,2,4,11,5,1,1
1528448012975758,-3,-3,-3,-5,-4,-3,-2,-2
1528448012975758,-1,-4,-3,-7,-12,-15,-5,-2
1528448012983737,-1,-3,-3,-5,-6,-9,-3,-2
1528448012983737,-1,-1,0,1,2,2,1,-2
1528448012998661,0,-1,-2,-7,-11,-11,-3,-1
1528448012998661,-2,-3,-2,-2,-3,-6,-2,-2
1528448013013826,0,2,0,2,0,1,1,-1
1528448013013826,-3,-2,-2,-3,-8,-10,-3,-2
1528448013028841,0,-1,-1,-2,-7,-6,-2,-1
1528448013028841,-2,-2,-5,-8,-10,-10,-3,-1
1528448013035828,0,-2,-1,1,1,1,-2,-1
1528448013035828,1,1,3,4,10,11,5,0
1528448013050791,0,1,0,4,9,10,0,0
1528448013050791,-2,0,1,1,1,0,0,-1
1528448013065747,-3,-1,-3,-3,-9,-11,-6,-3
1528448013065747,0,-2,-2,-4,-14,-7,-3,-1
1528448013080811,0,-1,-1,0,-1,3,0,-2
1528448013080811,-1,0,-1,-3,0,-2,-2,-1
1528448013095787,-1,-3,-1,-3,-9,-6,-2,-2
1528448013095787,-2,-2,0,-3,-6,-4,0,-3
1528448013103814,-3,0,-1,0,1,0,-1,0
1528448013103814,-2,-3,-3,-5,-4,-7,-4,-3
1528448013117993,0,0,1,7,22,17,8,2
1528448013117993,1,2,2,5,8,13,5,2
1528448013133010,-2,-1,-1,0,-10,-7,-2,-1
1528448013133010,-2,-2,-2,-3,-6,-7,-2,-1
1528448013148840,-2,-2,-1,-2,1,-1,1,0
1528448013148840,0,-1,0,-3,-2,-2,-2,-1
1528448013155749,-2,-1,0,-2,-4,-3,-2,-1
1528448013155749,-2,-2,0,-1,-4,-1,-3,-1
1528448013170849,-1,-1,1,2,2,3,0,-1
1528448013170849,0,2,1,-1,1,-1,-1,-1
1528448013178688,0,0,-1,-2,-2,0,-2,0
1528448013178688,-3,1,0,0,-1,0,-1,-1
1528448013193648,2,-2,0,-2,-2,-2,-2,-1
1528448013193648,-1,-2,-2,-2,-8,-5,-2,-3
1528448013208850,0,-1,-5,-3,-2,-5,-2,-1
1528448013208850,-1,0,0,0,3,5,1,0
1528448013223813,0,0,1,1,1,9,3,1
1528448013223813,0,-1,1,3,10,7,2,2
1528448013238823,0,-3,0,-1,-3,-2,0,-2
1528448013238823,-1,-1,-3,-3,-6,-7,-4,-1
1528448013245804,-3,-3,-2,-5,-6,-8,-4,-1
1528448013245804,1,0,-1,-3,-4,-2,-1,-1
1528448013260627,0,-2,-3,-2,0,-2,-2,-2
1528448013260627,-2,0,0,-1,-1,-1,-2,-1
1528448013275954,-2,-1,-1,0,-2,-1,-1,0
1528448013275954,-2,-2,-3,-3,-3,-3,-2,-2
1528448013290793,2,2,1,0,-1,-1,-1,0
1528448013290793,1,-2,1,0,0,0,0,-2
1528448013298824,-1,-2,0,-1,0,-3,-1,0
1528448013298824,0,-2,-1,-1,-2,-1,-2,-2
1528448013313547,-3,-2,-2,-2,1,0,-2,-1
1528448013313547,0,-2,-1,0,-2,-3,-1,-1
1528448013328509,-2,0,-1,-1,-1,-1,-1,-4
1528448013328509,0,0,0,-1,0,0,-1,2
1528448013336358,1,-1,-3,-2,-3,-2,-1,-1
1528448013336358,1,-1,-4,-1,-2,-1,-1,0
1528448013351416,2,-1,-1,0,-1,-2,0,-2
1528448013351416,-5,-2,-2,-2,-1,-1,-2,-1
1528448013358265,-3,0,-3,-2,-2,-3,0,0
1528448013358265,-2,0,0,1,0,-1,1,-1
1528448013373392,-1,0,3,1,-1,-2,0,-2
1528448013373392,-2,-1,-2,-1,-1,0,-1,-2
1528448013388296,0,0,-2,-2,-1,0,0,-1
1528448013388296,0,1,1,-2,-2,-1,1,-2
1528448013396223,-1,-1,-1,0,-1,1,-2,1
1528448013396223,0,-2,0,-1,-1,-1,-2,-2
1528448013411182,-5,-2,-1,-1,1,0,-1,-1
1528448013411182,0,0,0,0,-1,-2,-1,-2
1528448013418164,1,-2,-2,-2,0,-2,0,-1
1528448013418164,-1,1,1,0,-1,-1,-1,-1
1528448013433125,-2,2,1,0,-2,0,0,-3
1528448013433125,-1,-5,-9,-3,-1,0,0,3
1528448013448084,-3,-2,-1,-1,-1,-1,-1,-1
1528448013448084,2,3,1,0,0,-2,-1,-1
1528448013456063,-1,-3,-2,-1,0,0,0,-2
1528448013456063,-1,0,0,-1,-3,-1,1,0
1528448013471023,-1,-1,1,0,-1,-1,-2,0
1528448013471023,-2,-2,-3,-2,-1,1,-2,0
1528448013478005,-2,-4,-4,0,-1,-3,-1,-1
1528448013478005,-2,0,1,-2,1,-2,-1,-3
1528448013493020,3,1,1,1,1,-1,-1,0
1528448013493020,-1,-2,-1,-2,0,-2,-2,-5
1528448013500998,0,-1,1,-1,-2,-2,0,-1
1528448013500998,3,-2,-5,-3,-3,-2,-2,-2
1528448013515957,2,-2,-1,-1,-1,-2,-2,-3
1528448013515957,-1,-1,3,1,-2,-1,-1,0
1528448013530919,0,0,-2,-2,-3,-2,-1,-2
1528448013530919,0,0,-2,-2,-1,-1,-2,-1
1528448013537902,-3,1,-2,-1,-3,-1,-2,0
1528448013537902,-3,-2,-1,-1,-2,-2,-1,1
1528448013552858,0,-1,-1,-1,-1,-2,0,-1
1528448013552858,0,-1,-2,0,0,0,0,0
1528448013560792,-3,-4,-2,-2,0,1,-2,-1
1528448013560792,-2,1,1,0,-1,-2,-1,-2
1528448013575742,0,-3,-3,-2,-1,0,-1,3
1528448013575742,0,-1,-1,-2,-1,-1,-2,-1
1528448013590703,1,-1,0,0,-1,-1,-1,0
1528448013590703,-3,-4,-5,-2,0,0,0,-1
1528448013598682,-3,1,-2,-3,-1,-2,-2,-2
1528448013598682,0,0,-2,-1,-2,-1,0,0
1528448013613642,-2,0,1,0,-1,0,0,-2
1528448013613642,-2,-2,-1,-1,-1,-2,0,-1
1528448013628602,-2,1,4,0,1,-2,0,-1
1528448013628602,0,-1,-1,-3,-2,-2,-2,0
1528448013635583,1,0,1,-1,0,-2,-1,-4
1528448013635583,-1,-2,-1,-2,-1,0,-3,-2
1528448013650543,1,2,-2,-1,-2,-2,-1,-1
1528448013650543,2,-3,-1,0,-1,-2,1,0
1528448013665503,-6,-3,-4,-3,0,-1,-1,-2
1528448013665503,-1,2,2,-2,-1,2,-1,-1
1528448013680463,2,4,4,1,-1,-2,-1,-1
1528448013680463,-2,-1,-2,-2,0,0,-1,-1
1528448013695424,-1,-3,-6,-5,-2,-1,-1,-1
1528448013695424,-4,0,-1,-2,0,-2,-1,0
1528448013711412,-2,-2,-2,-3,-1,-3,-1,-1
1528448013711412,-1,-3,-2,0,0,-1,-2,-1
1528448013718502,-1,0,1,0,0,-1,-1,-1
1528448013718502,-2,-2,-1,0,-3,-1,-2,-1
1528448013733480,1,0,-2,0,0,1,-1,0
1528448013733480,2,-2,-3,-1,-1,-2,0,-1
1528448013748439,-1,-2,0,0,-1,1,-2,1
1528448013748439,-4,-2,-4,-2,-2,-2,-2,-3
1528448013763242,0,-1,-1,-1,1,0,-1,0
1528448013763242,-2,0,-1,-2,0,-1,1,-3
