timestamp,emg1,emg2,emg3,emg4,emg5,emg6,emg7,emg8
1528185442856016,6,11,15,4,10,11,-1,2
1528185442856016,21,17,-5,3,3,-21,0,5
1528185442861999,-14,-15,2,-3,2,9,1,-5
1528185442861999,1,-9,-15,4,3,10,4,5
1528185442876958,-5,-2,4,-1,-6,-6,1,-4
1528185442876958,0,-1,-3,-4,-6,-4,-4,4
1528185442886932,3,-1,2,-4,-6,-9,-5,-5
1528185442886932,-7,0,8,-3,-11,-21,-8,-6
1528185442901893,-2,11,5,5,0,10,-1,-4
1528185442901893,-7,-25,-22,-8,-2,1,-2,2
1528185442906880,3,6,5,6,11,8,9,2
1528185442906880,0,3,-5,4,8,16,-1,-4
1528185442921839,-6,-14,-17,-1,-21,-34,-10,6
1528185442921839,5,4,-1,2,14,-6,5,1
1528185442963727,-5,-7,-23,-31,-23,-25,-19,-4
1528185442963727,-11,-13,-3,10,-11,-87,-24,2
1528185442963727,2,2,-11,12,14,41,2,3
1528185442963727,3,20,15,1,-3,5,6,-4
1528185442967718,-6,-29,0,4,16,14,9,12
1528185442967718,9,22,-3,-7,-9,4,5,4
1528185442968715,2,-8,-13,0,-13,-52,-13,0
1528185442968715,-3,-2,10,13,32,27,-5,-1
1528185442973701,-1,6,26,16,13,44,21,5
1528185442973701,-18,-15,-17,-13,-16,-27,-11,-13
1528185442981680,8,6,13,-12,-1,28,8,4
1528185442981680,5,6,-12,14,8,-10,-5,0
1528185442990657,6,3,-2,-1,-9,-27,0,-3
1528185442990657,5,12,4,-15,4,43,4,-2
1528185443004618,-10,6,6,14,8,-3,0,2
1528185443004618,-3,-30,-11,-16,-41,-41,-11,-8
1528185443011600,2,5,-6,9,-2,-24,-15,-8
1528185443011600,-8,-15,-5,23,17,28,4,-5
1528185443035535,10,5,2,-6,-5,-35,-7,3
1528185443035535,-8,4,-2,-11,24,60,15,3
1528185443036532,-1,-6,1,2,-18,-19,-6,-5
1528185443036532,8,11,7,2,5,0,0,0
1528185443048503,-7,3,-6,6,5,-4,-9,-8
1528185443048503,-6,-19,-14,-17,-19,-27,1,1
1528185443057478,-4,-4,1,-2,-14,-29,-12,-5
1528185443057478,2,6,-3,-26,-8,16,5,1
1528185443072437,1,-3,13,22,13,28,9,-1
1528185443072437,-2,4,-2,-47,-26,-39,-9,12
1528185443074432,17,26,-14,-3,16,22,1,-13
1528185443074432,-6,-24,-2,-1,-3,-6,-9,0
1528185443095375,-4,-2,-3,25,14,12,3,-5
1528185443095375,3,3,15,-31,-32,-17,-5,0
1528185443096374,-2,-9,-7,13,20,16,11,7
1528185443096374,0,10,2,-6,-18,-31,-8,-2
1528185443109337,1,13,3,-34,-17,7,2,-2
1528185443109337,-7,-18,-2,25,26,12,1,-4
1528185443125296,-4,0,10,27,7,-1,2,1
1528185443125296,1,2,2,-8,-10,-1,-10,-11
1528185443132277,-2,-3,-1,-12,-36,-35,-12,5
1528185443132277,6,8,0,10,3,-13,4,1
1528185443134271,-9,-1,10,4,-1,16,-1,1
1528185443134271,-2,-10,0,28,24,19,10,-8
1528185443155215,-3,-9,2,-12,-13,-12,-5,-2
1528185443155215,3,3,-15,-8,5,6,3,1
1528185443157209,-1,-7,-1,-10,-11,-9,-3,6
1528185443157209,2,7,7,5,3,7,10,7
1528185443169178,-1,-5,-21,-5,-2,-7,-5,-2
1528185443169178,3,10,4,43,29,29,9,1
1528185443178153,-5,-2,6,-43,3,11,8,-1
1528185443178153,4,15,-4,-20,-8,-4,-7,-1
1528185443193113,-12,-21,4,1,-1,-5,8,-3
1528185443193113,2,11,-1,24,-7,-19,-9,0
1528185443194128,-3,-5,-9,-14,-7,6,-2,1
1528185443194128,5,1,6,-3,2,8,4,-1
1528185443215056,-2,-6,-9,-30,-13,-12,-8,-7
1528185443215056,-3,-4,-2,6,-4,2,0,0
1528185443217052,-3,4,10,25,-2,-3,-8,-5
1528185443217052,2,-5,-1,1,3,0,-14,-4
1528185443229019,6,1,-6,3,8,3,4,12
1528185443229019,1,10,0,-13,1,5,3,-4
1528185443237995,3,-3,-9,-5,-4,-6,-8,-4
1528185443237995,-8,0,5,8,7,13,4,2
1528185443252953,0,-1,-2,3,-2,-3,0,-5
1528185443252953,-3,-16,-20,-13,-18,-20,-22,-9
1528185443253951,0,4,-13,-14,-11,-12,0,-6
1528185443253951,-2,-10,0,13,12,10,16,7
1528185443274895,5,7,1,-36,-5,1,0,0
1528185443274895,-8,-6,-1,-2,-8,4,1,-8
1528185443276891,1,-3,2,3,10,7,0,1
1528185443276891,4,5,11,12,-7,-11,1,-5
1528185443288892,23,-3,-2,5,5,-1,-3,0
1528185443288892,-31,4,-4,-8,-8,-4,-7,-20
1528185443297834,-6,13,30,2,-3,-6,-9,20
1528185443297834,-30,-32,17,-2,2,0,0,-16
1528185443312794,-25,4,-13,17,15,13,11,5
1528185443312794,82,20,-8,-18,-6,-3,-24,1
1528185443314788,-5,-17,-9,3,-5,-6,25,21
1528185443314788,-77,-13,4,-3,0,-7,-15,-13
1528185443342716,-5,2,38,15,7,0,-44,-20
1528185443342716,36,15,45,34,9,13,82,27
1528185443343713,52,15,10,-7,2,12,-27,15
1528185443343713,-43,-26,-65,-27,-13,-10,49,-10
1528185443356678,10,11,10,9,5,2,9,36
1528185443356678,1,0,-16,6,-1,-8,-15,-15
1528185443357674,-19,13,-23,4,1,4,15,-21
1528185443357674,77,-4,-18,-21,-17,-26,-29,65
1528185443371850,-114,-17,18,5,-6,-16,-19,-27
1528185443371850,-20,-35,-26,-22,-6,3,-7,-11
1528185443372846,12,15,5,-17,11,32,5,-7
1528185443372846,-12,4,-20,18,12,-15,-19,-18
1528185443394938,64,-4,-29,-20,-4,32,20,9
1528185443394938,-16,-11,0,-8,-15,0,-3,8
1528185443395797,-43,-26,-14,-3,-30,-59,-30,-45
1528185443395797,32,37,80,38,19,18,1,25
1528185443416729,27,-24,-5,4,-16,-97,-7,-3
1528185443416729,-39,-11,12,-27,-6,95,19,7
1528185443417732,-10,-3,-21,-28,-18,-75,-27,-8
1528185443417732,12,-18,-17,-14,-14,22,9,-13
1528185443431692,-13,-3,-19,1,27,11,-16,6
1528185443431692,-4,18,11,59,94,83,9,-7
1528185443438671,19,-9,-18,-2,0,-22,16,22
1528185443438671,30,5,-34,26,28,14,-1,5
1528185443455625,-5,20,57,-29,-66,-47,-3,-5
1528185443455625,-8,-12,-14,-5,-29,-14,3,25
1528185443456623,22,15,6,28,25,51,2,-40
1528185443456623,-3,13,5,-13,-4,-9,4,38
1528185443476702,-46,3,-51,12,-6,4,3,-34
1528185443476702,63,23,15,7,-22,-63,-26,8
1528185443484577,-25,-22,16,-5,-31,-18,16,34
1528185443484577,8,-14,0,-19,-4,9,0,-13
1528185443492606,6,11,-5,-10,8,13,9,2
1528185443492606,-25,-12,-49,23,-3,-13,-22,-17
1528185443492606,-12,-7,-18,17,31,33,8,3
1528185443492606,7,10,16,15,-12,-30,-28,-29
1528185443514481,25,-13,-60,-20,2,41,18,19
1528185443514481,-31,-18,-8,-23,-20,-45,-13,-28
1528185443515479,6,-14,-18,4,10,11,4,18
1528185443515479,-14,10,-3,8,22,43,11,-11
1528185443536757,7,8,38,29,16,0,-3,-26
1528185443536757,16,-16,-32,-17,-3,-2,6,22
1528185443537590,-43,-3,-26,-3,-9,-9,2,4
1528185443537590,44,2,-1,-22,-25,-20,-6,9
1528185443552525,-39,-7,-9,-16,-6,5,-1,-23
1528185443552525,-23,15,58,3,15,3,4,-14
1528185443552525,52,-3,14,7,-4,5,-8,2
1528185443552525,-2,-16,-31,-6,-17,-13,14,4
1528185443574454,10,5,11,6,10,24,4,13
1528185443574454,-1,12,39,-21,-7,-22,-7,18
1528185443575452,-10,-12,13,4,-2,7,-10,-52
1528185443575452,-14,9,-2,-8,-12,-5,6,13
1528185443597394,-16,8,55,15,9,2,-19,-9
1528185443597394,7,7,28,-23,-7,-11,-3,-27
1528185443597394,-2,19,35,-14,-8,2,22,69
1528185443597394,-83,-14,-13,-13,-1,2,-4,-79
1528185443619335,59,21,25,13,-2,-3,-23,12
1528185443619335,-24,-25,-2,2,1,-5,-2,-11
1528185443620332,-7,23,-14,26,13,16,6,-5
1528185443620332,59,-10,-22,-13,-7,-12,-22,15
1528185443634331,-4,-6,-6,-16,-10,-4,7,8
1528185443634331,-22,8,-50,11,5,-5,-14,-5
1528185443635292,13,-7,-38,-6,-1,0,5,-39
1528185443635292,-10,8,51,11,-1,-2,5,19
1528185443657285,40,-26,-41,0,5,8,-3,-15
1528185443657285,2,-12,5,-10,-7,-9,-8,0
1528185443658232,5,21,9,26,3,-4,-21,-4
1528185443658232,0,-14,-29,-33,-14,-12,0,-4
1528185443672340,-23,-22,-34,-18,-42,-40,-8,-2
1528185443672340,-6,10,-3,6,25,20,12,-9
1528185443673338,32,7,42,23,32,54,34,12
1528185443673338,-50,10,-15,16,14,4,-2,13
1528185443695176,9,-10,-7,-46,-34,-26,-14,3
1528185443695176,34,-4,-16,-15,-3,21,21,19
1528185443695176,-35,-11,-16,-5,-24,-51,-47,-47
1528185443695176,-26,5,31,21,13,28,24,1
1528185443717073,1,37,26,23,39,6,21,30
1528185443717073,4,-11,-1,-14,-35,-27,-27,-23
1528185443718071,-12,-8,4,-23,-18,0,-13,-10
1528185443718071,35,0,35,-4,22,14,3,-8
1528185443733032,-53,-17,7,10,22,75,40,15
1528185443733032,21,-2,2,1,18,-33,-1,12
1528185443734027,-14,1,-1,10,2,-19,-20,-21
1528185443734027,19,25,-4,32,12,16,-2,-34
1528185443754138,9,23,15,-6,30,35,19,30
1528185443754138,-11,36,55,-4,-12,6,-5,9
1528185443762109,-5,-58,12,-14,-42,-52,2,20
1528185443762109,-16,-21,-9,-9,-64,-59,-34,-30
1528185443777069,82,-1,-4,17,60,34,1,-2
1528185443777069,-54,0,-15,9,8,24,22,21
1528185443777911,13,16,-10,-25,-13,-12,-12,0
1528185443777911,34,-4,-34,23,-13,-19,-16,3
1528185443792031,-32,-7,-3,-6,-37,-25,-6,-53
1528185443792031,27,-24,-76,-20,-1,-8,-17,51
1528185443792887,-17,4,-14,-10,10,-2,8,0
1528185443792887,55,8,10,8,15,33,28,32
1528185443815108,-58,-9,-18,21,28,-7,5,8
1528185443815108,-1,-22,1,13,10,53,1,-30
1528185443815108,15,-2,0,-22,-8,-10,-1,18
1528185443815108,-58,-12,1,32,12,-21,-4,20
1528185443838056,-19,-21,-20,-3,-10,6,-2,6
1528185443838056,-12,4,24,2,10,-14,7,-20
1528185443844907,25,20,1,-5,-16,-5,2,-12
1528185443844907,-38,24,42,-33,-3,-5,-4,7
1528185443852026,31,26,-19,6,4,14,-9,-21
1528185443852026,-15,-39,-34,34,4,-6,-13,-2
1528185443852875,-12,-26,-34,-9,-4,7,14,-14
1528185443852875,8,-4,-26,-16,-16,-1,-18,-2
1528185443874819,15,14,-17,15,17,18,10,1
1528185443874819,63,21,-8,-42,-17,-25,-26,-9
1528185443875816,-78,-3,-33,-6,8,3,10,-12
1528185443875816,-14,-40,-51,-21,-49,-61,-21,0
1528185443898753,-8,-8,65,-7,20,57,22,-9
1528185443898753,-29,4,14,36,34,27,17,-4
1528185443899792,31,-5,46,15,15,18,-8,-16
1528185443899792,17,29,1,-34,-9,-19,-21,-4
1528185443911877,19,9,20,10,-44,-59,-16,-15
1528185443911877,47,17,37,-23,-22,-15,0,-4
1528185443912715,-28,-50,19,0,11,3,1,10
1528185443912715,22,2,-16,-3,8,10,2,-4
1528185443934027,-25,-8,40,-7,-22,-19,-7,1
1528185443934027,-1,-15,0,21,3,-4,4,-6
1528185443941842,9,1,-14,-18,7,16,2,7
1528185443941842,51,-11,16,16,13,26,13,28
1528185443956944,-66,-11,24,4,-5,-15,-17,-10
1528185443956944,-11,8,-29,-27,-10,-10,10,-14
1528185443957797,-16,9,-3,-2,-2,0,-8,-10
1528185443957797,-33,-8,21,15,21,21,2,7
1528185443979738,39,6,-55,-27,-19,-24,10,7
1528185443979738,-18,-5,-30,-6,-14,-11,-11,-2
1528185443980735,15,21,-1,15,13,17,3,28
1528185443980735,-11,-19,-18,-7,10,8,9,-45
1528185443994042,5,0,31,-7,-1,-5,5,13
1528185443994042,17,7,41,-5,-33,-36,-24,-29
1528185444002043,2,15,22,17,14,24,9,20
1528185444002043,3,0,3,-44,-12,-3,4,17
1528185444017227,7,-16,-6,39,27,13,-3,-9
1528185444017227,-10,-7,36,23,23,44,20,-5
1528185444018061,0,20,-16,-1,-10,-32,-10,31
1528185444018061,4,-6,10,24,14,-7,-8,-1
1528185444039365,8,2,-26,-29,-22,2,4,13
1528185444039365,-1,13,-2,-4,-22,-28,-1,14
1528185444040224,1,-28,-21,4,18,12,2,14
1528185444040224,-3,0,-6,-6,-3,12,5,4
1528185444054346,1,-12,-53,-17,6,10,-5,3
1528185444054346,-8,9,-23,15,9,0,1,1
1528185444062172,13,8,-34,-6,-15,7,8,1
1528185444062172,-14,-13,-11,-24,-7,-8,-10,-4
1528185444077493,-4,4,-18,0,-10,-26,-18,-32
1528185444077493,-9,-15,-16,-10,-10,8,10,17
1528185444078463,3,-7,19,0,4,3,-4,-13
1528185444078463,-9,16,17,29,11,-4,-5,-31
1528185444099428,12,5,-5,12,-10,-7,-1,16
1528185444099428,-10,-11,-47,4,9,-2,-1,-7
1528185444100274,7,3,17,0,-6,0,-3,-6
1528185444100274,-12,0,-4,-21,1,13,15,-20
1528185444123332,2,-5,2,1,-5,-6,-16,26
1528185444123332,-1,7,-8,24,16,6,7,26
1528185444123332,-6,1,-18,-33,-15,-9,-3,-24
1528185444123332,1,-10,-1,5,2,14,7,10
1528185444137170,-10,-13,12,7,3,-5,0,-10
1528185444137170,-29,4,-25,-15,-8,-11,-15,-18
1528185444138171,19,2,12,6,0,-3,8,22
1528185444138171,3,4,-20,0,-5,-2,2,5
1528185444159330,5,20,16,-10,-6,-11,-7,-27
1528185444159330,-14,-27,24,14,1,0,-12,2
1528185444160278,5,8,8,7,5,4,2,-3
1528185444160278,-7,-2,-12,-11,-2,-1,9,18
1528185444182220,4,-11,-33,-18,-5,4,-4,-27
1528185444182220,0,-6,16,-5,-2,-5,-3,-6
1528185444183217,-3,2,-16,-1,1,1,-5,-3
1528185444183217,-1,-2,-2,-21,-18,-4,-3,-18
1528185444197207,2,-3,-4,17,22,4,-3,29
1528185444197207,7,0,-18,-3,4,6,6,8
1528185444198178,2,-7,-19,-1,1,7,2,-3
1528185444198178,-23,-31,-18,4,-3,-6,-7,-18
1528185444219176,-1,6,20,-9,-15,-12,-2,-6
1528185444219176,5,0,-9,-8,-6,-4,-2,-10
1528185444220119,-7,-6,21,8,1,-1,-8,-1
1528185444220119,12,-7,15,7,0,-1,-1,14
1528185444243109,-7,0,-2,14,5,-11,2,4
1528185444243109,-7,-4,21,-22,-8,10,-1,-16
1528185444243109,-1,16,-5,-11,-7,-4,-3,0
1528185444243109,10,12,7,2,6,5,2,15
1528185444257020,-2,4,60,14,-4,-4,2,3
1528185444257020,3,20,60,17,4,-6,-2,3
1528185444258017,6,3,30,-22,-8,-9,-2,-8
1528185444258017,-7,8,9,23,15,13,-3,-3
1528185444279957,-1,-10,-7,-10,-4,5,0,5
1528185444279957,-3,14,21,-5,-17,-15,-6,9
1528185444279957,-6,-17,-32,18,16,4,-4,-20
1528185444279957,12,27,22,6,3,7,5,3
1528185444302897,-1,-24,-35,-7,2,0,-3,-13
1528185444302897,-2,-5,-4,17,-3,-11,-3,10
1528185444303895,-11,-10,-22,-18,-22,-12,-11,-6
1528185444303895,9,12,10,5,9,7,8,0
1528185444316860,-3,2,3,-9,-4,4,-1,-10
1528185444316860,4,0,-16,-9,-1,-3,-5,10
1528185444317866,-19,2,-27,15,9,5,3,6
1528185444317866,-6,3,4,-18,-8,-10,-7,-4
1528185444339798,-2,-3,-4,-5,-3,0,2,-22
1528185444339798,-2,4,13,-1,8,0,-3,-26
1528185444340796,12,15,21,14,1,1,2,15
1528185444340796,0,-4,-35,-10,-1,3,-2,-9
1528185444362737,-9,-3,-20,-2,-9,-13,-8,-5
1528185444362737,10,6,33,-5,-4,2,1,-6
1528185444363734,4,-3,27,10,1,2,-2,-2
1528185444363734,-34,-1,-13,-3,-5,-3,-1,-9
1528185444376700,0,1,-7,1,3,-6,-1,16
1528185444376700,4,6,10,9,5,8,3,-1
1528185444377697,0,1,8,-16,-10,-4,-6,-1
1528185444377697,8,-4,2,0,-3,-4,3,2
1528185444399639,-2,-9,5,6,6,10,4,15
1528185444399639,-7,7,-11,-5,-3,2,2,10
1528185444400636,0,2,-7,-11,-5,3,1,-25
1528185444400636,14,6,11,9,0,-3,-5,19
1528185444422577,1,-2,-10,9,8,-2,-1,-1
1528185444422577,-1,-18,-35,-26,-7,-4,1,-1
1528185444423575,1,13,25,26,6,1,2,5
1528185444423575,1,-7,-37,-5,-2,-2,-2,-11
1528185444436556,-6,-11,-47,-9,-7,1,-3,-11
1528185444436556,-2,-9,2,-12,-3,-3,-5,10
1528185444437538,1,9,-7,-8,-4,0,-2,-5
1528185444437538,-7,-2,18,5,2,0,0,-9
1528185444460477,7,4,-4,-6,-3,-3,6,11
1528185444460477,-3,-2,-13,2,0,0,3,-4
1528185444461474,2,-2,-4,-1,3,-2,1,-1
1528185444461474,7,2,26,1,-3,1,1,15
1528185444482417,-4,-5,1,-8,-1,0,0,0
1528185444482417,4,-1,-11,1,3,5,-3,4
1528185444483414,1,3,4,3,-2,-1,0,-3
1528185444483414,-5,-5,3,3,2,1,3,-1
1528185444497386,2,8,1,-9,-9,-9,-5,-11
1528185444497386,-4,-4,-11,3,-1,-5,-1,-2
1528185444497386,0,-2,8,-1,2,5,0,5
1528185444497386,-1,-5,-14,-5,-1,-5,-3,-7
1528185444520524,0,5,27,1,-4,-7,-5,8
1528185444520524,5,0,0,9,3,5,4,-2
1528185444521633,-4,-6,-6,-3,-1,-1,-2,-3
1528185444521633,2,-6,-2,-3,-5,-4,-2,0
1528185444542825,-1,2,-5,2,-2,0,1,-1
1528185444542825,-4,-1,-3,2,2,-1,-1,-4
1528185444543660,-1,-2,-4,-6,-2,-3,-2,-3
1528185444543660,0,-1,-4,1,1,-2,-3,-1
1528185444565743,0,1,9,0,3,6,1,3
1528185444565743,-3,-4,-28,-2,-2,-3,1,0
1528185444566643,-4,-2,-6,-3,-3,-4,-2,-7
1528185444566643,-1,-11,-20,-1,1,2,-1,3
1528185444589694,-1,-2,-6,-1,-3,4,0,-1
1528185444589694,2,0,3,-2,-2,-3,-2,2
1528185444590581,-2,-5,4,2,4,-1,-2,-5
1528185444590581,-1,2,7,0,-16,-6,-4,-7
1528185444602639,-2,-2,-2,-15,3,2,-1,0
1528185444602639,-1,-2,6,5,1,2,0,-1
1528185444603501,0,-1,-2,-1,-4,-2,-1,3
1528185444603501,2,0,8,13,23,9,2,1
1528185444617608,-2,-1,-2,-3,-9,6,2,2
1528185444617608,-3,-5,-2,-6,-8,-6,-3,-3
1528185444618471,0,-1,-1,-3,-3,-2,-1,3
1528185444618471,-1,-4,2,-1,-1,-4,-2,-1
1528185444640858,-2,0,4,1,-1,-3,-4,-5
1528185444640858,-2,-2,-11,-3,-1,-4,-3,-3
1528185444640858,2,1,6,0,1,1,2,2
1528185444640858,-1,4,2,0,1,-2,-2,-3
1528185444663072,-2,-2,-5,0,0,1,-2,0
1528185444663072,0,0,4,-2,-7,-1,-1,0
1528185444663928,-1,-2,-4,0,4,2,1,4
1528185444663928,-2,-2,-1,-5,-3,-4,-3,-2
1528185444677029,-1,-1,4,2,-2,-5,-3,-1
1528185444677029,-1,1,4,6,2,0,1,-1
1528185444677891,-1,-2,-11,8,-1,-2,0,-1
1528185444677891,-1,1,-4,-30,1,4,1,0
1528185444699832,-1,-2,1,16,4,-1,-3,0
1528185444699832,2,4,3,13,-3,-3,-2,1
1528185444700834,-3,-5,0,8,9,-1,-2,-1
1528185444700834,0,1,-2,-23,-13,0,-1,0
1528185444722773,0,-2,-5,0,1,-2,0,-1
1528185444722773,-2,-3,-5,-6,2,1,0,-1
1528185444723768,0,-1,2,16,4,1,1,0
1528185444723768,-1,-2,1,1,-3,-5,-3,-1
1528185444736928,-1,1,5,0,-1,1,1,-1
1528185444736928,1,2,4,-5,2,0,0,-2
1528185444745165,0,-2,-3,-3,-8,-4,-1,-2
1528185444745165,-1,-2,-6,-6,-6,0,1,0
1528185444760161,0,0,-4,-10,1,-2,-1,-2
1528185444760161,-2,-1,3,-23,4,-2,-2,0
1528185444760161,-4,-1,0,-18,-21,-9,-5,-1
1528185444760161,2,1,3,57,37,20,4,1
1528185444783184,0,-4,-11,-5,3,1,-2,0
1528185444783184,1,8,24,26,6,-4,-1,1
1528185444784113,0,-2,0,-4,-2,-2,-1,-1
1528185444784113,-2,1,3,-19,-21,-10,-3,-2
1528185444797021,0,-3,-6,27,24,8,3,1
1528185444797021,-1,-4,-9,-10,-7,-2,-1,-1
1528185444804964,-1,1,3,-20,2,1,-1,1
1528185444804964,-1,1,4,6,-16,-4,0,-3
1528185444819921,-2,-3,-1,27,11,1,0,0
1528185444819921,-3,-7,-12,-68,-21,-5,-3,-3
1528185444820976,1,-1,0,17,5,2,-2,1
1528185444820976,-1,-2,-3,-8,2,-2,-2,-4
1528185444843060,2,3,11,6,-4,-3,-2,0
1528185444843060,-3,-8,-18,13,7,7,2,0
1528185444843938,0,7,5,-14,-14,-3,-1,-1
1528185444843938,-5,-8,-8,0,4,2,-2,-4
1528185444855895,0,-4,1,-15,-23,-8,-2,-2
1528185444855895,-3,-8,-2,23,14,0,-2,-1
1528185444871842,-1,0,-7,-16,-7,-4,-1,0
1528185444871842,-1,0,-4,11,12,5,1,0
1528185444879821,-1,0,1,-10,-16,-7,0,-1
1528185444879821,-3,-2,-7,7,14,7,2,-1
1528185444880819,-1,-2,2,-3,-11,-10,-6,-2
1528185444880819,0,-2,6,4,-6,-9,-4,-3
1528185444902902,-3,-3,-9,-16,4,7,2,-3
1528185444902902,-1,-3,-19,14,0,-1,0,-2
1528185444903756,-1,-4,10,-21,-8,2,0,0
1528185444903756,2,15,12,8,-7,-9,-3,0
1528185444925830,-5,-15,12,-7,-3,-2,-4,-2
1528185444925830,2,6,-3,14,1,-1,1,-1
1528185444925830,-2,-11,-8,12,5,-2,-1,-1
1528185444925830,0,-3,-10,-11,0,-2,-1,0
1528185444939817,-3,6,-4,-6,-3,-3,-2,1
1528185444939817,0,-1,10,-7,-5,-4,-3,0
1528185444940814,-2,-5,-21,10,9,7,0,-3
1528185444940814,-1,-2,5,-6,-7,-4,-1,-1
1528185444962740,0,4,2,3,1,2,0,-2
1528185444962740,0,0,3,-2,-8,-3,-1,-2
1528185444963612,0,5,1,-1,9,1,0,-1
1528185444963612,-5,-8,-10,1,-3,-4,-2,-1
1528185444985680,-2,2,1,-4,-8,2,-1,-1
1528185444985680,-2,-5,-13,-6,-1,0,0,-3
1528185444986536,0,2,8,8,6,5,1,1
1528185444986536,-1,-1,-1,-6,-2,-4,-2,-1
1528185444998646,0,-2,-11,-6,1,-7,-2,-2
1528185444998646,-2,1,9,-4,-6,-4,-2,-1
1528185445008511,-1,-1,14,2,-1,0,-2,-2
1528185445008511,-1,-7,-26,0,0,-1,-1,-2
1528185445022577,1,10,6,-3,-1,0,-2,0
1528185445022577,1,7,19,3,-3,-5,-4,-1
1528185445024434,0,-3,-19,5,3,7,0,1
1528185445024434,-2,2,21,7,-2,5,-1,-1
1528185445036538,-1,-3,-8,-38,-9,-4,-4,-2
1528185445036538,-2,1,-2,4,-1,3,1,0
1528185445045378,0,-1,-4,-5,0,-5,-4,-1
1528185445045378,0,1,11,12,0,1,0,-1
1528185445059487,1,0,-6,10,5,0,2,-2
1528185445059487,-4,-5,2,-1,-1,-3,-3,-1
1528185445068332,-2,-5,3,-7,-1,-3,0,-1
1528185445068332,-2,0,-4,0,1,1,-1,0
1528185445083314,1,-5,-6,-13,-5,-9,-3,-1
1528185445083314,-1,1,-3,5,-2,3,-2,0
1528185445084283,0,5,2,4,-1,-5,0,0
1528185445084283,-1,-2,-2,0,4,4,0,-1
1528185445105358,-2,-2,4,5,-3,2,0,0
1528185445105358,1,-3,8,-1,0,1,-1,-1
1528185445107213,-2,0,-15,-8,-2,-2,0,-2
1528185445107213,0,-4,-1,-7,-1,1,-3,0
1528185445119337,-4,-4,-4,8,0,-3,-1,0
1528185445119337,-2,-8,3,-3,-3,-3,-1,-2
1528185445128157,-1,-1,-5,-5,-2,0,-1,-2
1528185445128157,-1,2,2,-2,-2,-5,-1,-1
1528185445143252,-1,-2,-2,2,-1,0,-2,0
1528185445143252,0,2,-3,-2,-1,0,0,-1
1528185445144142,-2,-1,1,5,-1,-2,-1,-2
1528185445144142,-4,-1,-1,-4,-2,0,-1,-2
1528185445165195,-2,-1,1,2,0,2,2,2
1528185445165195,5,4,-2,-2,-2,-2,0,0
1528185445167053,1,-1,1,-1,-2,0,1,-1
1528185445167053,0,-1,-3,-4,-1,0,1,-3
1528185445179357,-3,-2,0,2,-2,-1,-2,-3
1528185445179357,-1,-2,-3,0,-3,-4,-2,-1
1528185445188172,-2,-2,2,1,-2,1,-2,-4
1528185445188172,-2,0,-2,-2,-2,-1,-1,2
1528185445203135,1,-1,-1,3,1,-1,0,1
1528185445203135,-1,-1,-1,-2,-1,1,-2,-2
1528185445204129,-1,-1,1,-2,0,-2,-1,-1
1528185445204129,0,2,2,-1,-1,-1,0,-4
1528185445224079,-1,4,-8,-2,-2,-1,1,-1
1528185445224079,-1,-7,-2,-1,-1,0,-1,0
1528185445233052,-3,-4,-7,-1,-1,0,-1,0
1528185445233052,-2,-6,-2,0,-1,-3,-1,-1
1528185445239171,-2,11,13,1,-2,-1,-3,-3
1528185445239171,3,11,14,0,-3,-3,1,0
1528185445248019,-4,-18,-19,0,0,1,1,-1
1528185445248019,-2,-7,-9,-1,2,0,-2,-4
1528185445263108,1,4,-9,-2,-1,0,0,0
1528185445263108,-4,4,2,-1,1,0,-4,-3
1528185445263969,5,11,18,3,-4,-3,-2,4
1528185445263969,10,6,-10,-8,-6,-4,-2,0
1528185445285072,0,-10,-3,2,-1,-1,-2,-4
1528185445285072,-8,-7,-4,2,1,1,0,0
1528185445286907,-3,2,-1,-3,-2,0,-1,0
1528185445286907,-5,1,4,-1,0,-2,-2,-1
1528185445298907,7,-2,-4,-2,-2,-3,-1,-1
1528185445298907,0,-5,-5,-3,1,0,1,0
1528185445307852,-4,2,5,0,-1,1,-2,-3
