timestamp,emg1,emg2,emg3,emg4,emg5,emg6,emg7,emg8
1528270577125416,-6,-6,-1,-3,-4,1,3,-7
1528270577125416,-4,-6,-4,-2,-4,3,0,-3
1528270577141373,-2,4,1,1,0,-7,-36,-10
1528270577141373,3,2,0,1,9,11,32,8
1528270577143394,3,1,-2,0,4,12,6,1
1528270577143394,-5,-4,-3,-5,-7,-8,-20,-17
1528270577164311,0,-2,3,-4,-4,3,20,20
1528270577164311,1,-3,-1,1,-3,-12,-9,3
1528270577165309,-1,2,1,-1,-5,-1,-4,-11
1528270577165309,-4,1,-3,2,0,-6,-19,-6
1528270577178283,-5,-12,-13,-7,-4,-5,22,2
1528270577178283,-1,-1,-6,-3,-8,-11,-39,-11
1528270577185305,-4,0,1,-3,-3,2,12,1
1528270577185305,6,5,0,1,0,7,17,12
1528270577201266,-4,0,4,5,7,12,3,-17
1528270577201266,3,7,16,2,8,7,-3,9
1528270577203209,1,-6,-12,-3,-1,-5,-12,-12
1528270577203209,-20,-33,-31,-11,-11,-4,1,-14
1528270577224152,-1,-8,-2,-5,-8,-16,-16,-7
1528270577224152,-6,0,-3,4,0,2,-3,3
1528270577226147,-2,1,-1,-8,-8,-3,12,2
1528270577226147,13,10,10,4,1,-4,19,25
1528270577238115,5,5,0,1,12,12,1,6
1528270577238115,-10,-10,-8,-5,-2,-7,-41,-23
1528270577247091,4,7,10,5,5,-1,16,3
1528270577247091,1,-1,1,-3,-3,1,-8,-1
1528270577261053,2,-1,0,0,-8,-8,10,9
1528270577261053,0,3,4,-3,-8,-19,-11,-16
1528270577263051,-4,-2,-2,1,2,7,-2,1
1528270577263051,1,5,6,4,17,24,30,-3
1528270577283993,2,10,15,3,-1,-7,-6,6
1528270577283993,-4,-4,-3,-6,1,4,-1,0
1528270577285987,-4,-6,-10,-5,-5,-6,-5,1
1528270577285987,-2,-2,0,-4,-19,-21,-25,-12
1528270577297955,-2,-1,1,-8,-21,-8,7,-6
1528270577297955,2,1,3,9,17,0,8,8
1528270577306931,2,2,5,22,29,15,19,4
1528270577306931,2,14,6,-14,20,16,-12,6
1528270577321891,-5,-11,-9,-2,-28,-5,1,-6
1528270577321891,4,2,3,-4,24,14,-4,7
1528270577322889,-1,-7,-2,0,-7,-10,-7,-2
1528270577322889,1,2,3,9,0,-3,15,4
1528270577343859,-2,-3,-2,1,0,2,-5,-2
1528270577343859,0,1,-1,7,-13,-5,-6,-3
1528270577345827,-2,0,1,-6,6,3,1,-1
1528270577345827,2,2,0,-6,-8,1,-1,2
1528270577357795,-7,-6,-4,-8,1,-3,-14,-8
1528270577357795,0,-7,-10,-3,-32,-7,4,5
1528270577366772,2,6,7,7,-12,-12,-6,2
1528270577366772,0,-3,-2,-7,-16,1,-3,3
1528270577381731,-2,-2,-1,0,28,14,9,-1
1528270577381731,1,3,-5,-1,41,6,-2,1
1528270577382764,-2,2,1,3,-9,-10,-8,-3
1528270577382764,-2,-5,0,3,-5,-4,-3,-2
1528270577403672,1,3,-9,-32,-10,10,9,1
1528270577403672,-1,0,1,-4,-19,8,-4,1
1528270577405668,-1,-3,-4,-31,-50,-16,-12,-4
1528270577405668,0,1,1,25,41,-4,0,0
1528270577417636,-2,-3,-1,20,6,-4,1,-2
1528270577417636,-2,0,4,-5,-26,-7,-4,-2
1528270577426612,0,-3,-4,2,40,8,1,0
1528270577426612,-2,-4,0,-1,-29,-10,-1,-3
1528270577441578,4,13,2,9,20,4,-1,1
1528270577441578,-2,-10,-3,0,-12,-4,-2,-1
1528270577443569,-4,-7,0,21,-13,-6,-3,-1
1528270577443569,-2,-3,-3,-28,44,19,4,-1
1528270577463512,1,-1,-7,-47,-20,-9,-6,-2
1528270577463512,1,6,1,7,-1,0,1,-1
1528270577465517,0,0,-1,7,10,8,2,0
1528270577465517,-1,-3,-2,11,10,-1,-3,0
1528270577477514,-2,-3,1,11,-13,-9,-3,-2
1528270577477514,0,3,2,0,-1,-5,-4,-2
1528270577503405,1,-2,2,3,7,2,-1,0
1528270577503405,-1,-9,2,44,-3,2,-2,0
1528270577504403,0,-2,-7,-58,-15,-3,0,-3
1528270577504403,-1,-3,-2,-23,8,0,0,0
1528270577507433,-3,0,3,-5,-4,3,-4,-1
1528270577507433,1,7,3,5,-4,-3,0,1
1528270577524350,-3,-3,-4,20,1,0,1,-1
1528270577524350,-1,-1,0,-3,-13,-6,-3,0
1528270577525348,-2,3,-8,-10,-5,-2,-2,-1
1528270577525348,-4,-3,1,-19,-27,-11,-5,-3
1528270577537316,0,0,3,29,17,6,2,1
1528270577537316,-2,1,-8,-9,14,2,-3,-3
1528270577546291,-1,-2,0,-7,-8,-7,-4,-3
1528270577546291,-1,-3,-2,-3,-38,-7,-2,-1
1528270577561251,-3,-4,-2,10,2,0,-2,-2
1528270577561251,-2,-2,-6,-18,21,0,1,-2
1528270577563246,-2,2,4,14,-2,2,-1,-1
1528270577563246,-2,-3,-7,-23,-6,-1,0,-1
1528270577584191,2,2,-2,1,-8,-4,0,1
1528270577584191,-5,-14,0,18,-10,-2,-3,-3
1528270577586395,-2,-6,-5,-13,7,-1,-1,-1
1528270577586395,1,16,-2,13,-10,-4,-2,-3
1528270577598414,-2,-16,2,7,21,5,-1,-1
1528270577598414,-5,-27,-13,-23,-9,-4,-7,-3
1528270577606372,4,3,0,11,3,4,7,1
1528270577606372,2,-2,-1,-6,-1,-4,-2,-2
1528270577621305,-10,1,12,15,17,3,-2,-3
1528270577621305,1,-3,-6,5,-16,-5,2,3
1528270577623298,-7,-6,-1,-12,4,0,-2,-4
1528270577623298,1,5,15,23,4,2,2,1
1528270577644242,0,-5,-19,-13,-9,-5,-2,-1
1528270577644242,-1,1,17,8,-17,-7,-3,-3
1528270577645239,-3,0,-2,-13,25,3,-2,-2
1528270577645239,4,5,-6,5,2,0,2,0
1528270577658206,-2,0,-4,21,6,0,-1,-2
1528270577658206,1,11,5,3,-10,0,2,0
1528270577667183,-4,1,-2,-14,-8,0,1,-1
1528270577667183,7,4,1,7,-13,-4,-4,-2
1528270577681181,1,18,22,25,16,0,-1,0
1528270577681181,-11,-13,-14,-20,9,2,-1,-2
1528270577683138,13,12,6,-9,-10,-3,-1,2
1528270577683138,-4,-5,-5,4,26,0,-3,1
1528270577704094,0,-30,-2,9,-13,5,3,2
1528270577704094,4,9,4,15,9,-1,1,-2
1528270577706078,-5,0,-4,-3,-11,-3,-6,-4
1528270577706078,5,13,5,-9,-4,-2,-3,-1
1528270577718100,-3,-1,-8,-11,-5,-3,1,-3
1528270577718100,-1,2,6,2,-3,4,-2,3
1528270577727055,-4,-12,-4,-7,-3,-4,8,-1
1528270577727055,-5,6,13,6,12,-8,-17,-1
1528270577742014,1,8,1,-7,-13,2,22,-1
1528270577742014,5,8,-7,4,13,2,-3,-1
1528270577742977,2,4,6,41,-21,-6,-3,0
1528270577742977,-12,-24,-14,-50,15,11,4,-2
1528270577763921,-3,-1,-14,-22,4,-2,-8,-3
1528270577763921,10,3,12,11,-7,-5,-1,2
1528270577765916,-6,-6,-12,5,-32,-3,-2,1
1528270577765916,0,-12,0,-43,5,3,3,0
1528270577777884,4,3,3,21,10,-3,-11,-2
1528270577777884,4,7,-13,-2,-5,-4,0,-1
1528270577786860,5,14,5,-6,23,4,-5,-1
1528270577786860,-11,-19,-9,7,-18,-6,0,-3
1528270577800824,0,14,-4,14,-8,0,0,-2
1528270577800824,2,10,0,-23,-15,-9,-3,0
1528270577807859,1,-5,5,-1,18,5,0,0
1528270577807859,-5,0,-4,31,-15,-7,-4,-6
1528270577823817,6,3,1,-33,-14,-4,0,1
1528270577823817,-9,-13,-5,28,-4,2,6,0
1528270577825757,-7,-21,1,-29,11,13,8,-1
1528270577825757,2,4,6,10,11,-9,-8,-4
1528270577846756,-4,-2,-2,-18,-17,-9,-7,-2
1528270577846756,1,13,17,12,3,-1,-10,-5
1528270577847752,-1,-13,-8,-3,10,2,6,2
1528270577847752,-5,-12,-3,2,-13,-1,-17,-1
1528270577860717,3,-3,2,7,1,0,26,0
1528270577860717,-6,7,3,-5,8,2,5,3
1528270577867690,-3,-9,-22,-13,-6,-4,-13,-2
1528270577867690,4,-1,11,4,-2,3,6,1
1528270577883656,-7,0,3,21,-8,-6,-20,-4
1528270577883656,3,-1,-24,-36,12,10,11,4
1528270577885600,0,10,3,9,7,-5,0,-2
1528270577885600,-9,-9,-14,-2,-1,0,-1,-4
1528270577897621,6,3,-2,-6,-8,-2,-3,0
1528270577897621,-4,-19,5,26,-5,1,1,-1
1528270577906541,-2,9,13,-9,-12,-1,-5,-2
1528270577906541,2,-1,-9,-9,28,1,3,1
1528270577920504,-5,3,13,20,6,7,0,1
1528270577920504,7,-3,-1,-21,-19,-13,-6,-3
1528270577935464,3,-3,-18,-8,-1,0,-1,-1
1528270577935464,0,3,6,-3,-9,0,11,0
1528270577942445,-6,-15,-3,-13,-21,-5,-3,-1
1528270577942445,-5,0,-6,21,45,10,-4,-1
1528270577951436,6,18,14,-22,-16,-5,-1,0
1528270577951436,-1,9,-1,-17,-2,-1,4,-3
1528270577966400,1,-10,0,11,0,0,-7,1
1528270577966400,2,1,1,-11,-17,-4,-3,-4
1528270577968376,-14,-22,14,36,8,-3,-2,-5
1528270577968376,8,2,-13,35,-2,1,1,3
1528270577989557,-5,-10,-15,-61,10,-3,-5,-3
1528270577989557,-11,-17,4,-14,-10,-1,-9,-5
1528270577990318,2,-8,-5,-3,3,3,15,1
1528270577990318,5,11,9,22,7,5,1,0
1528270578003407,-2,4,0,15,-23,-10,-3,-4
1528270578003407,3,-4,-11,-31,22,8,1,5
1528270578011262,-4,-11,-21,1,-27,-9,-7,-2
1528270578011262,-9,-22,-20,30,20,7,0,-1
1528270578026230,1,7,-6,-31,-6,1,1,2
1528270578026230,9,23,25,10,23,3,4,2
1528270578028217,4,17,16,23,3,0,-1,2
1528270578028217,-5,-13,-12,-39,-23,-5,1,-2
1528270578049399,0,6,-7,27,24,2,-6,-3
1528270578049399,-5,-5,-18,-21,-28,-11,-3,-2
1528270578050499,12,6,-6,-2,-8,-1,-1,1
1528270578050499,-2,8,13,4,6,2,2,-1
1528270578063394,-1,1,-4,20,-1,-2,-2,-2
1528270578063394,-3,4,-8,-49,4,-5,-5,-4
1528270578072117,2,6,-4,-18,15,2,-2,-3
1528270578072117,-4,-2,-1,-3,-23,-6,-7,-2
1528270578087094,-1,-11,20,-7,-7,4,7,3
1528270578087094,0,-10,-14,51,-13,-8,0,-2
1528270578100289,1,-1,-10,6,-5,0,-3,-2
1528270578100289,-5,-16,-25,-54,-7,0,-2,0
1528270578109657,2,9,1,-5,3,-4,1,3
1528270578109657,-2,3,8,21,-1,0,-1,-1
1528270578111370,5,3,5,-8,-2,0,-8,3
1528270578111370,-4,0,11,40,-3,-7,16,1
1528270578123442,1,1,-12,1,29,1,-6,-1
1528270578123442,-8,0,12,-18,-8,9,6,-1
1528270578131543,-3,-6,-11,29,1,-4,-4,-6
1528270578131543,-3,1,7,-24,-9,-3,-6,-1
1528270578146845,5,3,13,-6,14,0,0,1
1528270578146845,2,-6,14,6,15,-2,-13,-1
1528270578148906,-2,1,11,12,-5,3,9,-1
1528270578148906,-3,-8,-4,-4,12,-6,-6,-4
1528270578169940,-8,-22,12,19,-16,-8,-5,-7
1528270578169940,0,3,15,-5,-7,-4,1,1
1528270578170953,-4,-5,0,-11,-11,0,-4,0
1528270578170953,2,2,-4,-11,-13,-1,0,2
1528270578182939,0,-3,-21,0,26,5,-3,0
1528270578182939,3,16,14,13,8,3,2,0
1528270578191881,-1,2,-2,-13,-11,-6,-7,-2
1528270578191881,-2,3,11,15,-4,0,-6,-2
1528270578206853,4,0,-7,1,-30,-4,7,0
1528270578206853,-1,-4,-14,-12,16,3,0,-3
1528270578208861,-6,-1,-15,-10,3,-6,-12,-3
1528270578208861,5,11,-6,-6,7,12,28,3
1528270578229449,-7,6,17,19,-14,0,-20,-7
1528270578229449,3,12,-23,-1,-25,-13,-25,-3
1528270578231087,-10,-15,8,-21,8,0,30,-2
1528270578231087,11,7,-5,14,-7,-4,-10,1
1528270578243302,-3,4,-7,0,7,-1,7,0
1528270578243302,1,6,4,12,-7,3,10,1
1528270578252020,-6,-17,11,-2,-5,-4,-22,-2
1528270578252020,0,2,-24,-18,1,0,-3,0
1528270578265986,-9,-17,-17,-17,-1,2,0,-1
1528270578265986,-6,13,0,13,-6,-1,14,-4
1528270578273223,2,11,7,13,-17,-7,-1,1
1528270578273223,13,4,-2,-44,19,5,10,3
1528270578289186,5,7,13,-3,3,0,-15,0
1528270578289186,-2,-6,1,10,1,2,20,2
1528270578290927,-18,-26,-16,16,-2,-3,-24,-8
1528270578290927,1,11,39,29,5,-1,3,-1
1528270578302896,3,6,-10,-39,4,1,-3,1
1528270578302896,-4,-13,-7,-6,-15,-3,-13,-4
1528270578311860,2,5,1,15,15,13,27,6
1528270578311860,-3,6,2,24,-10,-7,-14,-4
1528270578326500,-5,-7,-37,-27,-2,-3,-14,-2
1528270578326500,-1,-16,9,7,-3,-2,-1,0
1528270578333544,3,34,-7,-28,4,1,28,-1
1528270578333544,-5,-15,14,4,3,-4,-9,0
1528270578349800,-5,-6,28,16,-12,-1,24,-3
1528270578349800,11,-3,-21,8,11,5,-11,3
1528270578351552,-6,-8,-2,7,-9,-11,-23,-4
1528270578351552,-1,-3,-1,-36,-17,0,3,0
1528270578362454,-4,1,3,58,9,-6,-8,0
1528270578362454,4,-10,-14,-60,-2,-5,-15,-2
1528270578371413,3,8,4,-8,0,8,19,3
1528270578371413,-4,-8,-13,-4,-14,-3,-9,-1
1528270578385605,7,-5,-18,8,12,4,-1,1
1528270578385605,-8,7,32,43,-11,0,-2,-1
1528270578394352,-1,0,7,-42,-6,-3,7,-1
1528270578394352,-6,-5,7,-11,-15,-2,-7,-2
1528270578417638,7,19,2,2,36,2,-17,1
1528270578417638,-6,-22,-19,10,-9,-4,30,3
1528270578419285,0,2,-9,-7,-21,-3,-19,-6
1528270578419285,-8,-11,-15,21,39,3,0,-3
1528270578423429,1,-15,0,-30,-6,-2,5,0
1528270578423429,6,17,-7,8,-10,-7,-10,-2
1528270578432542,-3,-21,3,15,15,-2,-11,-2
1528270578432542,4,22,-9,-16,-5,4,17,1
1528270578446467,-5,14,14,7,-12,2,0,-4
1528270578446467,-11,-17,-14,-8,8,-2,-5,-3
1528270578453360,10,3,7,25,-8,-8,-19,-1
1528270578453360,-5,4,-7,-3,-4,7,28,3
1528270578469414,-2,0,-17,-13,-1,-12,-27,-7
1528270578469414,-6,-12,7,-2,-11,-9,-17,-5
1528270578471153,4,17,-4,19,36,8,9,-1
1528270578471153,-10,-50,-6,26,1,0,-6,-3
1528270578483376,-1,-17,1,-48,-16,2,9,4
1528270578483376,-6,-2,0,1,2,-2,1,-1
1528270578492093,5,4,-3,-12,-6,-2,-8,1
1528270578492093,7,2,-7,-13,3,0,-17,-3
1528270578506520,1,24,16,46,-7,4,13,2
1528270578506520,0,9,24,-33,5,-4,0,-3
1528270578513037,-7,-18,-5,33,3,1,-1,-1
1528270578513037,15,4,15,-39,-9,-5,-4,11
1528270578529340,-20,2,9,59,-8,-6,-3,-18
1528270578529340,0,-8,-3,-51,13,8,14,3
1528270578530991,-2,12,-9,0,-17,-5,-17,-3
1528270578530991,-8,-18,12,-9,9,2,-5,0
1528270578552190,23,29,-7,26,-11,-1,1,10
1528270578552190,-15,-54,-6,15,12,4,9,-2
1528270578553189,4,1,-10,2,-8,-3,4,1
1528270578553189,-17,-20,-5,0,-12,-12,-29,-10
1528270578566209,-5,-20,13,-27,-4,9,22,1
1528270578566209,-7,-11,-23,0,-11,-9,20,5
1528270578573432,3,12,-2,-14,-22,-12,-11,-9
1528270578573432,34,9,-22,27,20,26,12,3
1528270578589416,2,3,-11,-13,34,18,11,0
1528270578589416,18,38,8,13,9,8,-10,1
1528270578590141,-16,-18,-1,-16,1,-1,4,0
1528270578590141,-6,15,20,14,-15,-28,-14,-6
1528270578612452,-6,-9,0,-18,-19,-10,1,-1
1528270578612452,1,-12,-15,6,-8,-7,-10,-4
1528270578613380,3,2,-5,-6,0,-2,6,4
1528270578613380,-5,-2,1,-22,-7,-3,3,-5
1528270578625608,-4,-4,-17,-3,-5,-2,-7,0
1528270578625608,1,25,6,14,-7,-3,-3,-2
1528270578634323,-1,-1,-4,-4,8,6,4,-1
1528270578634323,4,5,-12,13,3,4,1,2
1528270578656520,-5,-9,11,2,2,-7,-24,-2
1528270578656520,5,4,-14,-8,-10,-5,-7,-5
1528270578658276,1,-10,-21,-3,5,8,24,5
1528270578658276,-4,24,8,9,1,-5,7,-5
1528270578672347,-5,-13,-18,-2,3,3,9,4
1528270578672347,5,5,-3,0,0,2,-19,-3
1528270578673236,12,8,6,-2,3,-1,0,4
1528270578673236,-16,-12,-7,4,1,1,-6,-5
1528270578685463,4,-1,-9,-30,-22,-13,4,-3
1528270578685463,-2,5,7,9,11,2,-10,1
1528270578694207,1,7,9,13,0,2,8,-2
1528270578694207,3,6,-2,-3,-9,-10,-2,1
1528270578709511,-2,-12,-21,-52,-8,-3,-1,-2
1528270578709511,-6,11,35,-2,-13,4,10,0
1528270578711168,2,-3,-10,-6,25,3,-8,2
1528270578711168,-18,-7,6,15,-7,2,-6,-4
1528270578732383,1,6,2,5,9,2,-9,-2
1528270578732383,3,0,-7,8,-8,-3,10,2
1528270578734087,2,-9,4,-1,-2,-3,-15,-2
1528270578734087,-10,-10,-30,6,4,1,0,1
1528270578745319,8,22,19,-29,-15,-2,23,2
1528270578745319,-5,-13,-5,11,6,1,-5,-3
1528270578754088,4,18,26,22,2,-3,-12,1
1528270578754088,6,10,-19,-57,-6,-3,16,0
1528270578768993,-2,-8,-8,11,-1,-4,-17,-3
1528270578768993,2,10,20,4,0,3,1,-2
1528270578770988,-11,-1,9,-12,-2,0,1,1
1528270578770988,21,-1,3,21,-2,3,10,3
1528270578792184,-23,25,35,23,7,-5,-3,-5
1528270578792184,1,4,-15,-22,-2,-1,-8,-1
1528270578793936,-11,-17,-13,0,-10,-4,4,-3
1528270578793936,-2,-1,36,35,22,1,-8,-2
1528270578806019,1,-10,-34,-40,-4,3,6,2
1528270578806019,0,-10,-18,14,4,1,-1,1
1528270578814186,-3,7,11,23,-18,-11,1,-1
1528270578814186,-2,7,6,-83,0,0,-14,-4
1528270578829101,0,-3,6,26,7,3,5,2
1528270578829101,-4,-4,-9,0,-2,-5,-2,1
1528270578829101,5,-18,-21,-12,2,5,7,1
1528270578829101,-6,8,19,25,-9,-6,-7,-4
1528270578851397,-1,-5,15,26,-8,-5,-16,-3
1528270578851397,-4,2,-18,-28,0,6,23,-1
1528270578852078,-1,-2,12,4,0,-2,-5,-1
1528270578852078,-2,10,3,-4,-10,-7,-5,0
1528270578866039,3,-9,-11,-1,2,1,1,-2
1528270578866039,-2,-3,-3,25,8,3,-7,-3
1528270578874061,-3,9,-7,-37,-12,-4,-6,-2
1528270578874061,4,5,-9,6,5,1,9,1
1528270578887980,-2,0,23,8,-11,-2,-5,-1
1528270578887980,6,11,9,35,-4,-2,-3,0
1528270578896559,-11,-6,-9,-41,14,1,-2,-4
1528270578896559,3,7,-5,-15,-21,-5,-3,1
1528270578911659,-6,-19,-20,7,-7,-2,1,-2
1528270578911659,-5,-9,13,-7,9,-1,-3,0
1528270578911659,0,-6,2,0,-10,-2,-2,0
1528270578911659,2,5,4,22,5,-1,-1,-1
1528270578934449,4,-3,-7,-3,3,1,-1,0
1528270578934449,0,4,-7,-13,-8,-3,-1,-2
1528270578935497,-6,-5,4,11,-3,0,-4,-4
1528270578935497,-3,-8,-15,8,-4,-2,-1,0
1528270578948789,2,3,6,-10,11,1,2,-1
1528270578948789,-4,-10,-9,-5,3,0,-2,-2
1528270578949454,-2,1,1,-5,1,0,0,-2
1528270578949454,4,2,13,10,2,4,1,-1
1528270578972688,-1,-9,-9,0,3,2,3,0
1528270578972688,-3,-11,-9,-9,-8,-5,-2,-3
1528270578973446,-5,-23,-10,1,3,1,0,0
1528270578973446,0,10,3,1,-5,-2,0,-2
1528270578994334,-2,-11,-7,0,3,0,-2,0
1528270578994334,3,11,15,-8,1,-3,-1,-1
1528270578994334,-2,-19,-9,12,-2,-1,1,-1
1528270578994334,-5,-1,1,-5,-6,-3,-4,-2
1528270579009293,2,3,-17,-2,1,0,1,-1
1528270579009293,-6,-4,-3,-2,-5,-2,-5,-2
1528270579009293,4,6,3,5,4,3,-1,-1
1528270579009293,0,-10,-8,-1,4,-2,-1,0
1528270579031302,9,-2,-3,-4,-6,-5,-4,-3
1528270579031302,-3,4,7,4,0,-1,2,-2
1528270579031302,-2,3,-35,-9,-11,-22,-7,0
1528270579031302,-10,-14,-6,-4,-16,-2,-4,5
1528270579054176,-11,6,5,1,-7,-3,-1,-17
1528270579054176,3,10,15,7,25,32,8,3
1528270579055171,-1,-22,29,8,41,36,10,0
1528270579055171,10,-8,-18,2,14,10,3,2
1528270579068189,12,15,-26,-6,-15,-12,-4,-3
1528270579068189,10,16,-28,-5,-22,-21,-12,0
1528270579069134,1,28,-19,-3,-19,-21,-4,4
1528270579069134,-19,2,-22,-1,-3,-5,-1,-9
1528270579091101,-12,1,50,3,-1,-1,-1,1
1528270579091101,-9,-26,22,-3,-1,-5,-1,-7
1528270579092151,31,-2,76,4,-1,3,-1,5
1528270579092151,-32,6,61,-1,-2,-7,-5,-6
1528270579114067,9,-5,25,0,1,5,2,4
1528270579114067,3,12,-5,-1,-5,-7,0,1
1528270579115011,-8,-1,-52,4,5,9,3,2
1528270579115011,9,-20,-33,1,4,3,2,-2
1528270579128030,-23,-8,-47,-3,2,-3,-4,-4
1528270579128030,5,-3,-7,0,-3,-2,-2,9
1528270579128994,4,19,-16,3,3,3,1,-11
1528270579128994,-7,15,-1,0,3,-2,1,6
1528270579157950,51,-2,8,-1,-1,3,1,7
1528270579157950,-7,0,-17,-7,-10,-7,0,8
1528270579165875,18,8,3,-3,-1,1,-6,-9
1528270579165875,5,-6,16,-1,0,-1,8,-15
1528270579173887,-39,-16,25,1,4,2,-2,-2
1528270579173887,11,-4,7,-1,0,4,-1,0
1528270579174851,-35,4,-20,-3,-3,-2,-6,-1
1528270579174851,44,7,-26,0,-1,-3,-11,7
1528270579196791,-2,7,-36,-1,-3,-4,14,2
1528270579196791,-7,-32,-18,-1,-2,-2,1,9
1528270579197789,5,10,12,0,0,0,5,-15
1528270579197789,6,-8,-15,1,-1,2,-1,2
1528270579210755,-9,-12,-10,-1,0,-1,-12,3
1528270579210755,5,-2,1,-2,6,1,5,-9
1528270579211752,-7,0,14,-2,-7,-6,-9,2
1528270579211752,0,-5,11,-1,-3,-4,-4,2
1528270579233694,-13,11,5,-2,-1,2,-3,1
1528270579233694,-21,-5,22,-6,-3,-2,1,-1
1528270579234701,55,-6,12,-2,-2,0,8,15
1528270579234701,-17,0,10,-1,1,1,3,-2
1528270579248654,4,1,15,0,2,0,0,-1
1528270579248654,70,11,2,-1,-1,1,-6,4
1528270579249651,-66,2,12,-3,-6,-7,9,3
1528270579249651,-12,-2,-19,-2,-3,-3,-29,-5
1528270579270595,-3,15,-2,1,6,11,11,2
1528270579270595,14,19,-21,-1,-3,-6,-5,-10
1528270579271592,-8,-3,-20,-2,-1,-3,2,7
1528270579271592,3,10,-10,-1,0,1,4,-5
1528270579285556,12,-4,4,-3,-5,-7,-3,-2
1528270579285556,12,5,13,-3,-7,-5,-6,-12
1528270579293534,1,-14,3,1,5,4,1,0
1528270579293534,-13,-4,14,-1,0,2,-3,2
1528270579308728,18,7,-12,-3,0,-1,1,1
1528270579308728,-17,-2,6,3,-2,1,5,3
1528270579309737,-3,-13,38,-5,-9,-8,-10,-6
1528270579309737,7,35,11,-1,-4,-1,2,-2
1528270579331602,1,0,10,1,2,3,2,-2
1528270579331602,-39,-22,5,4,4,2,-6,-2
1528270579331602,-6,-4,-15,0,-2,-1,-2,-4
1528270579331602,2,-7,-12,0,3,2,4,-1
1528270579353931,-7,-4,-4,0,-3,-6,0,0
1528270579353931,-11,-20,-14,-4,-3,-3,-6,-2
1528270579354917,9,-30,-9,2,1,0,-5,-1
1528270579354917,-1,-39,1,-1,0,2,16,3
1528270579369103,-4,54,8,-1,-2,-3,-19,1
1528270579369103,-8,36,2,1,2,2,9,-4
1528270579369103,10,20,-7,-4,-2,1,4,8
1528270579369103,29,-14,6,-1,-1,0,21,5
1528270579390847,-6,-9,3,4,0,-2,-8,-2
1528270579390847,-13,23,-6,-1,0,0,1,-5
1528270579391819,6,17,-11,-3,-5,-4,-9,-3
1528270579391819,-14,-17,-11,-1,-3,-3,-5,3
1528270579413763,3,-48,-1,-3,1,0,4,-1
1528270579413763,-10,-38,-12,-3,0,-3,-7,-1
1528270579414757,-15,-29,9,15,-2,-3,3,-2
1528270579414757,-3,-6,-4,2,-2,0,-7,-2
1528270579428723,-3,1,-11,-32,-3,0,4,-3
1528270579428723,-3,3,2,-4,-3,-2,-1,-1
1528270579428723,-2,17,-7,-6,-4,-2,-6,-5
1528270579428723,-9,23,9,12,3,3,0,-2
1528270579451658,8,5,-6,7,0,-1,-3,2
1528270579451658,-5,-7,-6,1,0,0,-2,-2
1528270579451658,3,-8,-10,-2,2,-1,4,-2
1528270579451658,3,1,2,-5,-1,-5,-15,-1
1528270579474944,-3,-1,11,3,0,1,17,3
1528270579474944,-1,-8,6,-4,-1,3,-4,-4
1528270579474944,-5,-11,-15,-5,-4,4,3,-4
1528270579474944,-8,27,-1,-5,-3,-5,-9,-2
1528270579488883,2,32,7,8,5,0,-6,0
1528270579488883,-5,4,-7,3,-1,-3,-7,-1
1528270579495848,2,-1,4,-5,-2,-3,12,0
1528270579495848,-6,-23,-9,-8,-2,0,5,-1
1528270579511128,-1,-28,-3,10,-3,4,-1,-1
1528270579511128,6,-5,-1,-6,-3,1,1,0
1528270579511803,-1,4,1,-2,4,-2,-12,-2
1528270579511803,-2,-5,-8,-6,-4,-2,3,-2
1528270579534790,-5,-6,2,1,-2,-4,-4,-4
1528270579534790,-1,2,1,-2,2,1,3,0
1528270579534790,-3,-4,-10,-8,-7,-2,-5,-1
1528270579534790,-3,0,5,4,1,0,-13,-6
1528270579548995,1,-4,3,-1,-2,2,16,1
1528270579548995,1,0,1,-2,-2,1,2,-2
1528270579549711,2,2,4,-4,-3,1,-3,-2
1528270579549711,3,3,9,0,0,1,5,1
1528270579571029,-3,-12,-12,-3,-4,-4,-9,-3
1528270579571029,0,4,6,2,3,0,5,0
1528270579572026,-1,2,-6,-2,-1,-3,-2,0
1528270579572026,2,0,-4,-5,-1,-3,1,-2
1528270579594290,-1,-4,-6,-4,-1,-1,1,1
1528270579594290,0,3,4,3,4,-3,-4,-1
1528270579595271,-5,-1,-3,-1,1,-2,-2,-2
1528270579595271,-3,-1,-5,-2,1,-1,-9,-1
1528270579608478,-2,1,1,1,3,0,21,1
1528270579608478,13,2,0,2,1,0,-25,-4
1528270579609231,-55,7,4,4,3,-1,-14,-12
1528270579609231,-5,2,-7,1,1,2,-13,-4
1528270579631504,-4,1,-11,0,0,1,-40,-4
1528270579631504,-33,-15,-27,-7,-3,-2,-44,-17
1528270579632170,15,-6,-22,-11,-2,3,-24,-24
1528270579632170,56,1,-13,-12,-6,-7,-12,-1
1528270579654480,-6,-11,0,-7,-4,-2,15,14
1528270579654480,1,9,22,3,-1,-1,53,17
1528270579655503,4,9,31,10,-1,-1,49,23
1528270579655503,-1,12,32,13,0,4,60,8
1528270579668765,21,13,31,13,2,0,36,8
1528270579668765,9,12,28,7,-3,0,34,7
1528270579669427,5,1,8,4,-2,-6,4,-2
1528270579669427,-7,1,-7,-4,-5,-3,-9,-11
1528270579691624,-4,0,-8,-3,-3,-4,-16,-9
