timestamp,emg1,emg2,emg3,emg4,emg5,emg6,emg7,emg8
1528278618105842,-1,-1,-3,-1,3,6,-3,0
1528278618105842,-2,-3,-3,-2,-5,8,17,1
1528278618127783,-7,-4,-3,-6,-9,-17,-12,-12
1528278618127783,-3,0,-2,-3,-10,-21,-16,-1
1528278618133767,3,2,0,2,7,-9,-10,3
1528278618133767,-2,-2,2,3,7,29,13,0
1528278618141747,-1,-1,0,3,11,27,22,-1
1528278618141747,3,1,1,-4,-3,-5,-3,1
1528278618150722,2,-2,-2,-1,-10,-30,-11,-3
1528278618150722,-10,-5,-2,-2,1,17,-6,-10
1528278618165682,-12,-7,-6,-2,-1,-13,0,2
1528278618165682,21,6,1,1,-8,-35,-19,11
1528278618166681,19,12,5,5,13,52,22,6
1528278618166681,-5,-6,-2,1,10,21,-1,-6
1528278618187624,-12,-7,1,-3,-7,3,19,-8
1528278618187624,-20,-12,-10,-7,-19,-47,-29,-12
1528278618189618,-6,-4,-5,-5,-5,-25,-14,-3
1528278618189618,4,7,7,5,8,29,28,32
1528278618201586,-2,-4,0,1,11,5,-16,-17
1528278618201586,2,5,-5,-7,-2,33,8,-23
1528278618210562,7,-8,-2,3,3,-26,-25,-11
1528278618210562,8,9,6,3,-14,-37,23,15
1528278618225522,-1,-1,-2,4,8,13,1,7
1528278618225522,-9,-3,1,-2,-10,25,16,5
1528278618226519,-12,-7,-4,-4,8,22,-15,-6
1528278618226519,-7,-4,-5,-4,-10,-57,-24,-12
1528278618247464,13,5,1,-3,-17,-57,-17,35
1528278618247464,1,3,4,8,38,105,81,-41
1528278618254445,0,-3,-1,-1,-6,-5,12,22
1528278618254445,2,5,2,-7,-9,-9,-28,-7
1528278618261426,0,-4,-6,-2,2,-4,-12,1
1528278618261426,-9,-9,-5,-8,-15,-45,-23,-8
1528278618270403,-4,0,-1,-4,-2,0,-18,-6
1528278618270403,2,-2,0,0,-4,-25,-3,-2
1528278618285362,6,7,6,-1,-21,-40,-2,-12
1528278618285362,1,-1,2,12,30,43,0,5
1528278618287357,-3,-3,-1,-1,9,52,42,13
1528278618287357,4,-1,-4,3,11,22,-8,7
1528278618308301,-2,5,1,-8,-2,34,10,-33
1528278618308301,-2,-8,-6,-6,-23,-62,-26,18
1528278618309309,0,1,0,-3,-11,-35,-10,-3
1528278618309309,0,-1,0,-1,-1,-10,-13,-14
1528278618321308,-6,-7,-3,-1,-4,4,-2,-3
1528278618321308,0,5,4,3,3,-11,-21,-13
1528278618330242,4,4,3,1,0,4,18,21
1528278618330242,-3,-1,-4,-3,-1,8,-9,-2
1528278618344205,7,2,3,5,11,19,21,12
1528278618344205,-2,-4,-2,-2,-1,7,10,1
1528278618368178,-4,-6,-3,0,-6,-8,-5,0
1528278618368178,-2,-4,-4,0,0,-17,-14,-10
1528278618369145,-3,-3,1,0,5,15,1,-11
1528278618369145,-4,-4,-4,0,6,1,-3,10
1528278618371136,6,7,2,-3,-8,-6,14,-1
1528278618371136,2,0,-3,-2,-7,-5,-1,2
1528278618381107,-1,-1,-1,2,7,0,-13,1
1528278618381107,-3,-12,-5,-1,-3,5,7,8
1528278618390140,-5,-1,-2,3,2,-1,-5,-17
1528278618390140,-5,-3,1,1,-1,1,5,0
1528278618405071,2,-1,0,-4,1,6,-2,-6
1528278618405071,10,9,3,2,-3,0,5,20
1528278618407038,0,2,1,0,-2,-6,-7,-11
1528278618407038,-4,-4,-4,1,5,4,0,0
1528278618428009,-7,-7,-4,-1,-4,-4,-9,-8
1528278618428009,2,2,5,0,0,-6,12,10
1528278618429977,1,4,-1,-4,-1,2,-8,-1
1528278618429977,-1,1,-6,0,5,4,-2,-1
1528278618440946,0,2,-1,-5,-4,-6,-19,-10
1528278618440946,3,1,4,2,6,9,24,16
1528278618450920,-9,-6,1,-1,0,0,-2,-8
1528278618450920,-1,-3,2,0,-1,2,4,-2
1528278618464883,0,-4,-9,-10,-13,-9,1,6
1528278618464883,0,5,-3,-6,-6,-7,-19,-12
1528278618466878,-3,-3,0,3,-5,0,5,1
1528278618466878,2,3,1,-6,-9,-9,-16,-15
1528278618487822,6,1,1,8,11,7,14,18
1528278618487822,-5,-2,-4,-1,-2,-2,-8,-6
1528278618489816,-3,3,1,-7,-8,-4,4,-4
1528278618489816,-2,-8,-4,1,-3,-2,-6,-10
1528278618501831,0,7,1,0,4,-2,-4,0
1528278618501831,3,0,-1,-1,-3,4,8,12
1528278618517742,-5,-6,-7,-5,0,-7,-13,-8
1528278618517742,-2,-6,-3,-6,-3,-4,3,1
1528278618525720,1,1,-1,-1,-4,1,1,3
1528278618525720,-6,-2,-4,-3,0,-5,-11,-16
1528278618526727,-2,-1,0,6,4,4,8,3
1528278618526727,2,5,2,1,-1,2,3,4
1528278618547663,-4,-9,-6,-3,-1,1,-5,-6
1528278618547663,2,0,-2,7,6,2,3,7
1528278618549658,5,4,1,-3,0,9,14,7
1528278618549658,-3,-1,-2,-6,-5,-5,5,-2
1528278618561635,4,4,3,4,5,4,2,4
1528278618561635,-9,-10,-5,-3,-10,-15,-19,-24
1528278618570602,2,-8,-6,-1,4,2,-6,6
1528278618570602,8,13,6,-2,0,2,2,6
1528278618584599,-7,-7,-3,5,-1,-1,10,0
1528278618584599,2,0,1,-1,0,-1,3,6
1528278618591545,-9,-8,-7,-5,-9,-8,-14,-14
1528278618591545,-6,-5,-4,-2,-2,-2,6,-6
1528278618608520,1,1,2,-2,-2,0,-9,-1
1528278618608520,0,1,3,6,5,2,12,9
1528278618609496,0,0,-2,-7,-10,-8,-9,-8
1528278618609496,-2,0,1,3,2,-1,-8,-2
1528278618621484,-4,-4,-3,-4,-5,-7,-4,-2
1528278618621484,-3,-2,-1,-1,2,-1,-4,-6
1528278618630440,0,1,0,2,0,-1,0,-1
1528278618630440,-2,-5,0,6,6,3,7,3
1528278618644458,7,6,4,-4,3,3,3,4
1528278618644458,-3,-1,-4,-7,-10,-7,-9,-4
1528278618651421,-5,-8,-1,3,2,0,-1,-3
1528278618651421,0,-2,-4,2,5,5,2,3
1528278618668346,-3,-3,-4,-1,-7,-1,-6,-3
1528278618668346,0,1,1,-3,1,0,2,0
1528278618669337,0,1,-1,-1,1,3,6,-3
1528278618669337,-2,-2,1,-2,-3,-4,-9,1
1528278618681359,-1,-4,-4,2,3,2,7,2
1528278618681359,4,6,1,0,-1,0,-1,1
1528278618690286,-2,-1,0,-2,-1,0,2,1
1528278618690286,0,3,1,-2,1,0,-6,-5
1528278618704485,-1,2,-2,-4,-2,-4,1,2
1528278618704485,0,-1,1,0,-1,-1,-1,-1
1528278618711225,-2,-1,0,4,3,-2,-4,-5
1528278618711225,-1,-2,-2,-3,-5,-4,1,1
1528278618728178,0,1,-4,-1,0,0,-1,-3
1528278618728178,0,0,-1,-2,1,5,1,-1
1528278618729177,-1,-1,0,-1,-2,-3,-3,-3
1528278618729177,-2,-3,-4,-5,-13,-6,-2,-2
1528278618741144,0,0,0,3,6,2,-2,2
1528278618741144,-2,3,0,-1,-5,-5,-5,-3
1528278618750192,-4,-1,1,-1,-1,-3,-2,-1
1528278618750192,2,-2,-2,4,-2,-5,-3,-1
1528278618765079,-4,-2,-1,-5,-2,-2,-2,-3
1528278618765079,3,1,-1,-4,-3,0,-1,0
1528278618771064,-3,-4,-1,1,0,1,3,-1
1528278618771064,-3,-2,-1,2,1,-1,0,-3
1528278618788018,3,1,2,2,2,-1,1,5
1528278618788018,-3,-1,-2,-4,-2,-3,-5,-6
1528278618794003,-1,0,-1,3,2,-1,-1,0
1528278618794003,1,-3,-1,-2,-1,4,2,0
1528278618800984,-4,-3,-4,-4,-6,-2,-4,-3
1528278618800984,-1,2,0,-4,-1,0,-1,0
1528278618810957,0,0,-3,-1,2,1,-2,1
1528278618810957,1,1,1,-2,-2,-2,-1,1
1528278618823960,0,-1,-1,-3,-3,-2,0,-1
1528278618823960,0,-2,-3,2,1,-2,-2,-2
1528278618832900,0,1,-2,1,4,1,1,0
1528278618832900,-2,-2,-3,-1,-2,1,-1,-1
1528278618847890,0,-1,-1,0,-1,-1,0,1
1528278618847890,0,-5,-3,-4,2,2,0,1
1528278618849896,1,3,2,-2,-1,2,2,0
1528278618849896,-2,-2,-3,-2,1,-2,-1,-1
1528278618870816,-3,-2,-1,-1,-6,-4,-4,-3
1528278618870816,-3,-3,-3,-5,-5,-4,-3,-3
1528278618871795,2,2,-1,-2,0,0,4,2
1528278618871795,-2,-1,0,-1,-1,-1,-3,-2
1528278618884787,-2,-2,1,-5,-8,-6,-13,-9
1528278618884787,1,0,-2,2,1,4,15,7
1528278618891794,0,2,1,0,0,1,0,1
1528278618891794,-2,-2,0,1,0,-2,-3,-3
1528278618907733,-2,-1,-1,-2,-1,-3,-6,-8
1528278618907733,0,1,0,0,1,1,8,2
1528278618909697,0,-2,1,-2,-3,-1,5,5
1528278618909697,0,1,-3,-2,3,-1,-2,-2
1528278618930639,-1,0,1,1,-2,0,2,0
1528278618930639,-2,-4,-1,2,0,-1,-5,-4
1528278618931636,-4,-4,-4,-4,-2,-3,-3,-3
1528278618931636,1,-1,-1,-1,-1,-1,-2,1
1528278618943604,0,1,-2,0,3,1,4,2
1528278618943604,-2,-2,-3,-2,-3,-4,-5,-2
1528278618968590,0,2,2,-1,-1,0,-3,-4
1528278618968590,-2,0,2,-2,-7,-5,-3,0
1528278618969586,-1,-2,-1,3,11,7,2,1
1528278618969586,0,-2,-4,-2,-11,-5,-5,-3
1528278618970600,0,0,-2,12,30,13,2,0
1528278618970600,-2,-3,-4,-5,-6,-4,-3,-3
1528278618990532,-2,-2,1,-3,-1,1,5,0
1528278618990532,-1,0,0,-5,-5,-9,-7,-4
1528278618991533,-2,-3,-3,-5,-10,-6,-1,-2
1528278618991533,1,1,0,2,4,2,1,0
1528278619004440,0,-1,-2,2,0,-3,-1,0
1528278619004440,-1,-5,-2,0,0,0,-4,-2
1528278619020398,-1,2,-3,-5,-11,-7,-6,-3
1528278619020398,-3,-3,-3,0,3,5,2,-2
1528278619035607,0,1,-2,-3,-9,-7,-2,1
1528278619035607,-1,1,0,1,3,-2,-3,-1
1528278619037352,-1,-3,-1,-1,-2,-2,-1,-1
1528278619037352,-2,-1,1,-5,-3,-2,-1,-2
1528278619050318,-1,-2,-1,1,2,1,0,0
1528278619050318,-1,-1,-1,-2,2,0,-1,-1
1528278619052316,2,-4,-2,0,-2,-3,0,2
1528278619052316,-2,-4,-2,-2,-4,1,0,-1
1528278619073343,-2,-4,-2,0,-4,-3,-1,-2
1528278619073343,1,3,0,-2,-1,-2,-2,-1
1528278619079761,0,1,0,-2,-2,-1,0,0
1528278619079761,-2,1,-1,-1,-4,-4,-3,-1
1528278619095528,1,3,0,-5,-4,0,-3,-2
1528278619095528,-1,-3,-5,-2,-3,-2,-2,-2
1528278619096515,-2,1,8,1,-2,-1,-1,-1
1528278619096515,-1,1,-2,-1,0,-4,-1,-2
1528278619110478,-1,-1,-1,1,4,1,1,3
1528278619110478,-5,-3,-4,-1,-2,1,-2,-1
1528278619111484,0,-3,-5,-6,-7,-6,-4,-4
1528278619111484,-1,-2,-3,2,8,3,2,2
1528278619132448,-1,-3,-2,-1,-10,-8,-5,-2
1528278619132448,2,2,6,0,12,5,1,-1
1528278619134414,-1,-3,-3,-5,-3,-3,-1,-3
1528278619134414,-1,-1,1,-5,-4,-5,-2,-3
1528278619146411,1,0,-3,0,1,2,2,2
1528278619146411,-2,-2,-2,-3,-2,1,-1,0
1528278619155408,-1,2,1,0,0,0,-2,-1
1528278619155408,0,0,0,0,-2,-1,0,-1
1528278619169359,-1,1,-1,-1,2,-1,-2,-2
1528278619169359,0,-1,-1,3,2,2,2,0
1528278619184316,-1,1,-2,-1,-5,-2,0,-2
1528278619184316,0,0,0,0,-2,-3,-3,0
1528278619193257,0,0,1,-1,0,0,-1,-1
1528278619193257,-1,-1,0,1,-4,-2,-3,0
1528278619194299,-1,-4,-3,-2,-1,0,-2,-2
1528278619194299,-3,-3,-3,-3,-3,-2,-2,0
1528278619206251,-3,-4,-3,-3,-6,-4,-2,-1
1528278619206251,0,1,1,1,2,0,-2,-2
1528278619215198,-1,-2,-2,-6,-14,-5,-3,-1
1528278619215198,2,1,1,12,24,9,3,1
1528278619245118,-2,-1,-1,-2,0,0,0,-1
1528278619245118,-2,-4,-4,-4,-5,-3,0,0
1528278619247114,-1,-2,-1,-1,-2,-1,-2,-2
1528278619247114,-2,-1,-1,-3,-4,2,2,-1
1528278619253097,-2,-2,-1,0,0,-1,-2,-1
1528278619253097,0,-1,1,2,-1,-2,-2,-3
1528278619254357,1,-1,-1,-2,-2,-2,-2,0
1528278619254357,-2,-2,-2,-5,-5,-2,-2,-2
1528278619267222,-1,0,0,0,4,1,-1,-1
1528278619267222,-2,-3,-2,-3,-4,2,-1,0
1528278619275357,-2,0,-1,1,2,-1,-1,-3
1528278619275357,1,-2,1,-2,-3,-1,-2,-1
1528278619290238,0,0,-1,-3,-1,0,-1,0
1528278619290238,-2,-1,7,-2,-1,-3,-1,-2
1528278619297163,-1,-1,-1,1,3,2,2,1
1528278619297163,-1,-1,-1,0,-2,-2,-1,0
1528278619313281,1,-2,-1,-2,-4,-2,-1,-1
1528278619313281,-2,0,-4,-3,-2,-3,-3,-1
1528278619313935,-1,-1,0,0,0,-2,-1,0
1528278619313935,0,0,-1,-1,-4,-3,-1,-2
1528278619326900,-1,-4,-1,0,1,2,0,0
1528278619326900,-2,1,-3,-1,0,0,-1,0
1528278619335201,0,-1,-1,-2,-3,-3,-3,-3
1528278619335201,-1,0,-4,-3,-5,-3,-4,-3
1528278619349485,-1,-1,-1,1,3,0,0,-1
1528278619349485,-1,-2,-1,-1,0,-1,-1,-2
1528278619356138,-1,-1,0,0,0,-1,0,-1
1528278619356138,-1,0,-1,-2,-4,-5,-2,-2
1528278619374279,-2,-1,-2,-2,1,0,-1,-1
1528278619374279,0,-1,-1,-2,-1,0,0,1
1528278619375084,-1,-2,-1,-1,1,1,0,-1
1528278619375084,-1,-1,-1,0,-3,-3,0,0
1528278619403009,-1,0,0,-1,-5,-4,-5,-3
1528278619403009,-1,-1,-2,1,4,2,3,0
1528278619411987,-2,-2,-1,-1,-1,-2,-1,0
1528278619411987,-2,-4,-3,0,0,-1,1,-1
1528278619413243,-1,-1,-2,-1,-5,-6,-2,-1
1528278619413243,1,1,-2,-1,-5,-2,-2,-1
1528278619416972,-1,-6,-2,-3,-1,-2,0,-1
1528278619416972,0,-1,1,-3,1,-1,-8,-3
1528278619433409,3,0,-2,-1,0,1,8,4
1528278619433409,0,0,0,1,1,9,6,-1
1528278619434948,-3,2,0,-1,-4,-6,-1,-1
1528278619434948,6,1,0,2,5,7,2,2
1528278619456131,-2,-3,-2,-3,5,-7,-5,-1
1528278619456131,-3,-3,-3,-1,-3,0,-9,-1
1528278619457553,3,8,0,1,-3,4,9,-1
1528278619457553,-5,-14,-3,-3,-4,-20,-4,1
1528278619469725,-5,8,4,10,3,23,6,-2
1528278619469725,7,-9,-6,-4,-1,2,2,-1
1528278619477765,-3,-3,-7,-9,-6,-19,-18,-4
1528278619477765,0,2,0,2,-12,-16,-10,-5
1528278619492463,0,4,-4,-5,3,19,18,2
1528278619492463,-7,-5,-5,-10,-5,-19,-16,-6
1528278619494458,-3,-4,-1,5,-3,12,0,0
1528278619494458,1,1,3,4,2,-8,-1,0
1528278619522383,-2,-5,3,5,-4,-25,-10,-2
1528278619522383,0,5,6,8,7,36,17,0
1528278619524384,0,-4,-7,-16,-10,-24,-9,-5
1528278619524384,-2,-1,-3,-7,-2,4,-5,1
1528278619529611,1,-2,-1,2,2,9,10,0
1528278619529611,0,-1,-1,-2,-3,-18,-11,-2
1528278619538340,0,2,15,31,18,42,22,4
1528278619538340,-2,-1,-3,-7,-4,5,2,-4
1528278619553716,1,-4,-6,-17,-14,-30,-21,-5
1528278619553716,0,0,-6,-11,-5,-14,-1,0
1528278619554300,-1,-1,3,10,3,-5,0,-1
1528278619554300,-1,1,-2,-7,3,3,-14,-1
1528278619575563,0,0,5,15,10,24,27,5
1528278619575563,-2,0,1,1,2,-1,-2,0
1528278619577238,-2,-2,-3,-1,-5,-6,-6,-3
1528278619577238,-3,-2,-2,-1,2,11,4,-1
1528278619589540,-5,-3,-5,-15,-15,-33,-24,-7
1528278619589540,0,0,0,-2,-5,-28,-10,0
1528278619598234,3,2,-1,-2,15,41,25,5
1528278619598234,-1,1,0,6,5,6,6,1
1528278619613558,-4,-4,-3,-5,-3,5,-2,-4
1528278619613558,-7,-3,-2,6,-17,-30,-31,-10
1528278619614139,0,-2,-5,-15,-3,-15,-4,1
1528278619614139,6,4,3,-5,5,26,32,12
1528278619636215,-2,-2,-2,4,6,20,3,-3
1528278619636215,-5,-3,5,23,4,-18,-14,-6
1528278619637077,-2,-3,-7,-10,-13,-30,-15,-6
1528278619637077,1,1,7,7,9,36,9,1
1528278619649306,2,0,-2,-7,2,11,13,5
1528278619649306,-4,-4,-7,-15,-6,10,5,-3
1528278619658020,-4,-4,-6,-10,-13,-60,-36,-4
1528278619658020,-2,-1,-2,-1,-5,3,13,1
1528278619673286,5,2,5,9,11,22,6,5
1528278619673286,-1,0,2,7,8,13,1,-1
1528278619675010,-3,-1,-2,-8,-5,6,6,-2
1528278619675010,-2,-1,-3,-11,-20,-47,-25,-7
1528278619695278,1,-1,1,25,10,5,-1,3
1528278619695278,-1,1,4,19,7,25,20,3
1528278619696917,-2,-2,-2,-16,-5,-1,-6,-3
1528278619696917,-3,-6,-9,-11,-10,-17,-11,-5
1528278619708884,-1,0,0,-6,-5,-10,-6,-2
1528278619708884,-2,-2,-6,-12,-6,-3,2,1
1528278619717869,0,-3,1,5,3,7,-2,0
1528278619717869,-1,0,6,10,5,5,5,-1
1528278619733015,-2,-4,-6,-15,-16,-16,-14,-4
1528278619733015,-1,-2,-1,-15,-10,-31,-24,-3
1528278619734815,4,2,0,22,21,54,42,9
1528278619734815,1,-1,-4,-9,4,-12,-11,0
1528278619756013,1,2,3,-3,16,51,22,6
1528278619756013,-2,-4,-6,-13,-1,20,13,0
1528278619756765,-3,-1,0,6,-9,-21,-17,-6
1528278619756765,-3,-4,-4,-1,-8,-48,-18,-7
1528278619768727,-3,-2,-3,-3,-5,6,-3,-5
1528278619768727,3,2,3,-2,3,3,9,5
1528278619777711,0,1,0,-5,2,7,-3,0
1528278619777711,-2,1,1,8,1,2,2,0
1528278619792730,-4,-4,-1,1,-11,-33,-21,-8
1528278619792730,2,2,-1,-5,-2,5,6,3
1528278619799787,-1,0,3,4,-1,-5,-5,-2
1528278619799787,-1,1,0,-3,-4,7,1,2
1528278619816005,0,1,0,6,-1,-11,-4,0
1528278619816005,-1,1,-4,-2,-1,6,3,-2
1528278619817748,-1,0,2,4,3,2,-1,1
1528278619817748,-3,-1,-5,-3,1,11,1,0
1528278619829695,-2,-2,-4,-9,-9,-12,-7,-2
1528278619829695,-1,-1,-1,4,1,-3,-2,-3
1528278619853883,1,0,-2,-4,1,0,-4,-1
1528278619853883,-1,-1,0,-1,-4,5,2,-2
1528278619854535,0,-2,-1,-2,0,-11,-4,-2
1528278619854535,0,-3,-1,-1,-2,-1,1,-1
1528278619855912,0,-1,-4,-4,-3,-1,2,-1
1528278619855912,-1,-2,2,14,8,6,1,-2
1528278619875883,-2,-1,-3,-14,-10,-15,-5,-2
1528278619875883,-1,1,0,11,-2,2,2,1
1528278619876781,-2,-2,-2,-2,5,4,1,0
1528278619876781,-1,-1,0,0,-2,0,-1,-2
1528278619889781,-3,-1,-2,0,1,-6,-3,-2
1528278619889781,1,0,-2,-11,-7,-2,2,-1
1528278619898042,-1,-1,-2,-1,-5,-3,-1,-2
1528278619898042,0,-1,-3,0,-1,2,-1,-1
1528278619912698,0,2,1,-5,-5,-6,-5,-3
1528278619912698,-2,-1,-3,-13,0,1,-1,-1
1528278619918668,-1,1,2,11,0,-2,-2,-1
1528278619918668,-3,-1,0,6,2,5,1,-1
1528278619935875,-1,0,-3,-3,-2,0,-3,-1
1528278619935875,1,-1,-1,7,3,0,0,-1
1528278619936875,0,-1,-4,-8,-3,-2,-2,-1
1528278619936875,-1,-1,-2,-7,-4,0,-1,-2
1528278619948842,-2,-1,0,4,2,-2,-1,-2
1528278619948842,-1,-1,-1,-1,2,1,-1,-3
1528278619958123,-1,-2,-4,-2,0,-1,-1,-1
