timestamp,emg1,emg2,emg3,emg4,emg5,emg6,emg7,emg8
1528281371651655,0,3,4,5,8,-5,-1,1
1528281371651655,-2,4,2,2,-5,2,1,0
1528281371666615,-1,-4,-1,0,-8,1,-3,0
1528281371666615,3,3,4,4,13,10,2,4
1528281371674593,-2,-3,-7,-9,-10,-16,-7,-2
1528281371674593,-3,-4,-5,-9,-20,-14,-5,-1
1528281371689609,-1,-5,0,6,21,12,2,0
1528281371689609,-1,-2,-3,2,-17,-17,-1,1
1528281371696574,2,-6,0,8,1,-8,1,1
1528281371696574,2,-5,-7,-16,0,-7,-2,0
1528281371711495,0,2,2,-5,-1,9,-2,-4
1528281371711495,-4,2,0,-2,10,10,-3,-10
1528281371726455,-1,-2,-4,-17,-20,-37,-8,1
1528281371726455,-4,-1,0,5,18,14,-1,0
1528281371734434,2,-1,3,-3,2,21,5,-3
1528281371734434,2,-1,-2,5,1,-1,2,1
1528281371749394,-9,-7,-7,-6,-4,3,-10,-3
1528281371749394,0,3,3,14,-8,-12,1,0
1528281371756389,-4,0,-5,2,5,-31,-12,-2
1528281371756389,-7,-5,-7,-15,-35,-20,-3,-3
1528281371771335,3,6,4,12,40,93,27,3
1528281371771335,-2,-4,-1,-5,-13,-8,5,3
1528281371786294,2,3,2,-6,-35,-51,-11,-9
1528281371786294,-3,-8,-6,-4,-12,-8,0,-3
1528281371794317,2,4,4,-1,25,37,5,4
1528281371794317,-2,0,5,12,21,17,-3,3
1528281371809234,-1,-4,-5,-12,-28,5,3,2
1528281371809234,3,0,-3,-4,25,18,-10,2
1528281371817212,-4,-1,-5,-2,-28,-40,1,-4
1528281371817212,0,4,-1,-4,7,-16,-7,1
1528281371839153,-2,-5,-5,-3,-35,-63,-22,-9
1528281371839153,-1,4,-4,-6,-2,18,-2,-6
1528281371854114,1,1,1,4,7,-3,13,6
1528281371854114,-1,-1,-1,-3,-10,64,24,-8
1528281371862093,-2,-5,0,-6,-6,-34,-16,-9
1528281371862093,-7,1,0,7,37,21,-11,-9
1528281371877116,4,2,-2,-3,-17,-53,-4,14
1528281371877116,-2,-4,-1,2,20,-4,-1,3
1528281371892050,-10,-6,-3,-4,-11,-34,-21,-9
1528281371892050,8,1,-3,-4,18,6,-1,-2
1528281371907012,2,6,0,6,24,30,2,-6
1528281371907012,1,1,3,-1,-14,-29,-4,8
1528281371913953,-3,0,1,-4,-10,7,-1,-3
1528281371913953,1,-2,-3,0,5,-2,-25,-7
1528281371928934,0,2,-1,5,11,23,16,-5
1528281371928934,-5,-11,-3,-6,-31,-58,-22,0
1528281371943926,0,-3,0,3,18,23,5,-3
1528281371943926,0,3,3,1,-1,7,-9,-5
1528281371966844,-5,-4,0,-2,10,8,-15,5
1528281371966844,-1,-5,-5,-8,-20,-25,25,7
1528281371989763,16,1,3,1,2,-9,4,23
1528281371989763,-12,-8,0,0,5,15,-24,-9
1528281372004740,1,-3,-3,-4,-13,-5,15,12
1528281372004740,-2,8,-5,1,-2,-21,-22,-11
1528281372011692,-8,-13,0,0,4,10,-8,-5
1528281372011692,3,9,-2,-3,-4,-1,8,-1
1528281372019674,9,-3,-5,0,-2,-5,6,12
1528281372019674,-2,1,-1,0,-6,-14,-30,-1
1528281372026687,-11,-9,-2,-1,9,26,29,-20
1528281372026687,-6,-4,1,1,-2,-13,-16,-6
1528281372049611,6,3,0,-1,-3,4,-10,0
1528281372049611,-13,1,-3,-4,-8,-20,-15,-20
1528281372056573,0,2,-2,-1,2,1,-14,2
1528281372056573,2,4,0,3,3,-1,-6,-13
1528281372064588,-1,4,11,1,-4,-5,19,7
1528281372064588,1,-10,-3,2,-3,1,-3,-11
1528281372086526,-7,-5,-9,-1,2,1,7,-8
1528281372086526,2,0,1,-2,3,5,-2,12
1528281372101459,-5,-2,-2,0,1,2,-5,5
1528281372101459,1,-1,6,1,0,4,-2,-9
1528281372116414,11,8,-3,0,1,4,5,-9
1528281372116414,6,-1,8,2,7,3,9,4
1528281372124392,-9,-25,-20,-6,-5,2,0,-22
1528281372124392,1,2,-1,-5,-2,-2,-10,2
1528281372131374,0,2,-2,-2,-1,0,2,10
1528281372131374,-13,0,2,1,1,-4,3,0
1528281372147364,1,3,6,-1,0,-2,-11,5
1528281372147364,5,-2,-6,-5,-5,-4,-19,-6
1528281372154363,-11,-8,-2,-4,-7,-9,-2,2
1528281372154363,0,10,-2,-2,-2,2,1,-11
1528281372169326,-5,-6,0,-2,-5,0,6,-2
1528281372169326,1,-6,-2,1,0,3,-3,9
1528281372177293,-4,-5,-4,4,1,-1,-7,-13
1528281372177293,3,1,-2,-1,0,0,11,9
1528281372192213,-3,3,2,-3,-4,1,21,-7
1528281372192213,-5,2,-5,-5,-9,-8,-11,11
1528281372207172,-3,-7,-3,10,5,4,-2,-8
1528281372207172,2,-3,-9,-4,-3,0,7,5
1528281372214151,-13,-16,-2,-3,1,4,-3,4
1528281372214151,2,10,9,7,12,7,-8,10
1528281372229111,-8,-2,-4,-14,-8,-4,5,-1
1528281372229111,2,0,0,2,-2,-3,-14,-19
1528281372237089,-15,-7,-2,-1,-4,-3,-10,-5
1528281372237089,11,4,-7,-9,-12,-11,-42,-2
1528281372244071,5,9,4,9,4,7,78,34
1528281372244071,14,16,3,0,-1,4,25,-4
1528281372252049,4,-3,3,1,1,3,-1,0
1528281372252049,-7,-4,-11,-14,-10,-12,-26,-27
1528281372267009,0,3,2,-4,-1,-5,-31,-12
1528281372267009,1,0,-3,-6,-5,-1,5,16
1528281372273991,-5,1,6,-3,-2,1,6,-12
1528281372273991,-6,7,8,-6,-11,-3,13,8
1528281372303911,3,-7,-4,-2,-4,-3,-27,-17
1528281372303911,-13,-6,0,8,10,0,4,-7
1528281372311889,9,14,0,-6,-2,-7,-8,0
1528281372311889,0,-4,-3,-2,-6,-2,17,20
1528281372326850,11,12,6,4,1,3,-8,-4
1528281372326850,-7,-6,-9,-8,-8,-3,-9,-2
1528281372333832,5,10,8,5,-10,-2,-1,7
1528281372333832,3,-4,-14,2,8,2,-14,10
1528281372356771,-7,-4,-4,-4,0,0,-39,-23
1528281372356771,4,3,5,4,-1,-1,12,10
1528281372364750,-1,-8,-2,-1,6,3,-1,-1
1528281372364750,0,7,3,-5,-12,-3,-1,-11
1528281372371731,4,3,-5,-1,0,-7,-10,9
1528281372371731,0,-5,-11,-1,-3,-3,-19,-4
1528281372379710,1,-3,-2,2,5,2,14,2
1528281372379710,-7,0,0,-4,-8,-2,5,-4
1528281372386691,-4,-6,-4,0,-2,-4,-28,-12
1528281372386691,2,-2,-3,-2,3,-4,0,13
1528281372394670,3,2,-4,-1,1,7,47,3
1528281372394670,-4,1,-1,-3,-11,-7,-3,-4
1528281372409630,-9,-2,0,0,7,-3,7,3
1528281372409630,-1,1,-1,-3,-1,-2,-7,-2
1528281372416610,-8,-5,-3,-2,1,-7,-21,-13
1528281372416610,4,-1,3,0,-1,0,10,7
1528281372424588,-4,1,3,-6,-10,-4,-14,-21
1528281372424588,-1,-4,0,-3,-12,3,4,2
1528281372431570,0,-4,-3,6,21,11,-4,-5
1528281372431570,-6,-10,1,-1,-7,-5,1,1
1528281372446763,6,12,7,-4,-6,-1,-19,3
1528281372446763,3,-7,-3,7,1,3,20,6
1528281372454753,-7,-10,-15,-7,-14,-10,3,-6
1528281372454753,4,2,0,3,1,-4,-15,-8
1528281372469712,-7,-12,-6,0,2,3,0,-1
1528281372469712,-6,-4,-2,-5,-2,-6,-3,-9
1528281372477533,0,-5,4,-4,-6,-4,-17,15
1528281372477533,2,0,-2,0,2,6,16,-5
1528281372484675,2,1,3,2,-2,1,4,12
1528281372484675,-2,4,-2,-5,-5,-2,2,-6
1528281372499392,-2,3,1,0,-3,-8,-17,-4
1528281372499392,-2,8,1,-1,0,-2,5,2
1528281372514903,6,-4,-3,0,0,0,7,6
1528281372514903,-1,-6,-2,3,6,1,-4,7
1528281372529777,-3,-2,-5,0,0,2,-10,-18
1528281372529777,-2,-1,-4,-1,1,1,0,4
1528281372544720,-8,-9,-2,2,2,-4,-7,-17
1528281372544720,0,3,2,-6,-9,-4,-5,2
1528281372559433,-7,-8,-7,-2,1,-5,-2,7
1528281372559433,-1,0,3,2,15,10,3,-13
1528281372574393,1,7,3,0,-7,-3,0,7
1528281372574393,1,0,1,-1,-7,1,6,6
1528281372589749,0,-5,0,-1,3,-1,-5,-4
1528281372589749,1,2,-6,-4,2,-1,-3,1
1528281372604465,1,-3,-5,1,-2,1,3,6
1528281372604465,-4,-5,-4,-2,-2,-3,-2,-3
1528281372611447,-2,3,2,-1,-2,-2,1,-1
1528281372611447,1,3,2,2,5,1,9,-5
1528281372627547,0,-1,-4,-3,-3,1,14,17
1528281372627547,4,-2,-1,0,-4,0,-11,-4
1528281372641367,-6,-6,3,2,-3,-3,2,-5
1528281372641367,1,-2,-5,-2,-6,3,2,4
1528281372649823,-1,2,6,7,25,7,-2,1
1528281372649823,-5,-8,-10,0,1,0,2,-5
1528281372664309,-1,-1,-2,-2,-3,-1,6,8
1528281372664309,-4,-6,-3,-3,-6,-9,-10,-7
1528281372672538,0,0,1,-3,-11,-6,-7,0
1528281372672538,-6,2,0,-4,-3,-5,-9,-5
1528281372686704,-1,-8,-3,-3,0,4,10,1
1528281372686704,1,9,5,0,1,-2,-20,-7
1528281372709888,2,-8,-7,-7,-7,-11,-28,-7
1528281372709888,8,6,4,4,7,13,56,17
1528281372717632,-9,-6,-5,0,-2,0,1,-10
1528281372717632,1,1,1,-1,-2,2,6,3
1528281372747010,-5,-3,3,-1,-2,-2,-1,-12
1528281372747010,6,-2,-1,-1,1,-6,-13,6
1528281372754726,-5,0,0,-2,0,-4,-6,-8
1528281372754726,0,-4,-1,-1,-5,1,3,6
1528281372769681,1,-1,-1,-5,-13,-3,1,2
1528281372769681,-5,-9,-2,0,-5,-10,-7,-2
1528281372784645,-2,0,-4,-3,-6,-4,-11,-14
1528281372784645,8,4,-4,-1,-1,2,7,13
1528281372791888,3,6,-2,-1,-4,-5,-2,-5
1528281372791888,-9,-12,-2,1,0,0,4,-5
1528281372807158,8,3,-5,3,0,0,4,11
1528281372807158,-4,-1,2,1,2,-2,-1,-10
1528281372822238,-3,7,-3,-2,-4,-3,1,3
1528281372822238,-4,-2,3,1,-3,0,-11,-9
1528281372829218,-5,0,4,-2,-5,-2,-3,-3
1528281372829218,2,0,-3,-4,-5,0,-2,4
1528281372844178,-1,-5,-4,-1,3,0,3,-5
1528281372844178,-1,-5,-3,0,-1,2,3,2
1528281372851475,0,1,2,2,2,1,4,3
1528281372851475,1,1,1,2,4,1,3,5
1528281372874669,0,-6,-10,-2,-1,1,0,-2
1528281372874669,-3,-3,0,-4,-4,-9,-10,-2
1528281372889947,-1,-6,-5,-3,-15,0,-3,0
1528281372889947,-6,-5,0,5,14,5,1,-4
1528281372904852,5,3,2,1,10,7,9,10
1528281372904852,4,0,-2,-4,-3,-5,-7,0
1528281372919551,2,-8,-2,-4,-11,-5,12,13
1528281372919551,-2,-1,-3,-1,5,4,2,-3
1528281372934895,2,3,4,1,3,1,-7,-20
1528281372934895,0,-1,-4,-5,-6,-5,7,19
1528281372949732,-4,-7,-3,-1,0,-2,1,-13
1528281372949732,0,0,2,0,3,-2,5,12
1528281372957549,-8,-1,-4,0,0,-1,-7,-10
1528281372957549,0,-2,0,-2,-6,0,3,12
1528281372971980,0,2,3,-3,-2,-2,-2,6
1528281372971980,-4,0,0,-1,-3,-3,-8,-25
1528281372987666,-13,-6,-10,-9,-10,-6,-3,-32
1528281372987666,9,1,0,4,11,-2,-3,15
1528281373002037,-2,-3,-6,-5,-9,-1,10,-8
1528281373002037,-2,0,1,1,6,-1,3,6
1528281373010180,1,2,2,-2,-1,3,-4,-5
1528281373010180,2,0,2,1,-3,6,-7,-14
1528281373032095,-1,4,0,-3,-6,-4,-7,-3
1528281373032095,1,-1,-3,-5,-8,-4,-4,-5
1528281373039664,-5,-2,0,1,-1,-4,-5,7
1528281373039664,-4,0,-2,0,9,2,2,1
1528281373054959,2,2,4,2,-5,-2,3,9
1528281373054959,-1,-1,-2,-6,-10,-11,-2,5
1528281373069429,0,-1,-2,1,5,2,-7,-7
1528281373069429,-3,2,-1,1,-4,-8,-2,-9
1528281373084591,-5,-6,-3,1,-2,-4,-11,0
1528281373084591,3,0,2,-1,-6,1,8,3
1528281373092555,-1,-1,-3,2,3,2,0,-1
1528281373092555,-3,4,2,2,-1,4,9,2
1528281373107643,-3,-2,-1,1,0,-1,-7,-1
1528281373107643,-3,-7,-8,-4,-5,-3,2,2
1528281373129766,-2,-6,-1,-1,2,-1,-2,1
1528281373129766,2,-2,0,-2,-4,-2,-11,6
1528281373137568,-1,0,0,-1,-3,-2,6,7
1528281373137568,-2,3,5,1,1,11,3,-1
1528281373159444,0,0,0,-1,-2,-15,-12,-8
1528281373159444,0,-3,-5,-2,-5,-3,4,13
1528281373167558,4,2,1,-2,1,-13,13,5
1528281373167558,-1,-3,-1,-4,-4,15,-12,-9
1528281373174539,0,0,-3,1,8,11,31,7
1528281373174539,-4,-2,-2,0,1,1,-4,-12
1528281373181523,5,-8,-2,-2,-6,-6,-12,7
1528281373181523,-7,2,0,-3,-5,-13,-1,-9
1528281373196699,1,1,-1,1,2,-11,15,3
1528281373196699,-3,-1,-3,-4,-5,6,-6,-6
1528281373212583,-3,-1,-4,-2,-1,-4,-27,-2
1528281373212583,-3,-4,-4,1,-5,-4,18,8
1528281373227538,2,-1,-1,-3,-3,4,57,15
1528281373227538,-4,-3,-1,0,5,6,-7,-6
1528281373234644,-1,6,3,2,4,25,20,-5
1528281373234644,2,2,-3,-1,-1,-9,-35,4
1528281373249586,-1,-4,-2,0,7,23,62,2
1528281373249586,1,0,0,-2,-3,-6,-23,-3
1528281373272308,-3,-3,0,-2,-2,5,1,10
1528281373272308,-1,2,0,-3,-7,-28,-5,-2
1528281373279508,-4,-3,-2,0,-1,9,-23,-9
1528281373279508,0,-1,1,4,5,14,13,-1
1528281373302469,1,1,-1,1,-3,-16,-11,-2
1528281373302469,-3,0,-2,-3,-3,0,-11,-8
1528281373309761,-5,-3,-6,-2,1,-14,-42,-11
1528281373309761,2,-2,-2,-4,-3,-7,18,7
1528281373324504,-3,-7,-2,-1,-8,-19,-9,-5
1528281373324504,4,1,1,4,5,22,38,2
1528281373339751,4,0,1,0,1,-15,-31,-7
1528281373339751,2,-2,-1,2,1,14,1,-5
1528281373346737,-10,8,1,3,10,15,-27,4
1528281373346737,-2,-11,-1,-3,-4,-24,28,5
1528281373355092,-3,2,1,-4,-10,-2,-13,-5
1528281373355092,-5,-7,-6,-2,4,-5,2,-3
1528281373369933,-1,-3,-6,-3,-2,33,17,12
1528281373369933,-5,-6,-6,-3,4,-2,-8,-2
1528281373384895,2,-1,-5,0,-3,0,7,-1
1528281373384895,2,3,-3,-1,8,3,5,4
1528281373392610,1,-7,-1,-5,-17,-24,12,13
1528281373392610,-4,0,-3,-1,-7,-13,-12,-8
1528281373406835,2,-2,2,4,10,16,3,6
1528281373406835,-1,2,2,1,6,22,17,2
1528281373414551,-2,2,3,-3,4,-5,-8,-6
1528281373414551,-1,0,0,-7,-7,-11,-9,-3
1528281373430045,0,3,0,3,8,-3,20,8
1528281373430045,-1,1,7,3,-2,2,-5,-2
1528281373444796,-1,-2,-3,0,6,15,15,5
1528281373444796,-2,-4,-3,-3,-5,-13,-9,-4
1528281373452021,-2,-4,-4,-3,-4,-27,-15,-2
1528281373452021,-1,-3,-3,-4,-2,6,6,-3
1528281373466966,-2,-5,1,-2,-2,19,-3,-3
1528281373466966,0,2,-2,0,5,7,-3,0
1528281373474698,1,1,0,0,5,18,5,-1
1528281373474698,-1,3,0,2,-2,-5,6,3
1528281373489014,2,2,2,6,7,-11,1,28
1528281373489014,-2,-2,-3,-3,-6,7,1,-6
1528281373505089,-3,-4,0,1,3,15,4,-3
1528281373505089,0,-2,2,-2,0,-6,5,0
1528281373512170,-1,-1,1,-3,-5,0,-5,-6
1528281373512170,-2,2,1,0,-3,-19,-7,0
1528281373527110,-1,0,1,-5,-4,11,1,-1
1528281373527110,-3,-2,-5,-4,-13,-10,-7,-2
1528281373535039,-2,-1,-4,-1,14,33,4,-2
1528281373535039,3,3,4,3,7,11,7,5
1528281373550019,-3,-2,-5,-4,-7,17,4,-4
1528281373550019,1,-4,-3,-3,-4,-3,1,0
1528281373565046,0,-2,-1,-2,1,-8,-1,-2
1528281373565046,1,-3,-1,1,1,15,4,-1
1528281373580122,-3,-6,-2,-3,-2,-15,-2,-3
1528281373580122,-2,-6,-3,3,1,-12,-7,-1
1528281373602040,-1,-3,-2,-4,0,5,0,2
1528281373602040,0,1,-2,-2,-8,2,0,2
1528281373609239,-2,1,0,-2,-17,-26,-7,-8
1528281373609239,-1,0,2,9,30,27,4,-1
1528281373624270,-3,-2,0,1,-8,15,0,-4
1528281373624270,-2,-1,-5,-3,-1,4,2,-1
1528281373639475,-1,3,2,3,10,36,4,-2
1528281373639475,-3,-2,-7,-5,-7,-5,6,-4
1528281373654194,4,4,-2,-3,-1,-10,-1,1
1528281373654194,1,3,5,4,5,-4,-4,0
1528281373669197,-1,-4,-3,-1,1,-9,-3,-1
1528281373669197,-3,-2,1,-5,-7,-1,-4,-4
1528281373684111,-6,0,-4,-1,0,-2,0,-5
1528281373684111,-4,-3,-3,3,3,5,0,0
1528281373692116,-2,-2,-2,-3,-6,2,0,-2
1528281373692116,0,1,-2,-3,-3,-17,-6,-4
1528281373707049,-2,3,-3,-1,2,7,-1,-2
1528281373707049,-1,-1,-8,-2,7,16,8,-1
1528281373714029,-1,0,1,1,0,-5,0,1
1528281373714029,-1,-2,1,-2,-13,-17,-8,0
1528281373729262,0,-4,0,-5,-3,-13,-3,3
1528281373729262,-3,-5,0,-1,1,-3,0,0
1528281373744211,-2,-2,-1,-1,0,8,5,-3
1528281373744211,-1,0,-1,0,-7,-6,-2,-1
1528281373752190,-1,-5,-5,-6,-1,-8,-5,-5
1528281373752190,0,3,0,-5,-14,-1,-2,-3
1528281373767151,1,-1,-1,3,1,1,2,-3
1528281373767151,0,2,1,5,2,0,4,0
1528281373774132,-1,-1,-3,1,5,-3,0,-2
1528281373774132,-1,-2,-1,1,8,4,-1,0
1528281373790005,1,1,3,-2,-2,-1,1,-1
1528281373790005,-1,-2,-1,-5,-9,-9,-5,2
1528281373803995,0,0,2,-1,-2,0,-3,3
1528281373803995,-3,0,-2,-1,0,2,-1,0
1528281373812222,-3,1,0,0,-3,-3,-3,1
1528281373812222,0,-2,1,-1,1,-4,-1,-1
1528281373835060,0,-1,-3,2,3,2,2,1
