timestamp,emg1,emg2,emg3,emg4,emg5,emg6,emg7,emg8
1528446203296957,-1,-1,0,-2,0,-1,-1,-1
1528446203296957,-1,-1,-1,-1,-1,0,0,-1
1528446203311918,-2,-2,-2,0,-2,0,-2,-6
1528446203311918,-1,-1,-3,-1,0,-1,0,9
1528446203320894,-3,-1,-1,-1,-1,1,-2,-3
1528446203320894,-2,-3,-1,0,-1,-3,0,-3
1528446203335854,-2,-2,-1,-2,0,-2,-1,-1
1528446203335854,-1,-1,-1,0,-2,0,0,0
1528446203342836,-1,0,0,-1,-1,0,-1,0
1528446203342836,-1,0,-2,0,0,-1,-3,2
1528446203356798,-1,-1,0,-2,-2,-2,-2,-1
1528446203356798,-1,-1,-1,-1,0,-1,-1,-1
1528446203396691,0,1,0,-1,1,2,0,-1
1528446203396691,-1,-1,-1,-1,-1,-1,0,-1
1528446203398686,-1,-1,-1,-1,-2,-4,-2,-1
1528446203398686,1,-3,-2,-1,-1,1,0,-1
1528446203402675,-3,-2,0,-1,-2,-3,-2,-1
1528446203402675,-2,-2,-1,-2,-1,1,-2,-4
1528446203403672,-2,-2,-1,0,1,-3,0,1
1528446203403672,-2,-1,-3,-1,-1,0,0,-1
1528446203416638,-1,0,-1,-1,-1,-1,-1,0
1528446203416638,-1,0,0,-1,-2,-3,-1,-1
1528446203418632,-1,-2,-1,0,1,1,-1,0
1528446203418632,0,0,1,-1,-2,-1,-1,-3
1528446203423619,1,-2,-2,-1,-2,0,-1,-2
1528446203423619,-1,0,-1,0,-1,-1,-1,2
1528446203438586,-1,-1,-2,-1,-2,-2,-2,-2
1528446203438586,-2,-1,0,0,-2,-2,-2,3
1528446203445560,-1,-2,-1,-2,0,-2,0,-2
1528446203445560,0,-1,-1,0,0,1,-1,2
1528446203468498,-1,1,-1,-2,-1,-1,-1,-2
1528446203468498,-1,-2,-3,1,-2,-2,-1,-2
1528446203469496,-2,-1,0,-1,-1,-1,-1,-5
1528446203469496,3,-2,-3,-2,-1,-1,-1,4
1528446203483458,0,-1,-2,-1,0,0,0,-1
1528446203483458,-1,-1,1,-3,0,-1,-1,-1
1528446203484459,-2,1,0,-2,0,-1,-1,-3
1528446203484459,-3,0,0,-2,-2,-1,0,-2
1528446203506397,-3,0,-1,0,-1,1,-1,0
1528446203506397,-2,0,-2,-2,-1,-1,0,2
1528446203507395,-1,-3,-1,1,-1,-2,0,1
1528446203507395,0,-1,-1,-1,0,-2,-1,-3
1528446203528338,1,-1,0,0,-2,0,-2,-1
1528446203528338,1,1,-1,0,-1,-1,-1,-1
1528446203529336,2,-2,-1,0,-2,-1,-1,-5
1528446203529336,0,-3,0,0,0,-2,0,3
1528446203544296,0,-1,-1,-1,-2,-2,0,-4
1528446203544296,-2,0,-2,0,0,-2,-2,0
1528446203544296,-2,-2,-1,-1,0,-1,0,-1
1528446203544296,-1,-2,-1,0,-2,0,-1,-3
1528446203566237,-1,-2,-1,-1,-2,1,-2,1
1528446203566237,0,-1,0,-1,-1,0,0,-4
1528446203567235,0,-1,0,-3,1,-2,-3,0
1528446203567235,-3,2,-1,-1,-1,-1,-3,-1
1528446203589176,-2,0,-1,-2,-1,0,0,-1
1528446203589176,-1,1,-1,-2,-3,-1,-1,-2
1528446203589176,-2,-1,-2,1,-2,-2,-1,0
1528446203589176,-2,-1,-2,-1,1,-1,1,-7
1528446203604136,-2,-2,-1,0,0,-2,-2,7
1528446203604136,0,-2,0,0,0,-1,-1,-3
1528446203605134,1,1,-1,0,0,0,0,0
1528446203605134,-1,-2,-2,-2,-1,-2,0,-1
1528446203626077,-3,-2,-1,-1,-2,1,0,-2
1528446203626077,-2,-1,-1,-1,1,-2,-3,-1
1528446203627076,0,-2,-1,-1,-3,-2,-1,1
1528446203627076,0,-2,0,-1,-1,0,-2,0
1528446203649016,0,1,1,-3,-1,-4,0,-4
1528446203649016,-2,-1,-1,-2,-2,-1,-2,1
1528446203650014,-3,-1,-1,-2,-2,-1,-1,-1
1528446203650014,0,-1,-1,-1,-3,0,-2,-1
1528446203663976,0,-1,-1,0,0,-1,-2,-2
1528446203663976,-1,0,0,-2,0,0,-1,-4
1528446203664973,-1,1,-2,-1,0,0,1,-1
1528446203664973,-2,0,-3,-1,-1,0,-2,0
1528446203685917,0,-2,-1,-1,-3,-1,-1,2
1528446203685917,-1,-2,-1,-2,-1,-2,0,0
1528446203686915,-2,-3,0,-2,-2,-2,-3,2
1528446203686915,-1,1,-1,-1,1,-2,0,-1
1528446203708856,-1,1,-1,0,-1,0,-1,-4
1528446203708856,-1,-2,-2,-1,-2,1,-1,1
1528446203709854,-3,0,0,-1,-1,0,-2,1
1528446203709854,-1,-2,-1,-1,-1,-1,-1,-1
1528446203723817,0,-2,-1,0,0,-1,-2,-1
1528446203723817,1,-2,-1,-1,-2,-1,-1,0
1528446203724814,1,1,-1,-1,-1,-1,-1,-1
1528446203724814,-3,-2,-1,-1,-1,-1,-1,-3
1528446203746755,-4,-2,-1,-1,-1,-1,-3,1
1528446203746755,0,-1,0,-1,0,0,0,-5
1528446203746755,2,0,1,-2,-1,-1,-1,-3
1528446203746755,-1,-1,-1,-1,-3,-1,-2,1
1528446203776675,1,1,0,-1,0,-1,0,-4
1528446203776675,0,-2,-2,0,-2,0,0,1
1528446203777673,12,-2,-1,0,-2,-2,-1,2
1528446203777673,3,0,0,-1,-1,-1,1,-2
1528446203783669,-5,-2,-3,-1,-1,-1,0,-1
1528446203783669,-12,-1,-2,-1,0,-2,-2,-1
1528446203798941,-14,-1,-1,-1,0,1,0,-1
1528446203798941,-8,-2,-2,-2,-1,-2,-2,0
1528446203805963,-3,-1,-1,-1,0,0,0,-6
1528446203805963,1,-1,-2,-1,-2,-3,-1,9
1528446203806919,-1,-1,-2,-2,0,-3,0,-3
1528446203806919,3,0,0,0,0,0,-1,1
1528446203828903,0,-1,-2,-2,-1,-1,-2,-3
1528446203828903,1,0,-2,-2,-2,0,-2,-4
1528446203829858,2,0,0,0,1,0,-1,1
1528446203829858,-2,-4,-5,-5,-6,-2,-3,-1
1528446203842853,2,-1,-1,0,-2,-1,-1,-2
1528446203842853,4,-2,-1,0,-2,-2,-3,0
1528446203852029,0,-2,-1,-3,-2,-2,-2,-8
1528446203852029,-2,1,0,0,0,0,-1,1
1528446203866759,0,0,-1,0,0,0,1,4
1528446203866759,-2,0,-2,-1,-1,1,-1,-1
1528446203866759,-4,-1,-1,0,-2,-1,-2,-7
1528446203866759,-2,0,0,0,1,-1,0,8
1528446203888700,-1,-1,-2,-2,-2,-1,-2,-6
1528446203888700,-1,-2,0,-1,1,-2,-1,-9
1528446203889698,-3,0,-1,-1,1,0,-2,-6
1528446203889698,2,-1,0,0,-1,0,-2,-7
1528446203903660,2,-1,-2,-3,-2,-1,-1,-1
1528446203903660,1,0,-1,-1,-3,0,0,-3
1528446203911678,2,-1,-1,2,1,0,0,3
1528446203911678,0,-1,0,-2,-1,-3,-2,-1
1528446203926638,0,-1,-2,-1,-1,-2,0,2
1528446203926638,-1,-1,-1,-1,0,0,-2,0
1528446203926638,-4,-1,-2,-1,-4,-2,-1,6
1528446203926638,-3,-1,-1,-2,1,-2,0,-2
1528446203948553,3,0,-1,0,-1,-1,-1,14
1528446203948553,-2,-1,-1,-1,-2,-1,1,0
1528446203949551,-3,-2,-2,-2,-1,0,-1,3
1528446203949551,-4,-1,0,0,-1,0,-2,-7
1528446203963502,-5,-2,-2,0,0,-2,-2,-4
1528446203963502,1,1,0,-1,-2,-1,-1,-1
1528446203971480,2,1,-1,-1,-3,-1,-2,2
1528446203971480,2,-1,-1,0,-2,1,-1,-3
1528446203994420,1,-2,-1,-1,-1,-1,0,-6
1528446203994420,1,0,-1,0,1,-1,-1,-3
1528446203995417,0,0,-2,0,-2,0,-1,-7
1528446203995417,-1,-2,-2,-3,-1,0,0,-4
1528446204017366,-2,-1,0,-1,-1,0,0,-5
1528446204017366,-1,-1,-2,-2,-1,-1,0,0
1528446204017366,0,-1,0,1,0,-1,0,-3
1528446204017366,1,-1,-1,-1,-1,0,0,3
1528446204023341,0,-1,0,-1,-1,-3,-1,0
1528446204023341,-2,-1,0,-2,-3,-1,-2,-4
1528446204032662,-3,-3,-2,-1,0,-1,0,-1
1528446204032662,-2,-1,-2,-1,0,0,0,4
1528446204046299,-3,-1,-3,-1,-2,-2,-1,0
1528446204046299,-2,-1,1,-1,0,-2,-1,3
1528446204054515,-1,-1,0,-2,-1,-1,-1,3
1528446204054515,0,-1,0,-1,-1,0,-2,-1
1528446204069455,-2,-1,0,-1,-2,1,-1,-3
1528446204069455,0,-1,-2,-2,0,-2,0,3
1528446204070353,0,0,0,0,-1,-1,-3,8
1528446204070353,-1,-2,-2,-1,-1,-2,0,-3
1528446204084677,-3,-2,1,0,-2,0,-3,-6
1528446204084677,0,-2,-1,0,-1,-1,-1,-1
1528446204091300,-1,-2,0,-2,-2,-2,0,-1
1528446204091300,-1,-1,-3,-2,-2,-2,-2,-6
1528446204106261,-1,-1,-1,-1,0,0,0,1
1528446204106261,0,-1,-2,-1,-1,-2,-2,-2
1528446204107257,0,-1,-1,-2,-2,1,1,-1
1528446204107257,0,0,-2,0,-2,-2,0,1
1528446204128547,1,-1,-1,-2,-1,-1,-1,0
1528446204128547,0,-1,-1,0,0,0,-2,0
1528446204129491,2,-1,-2,-1,-1,-1,-1,-5
1528446204129491,0,-1,-1,-1,-1,-1,-2,10
1528446204143857,-2,0,-3,-2,-2,-1,0,-1
1528446204143857,-7,-2,0,-1,-2,0,-2,-6
1528446204151990,0,-1,-1,-2,-1,0,-1,3
1528446204151990,-4,-1,-2,-1,-1,-1,-1,-3
1528446204166962,-2,-1,-2,-1,-1,-2,-1,-7
1528446204166962,2,-1,-1,-2,0,-1,0,2
1528446204167745,-1,-1,-1,-1,0,-2,-2,-6
1528446204167745,3,-1,1,-2,-1,-1,-1,-3
1528446204197837,-1,-2,-2,-2,-1,-3,-1,-1
1528446204197837,0,1,-2,1,-1,0,-1,-3
1528446204197837,-3,-1,-1,-1,-1,-1,-1,-2
1528446204197837,-1,-1,-1,-1,-1,-2,-1,-2
1528446204212059,-1,-1,-1,0,0,-1,-1,1
1528446204212059,-3,-1,-1,-1,0,-1,-2,1
1528446204212799,-2,-1,-3,-2,0,0,-2,1
1528446204212799,-1,-2,0,-1,0,0,-1,-3
1528446204227034,-3,0,-1,0,-1,0,1,0
1528446204227034,1,-1,1,-1,-1,-2,-1,-1
1528446204227879,0,0,-1,1,0,1,0,-1
1528446204227879,-1,-2,-2,-2,-2,-2,-1,-6
1528446204249962,5,1,0,-1,1,1,0,5
1528446204249962,1,-2,-2,-2,-2,-1,-1,-3
1528446204250981,-2,-1,-1,-1,-2,-4,1,-2
1528446204250981,-2,-1,-1,0,-3,-2,-1,-3
1528446204272164,-2,-2,-1,-2,-1,-1,0,-1
1528446204272164,-2,-1,-2,1,-1,-1,-1,1
1528446204273194,-1,-1,0,-2,-1,-2,-3,-9
1528446204273194,0,-2,-1,-2,-1,-2,-1,8
1528446204286846,0,-1,-3,-2,-1,-2,-3,-2
1528446204286846,-1,0,0,-1,-2,1,0,0
1528446204287441,0,-1,-2,-2,0,-1,-2,-1
1528446204287441,-1,0,-1,-1,-2,0,0,-2
1528446204309392,25,-1,-1,-1,-2,-1,-2,0
1528446204309392,9,-2,-1,-3,0,-3,0,-1
1528446204310369,-2,-1,-1,-1,-1,-2,-2,0
1528446204310369,-13,1,-1,0,1,0,1,-4
1528446204332574,-28,-2,-2,-2,-1,-1,1,-1
1528446204332574,-21,0,-1,0,-1,-1,-1,-6
1528446204333307,-8,1,-2,0,-1,-2,-1,5
1528446204333307,-7,-1,-1,0,0,-1,0,-3
1528446204346272,-3,-1,-1,-2,-1,-1,-1,0
1528446204346272,0,0,-1,-3,-2,1,-2,0
1528446204347269,1,-1,-2,-2,-1,-2,0,0
1528446204347269,5,-1,0,-1,-1,0,0,-2
1528446204368767,1,-1,0,-1,-1,-1,0,-1
1528446204368767,-1,-2,-3,-1,-1,-1,-1,-1
1528446204377136,0,-2,0,-1,-2,0,-1,-1
1528446204377136,4,-1,-1,-2,-3,-1,-2,1
1528446204392818,2,-2,-1,-1,0,0,-3,-6
1528446204392818,5,-1,-1,1,-1,0,0,1
1528446204393816,3,-1,-3,-3,-1,0,-2,1
1528446204393816,1,-1,-2,-1,0,-2,0,-3
1528446204415321,-3,1,0,-1,-2,-2,-3,-2
1528446204415321,8,-1,-1,-3,-1,-2,1,4
1528446204416082,1,-2,0,-2,0,0,-1,0
1528446204416082,0,-1,0,-1,-2,-1,-3,4
1528446204428427,-1,-1,0,-1,1,0,0,-4
1528446204428427,-1,0,-1,0,-2,-1,-3,0
1528446204437025,1,-1,-1,0,-1,-1,0,-2
1528446204437025,1,1,0,-1,-1,-1,-2,-2
1528446204451985,1,-3,-2,-2,-2,-2,-1,1
1528446204451985,1,0,0,0,0,0,0,-1
1528446204453980,-2,-3,-2,-1,-1,-1,-1,-3
1528446204453980,1,0,-2,-1,-1,-2,-1,-2
1528446204474923,0,-1,0,-2,1,0,-1,3
1528446204474923,0,-2,-2,-1,-1,-2,-1,-3
1528446204475922,3,-1,0,0,-1,-2,-3,-1
1528446204475922,2,-1,0,-1,-1,2,0,1
1528446204487888,-2,-1,1,-2,-2,1,-2,-3
1528446204487888,-5,-3,-2,-2,0,-1,-1,1
1528446204496866,-7,-1,-1,-1,-3,0,-1,0
1528446204496866,-3,0,-2,1,0,-1,0,-2
1528446204511824,0,-1,0,0,0,0,-1,-6
1528446204511824,0,-2,-2,0,-3,-1,-1,2
1528446204513819,-2,-1,-1,-1,-1,-2,-1,-5
1528446204513819,2,-3,-2,-3,-3,-3,-1,3
1528446204534803,2,-1,-2,-1,-1,-1,0,0
1528446204534803,3,0,-2,-2,0,-1,0,0
1528446204535761,5,0,-1,-1,0,-1,0,-2
1528446204535761,3,-1,-1,-2,-1,0,-1,-4
1528446204547730,-1,-1,-2,-1,-1,-2,-2,0
1528446204547730,-1,1,1,-1,-1,-2,-1,3
1528446204556715,-3,0,-1,-1,-2,-2,0,0
1528446204556715,-1,-1,0,-1,-1,0,-1,-1
1528446204571714,-1,-3,-3,-1,1,-2,0,-1
1528446204571714,-3,0,-1,0,0,0,-2,-9
1528446204573660,-1,-2,-2,0,2,-2,1,3
1528446204573660,-4,-1,-2,0,0,0,-1,-2
1528446204610616,-2,-3,-1,-1,-2,-1,0,4
1528446204610616,-2,0,-2,-1,-1,-1,-2,-4
1528446204611558,-3,0,0,0,-1,-1,-2,-2
1528446204611558,0,-1,-1,0,-1,-1,-2,-1
1528446204612556,-2,-2,-2,0,-1,-1,-1,0
1528446204612556,0,-3,0,-1,-2,0,0,-1
1528446204617578,2,-1,-1,-1,-2,-1,0,0
1528446204617578,-5,-2,-2,-2,-1,-1,-3,-4
1528446204632503,-3,0,-1,1,-2,-1,-2,-4
1528446204632503,-2,-1,0,-1,-1,0,-1,9
1528446204633500,-2,-1,-1,-2,-1,0,-2,-6
1528446204633500,0,-1,-3,0,0,0,-1,-1
1528446204655465,2,-1,-1,-1,-2,-1,-1,1
1528446204655465,-3,-1,-1,-2,-3,-1,-1,-6
1528446204656455,-1,-2,-3,-2,0,-1,0,0
1528446204656455,0,-3,-1,-2,-2,-1,-1,0
1528446204668406,-4,-2,-1,-1,-2,-1,-1,-5
1528446204668406,-1,-1,0,0,-1,-1,1,1
1528446204684363,-2,-2,-2,0,-2,-1,-1,0
1528446204684363,-4,-1,0,-1,-2,-1,0,-2
1528446204692341,-1,-1,-2,-2,1,0,-2,0
1528446204692341,0,-2,0,0,-1,-2,-3,-3
1528446204693339,2,0,-2,0,-2,0,-1,1
1528446204693339,0,0,0,-1,0,-1,-1,0
1528446204714283,-1,-1,0,-1,-2,-1,-2,0
1528446204714283,-1,-1,-1,-1,0,-1,-1,6
1528446204716279,-1,-1,-2,0,0,-2,-2,-3
1528446204716279,0,0,-1,-1,-1,-2,-1,-2
1528446204737223,-1,0,-1,-2,0,-2,-1,0
1528446204737223,-3,0,-2,-1,-1,-3,-1,-3
1528446204738221,-4,0,0,0,-2,-2,-1,1
1528446204738221,-5,-1,-1,0,-2,-2,0,-3
1528446204752183,1,0,-2,0,-1,-2,1,5
1528446204752183,-3,-1,-2,-2,-3,-1,-1,-4
1528446204753180,0,-3,-1,-1,-2,-1,-1,-1
1528446204753180,1,-1,-1,-1,1,-1,0,-3
1528446204774124,-3,-1,0,-1,0,0,0,-10
1528446204774124,3,-1,0,-1,-2,0,0,9
1528446204776119,4,-1,1,0,1,0,0,-2
1528446204776119,2,0,-3,-2,-1,-1,-2,0
1528446204797830,1,1,1,0,-3,0,-1,0
1528446204797830,-1,1,-2,-2,0,-2,0,-2
1528446204798831,0,-1,0,-2,-1,0,-1,-2
1528446204798831,0,-1,-1,-1,-1,-1,-1,2
1528446204812063,-2,-1,0,-2,-1,-2,-2,-4
1528446204812063,-5,-3,-2,0,-1,0,-1,-3
1528446204813790,-3,-2,-1,-1,0,-1,-3,1
1528446204813790,-1,-1,-1,0,-1,2,0,-1
1528446204834737,-1,0,-1,-2,-2,0,-1,2
1528446204834737,-4,-1,0,0,-1,-3,-1,-8
1528446204836732,0,-1,0,-3,0,-3,0,5
1528446204836732,-4,-3,0,-3,0,-2,-1,-4
1528446204856704,-4,-2,-3,-1,0,-2,0,9
1528446204856704,-2,-2,-1,0,0,0,-1,-5
1528446204858671,-4,-1,-1,-1,0,1,-1,-2
1528446204858671,-1,0,0,-2,-1,-1,0,-3
1528446204886897,-5,-2,-2,-1,-1,-1,-1,-2
1528446204886897,0,-1,-1,-3,-2,-1,0,-1
1528446204888894,2,-1,-2,0,-2,-2,0,3
1528446204888894,1,0,-1,0,-2,0,-2,0
1528446204895148,2,0,-1,0,-2,1,1,-2
1528446204895148,-1,0,-1,0,0,-1,-3,-1
1528446204896114,-6,-1,1,-1,-1,-1,0,-3
1528446204896114,-4,-1,-3,0,-2,-2,-2,0
1528446204917380,-2,0,0,-1,0,-1,1,-2
1528446204917380,2,0,0,-1,-1,0,-2,-4
1528446204919327,2,-1,-1,0,0,0,0,-4
1528446204919327,3,0,0,-1,-1,-1,0,-1
1528446204930362,1,-1,0,0,0,-1,-1,1
