timestamp,emg1,emg2,emg3,emg4,emg5,emg6,emg7,emg8
1529312128934926,0,0,-1,-1,0,1,3,8
1529312128934926,-2,0,-1,-2,-1,-2,-3,0
1529312128949888,-3,0,0,1,0,-1,-1,2
1529312128949888,1,-2,-2,-2,-2,0,-2,-2
1529312128956869,1,-1,-1,1,0,-2,-3,-2
1529312128956869,2,0,-1,0,0,-1,3,-3
1529312128971869,-1,-1,-1,-1,0,-1,-5,6
1529312128971869,-3,-2,0,-2,-1,0,-1,-23
1529312128986789,0,-2,-1,-2,1,1,11,7
1529312128986789,0,1,0,0,0,-3,-13,-9
1529312128995765,1,-1,0,1,-1,0,-2,-2
1529312128995765,-1,0,-2,-1,-2,-2,0,11
1529312129009726,1,-1,-1,-1,0,1,3,-17
1529312129009726,-1,-2,0,-1,0,1,-3,-11
1529312129024686,-2,-1,0,-1,-1,0,1,4
1529312129024686,-2,0,0,0,1,0,2,3
1529312129039654,-1,-1,-1,-1,0,-2,-2,-1
1529312129039654,-2,-2,-1,-1,0,0,-1,-3
1529312129054606,0,0,-2,-1,-1,-1,-5,0
1529312129054606,-1,-1,-1,1,0,-1,4,-3
1529312129069567,1,-1,-1,-1,-2,0,0,3
1529312129069567,0,-1,-1,1,-2,0,0,2
1529312129077596,0,1,-2,0,-1,-3,-12,-1
1529312129077596,-1,0,-1,0,-3,0,8,3
1529312129084562,0,0,-1,-1,0,-2,-1,-8
1529312129084562,1,0,0,-2,0,0,0,8
1529312129100516,-2,-2,0,1,0,0,-2,-3
1529312129100516,-2,-1,-1,-1,-2,1,-1,-1
1529312129122425,0,-2,-1,0,-1,0,1,11
1529312129122425,-2,1,0,1,0,-1,-8,-17
1529312129129407,0,-1,-1,0,1,-1,-1,2
1529312129129407,-2,0,-1,0,1,-1,0,0
1529312129137384,0,0,0,-1,-1,-1,5,-2
1529312129137384,-3,-1,-4,-1,-1,-2,-12,14
1529312129152387,-1,-1,-1,-1,-1,0,1,2
1529312129152387,-1,-1,1,0,-1,-1,5,4
1529312129159357,-2,-2,0,-2,-1,0,-2,-4
1529312129159357,0,-1,-1,-2,0,-4,-5,4
1529312129174286,-1,1,-1,0,-1,0,2,0
1529312129174286,0,-1,0,0,-1,-1,1,-2
1529312129189246,1,-1,0,0,-1,-1,-5,-1
1529312129189246,0,-2,0,-1,-1,-1,4,-2
1529312129197267,-1,0,-2,0,0,-1,7,2
1529312129197267,-2,-1,-2,-1,-3,-3,-16,-3
1529312129212186,-2,1,0,0,0,-1,-2,-1
1529312129212186,0,0,-1,-1,-2,-1,-2,12
1529312129219166,1,-1,0,-1,0,-1,1,6
1529312129219166,0,0,-1,0,0,1,4,-4
1529312129234126,-2,-1,1,-1,-2,-2,-2,7
1529312129234126,1,-1,-1,-2,-1,1,3,2
1529312129249087,-1,0,-1,-1,0,0,-2,1
1529312129249087,0,0,1,-1,-1,1,-2,-13
1529312129257065,1,0,-1,1,-1,-1,1,11
1529312129257065,0,0,0,-1,0,1,9,-7
1529312129272027,-1,0,-2,-1,-1,-2,-11,-1
1529312129272027,-1,-1,-1,-2,-1,-1,2,-3
1529312129280004,-1,0,-1,-1,1,-3,-5,-1
1529312129280004,0,-1,-1,0,-2,1,3,2
1529312129294980,-1,0,-2,-1,-1,-2,-4,-7
1529312129294980,-1,-1,-1,-1,-2,-3,1,5
1529312129309977,-1,-1,1,0,0,-2,-1,-1
1529312129309977,1,1,0,0,0,1,-1,-2
1529312129316937,-1,-1,0,-1,0,1,1,13
1529312129316937,-1,0,1,-1,0,-1,-4,-11
1529312129331922,2,0,-2,0,0,1,13,-2
1529312129331922,-1,-2,1,-1,-2,0,-5,1
1529312129339844,-1,0,-1,0,1,1,-1,-4
1529312129339844,-1,0,-3,0,0,-3,-4,5
1529312129354806,1,-1,0,-2,-1,0,-2,-3
1529312129354806,1,-1,0,0,0,-1,-1,4
1529312129369765,0,-3,-1,-1,-1,1,-2,-10
1529312129369765,-3,-2,-1,1,-1,-1,2,3
1529312129384723,3,0,0,-1,-1,-1,-2,-9
1529312129384723,0,0,0,0,0,-1,2,3
1529312129399683,0,0,-1,-3,0,-2,0,3
1529312129399683,0,-1,-2,0,0,0,-2,0
1529312129414689,-3,-1,-1,0,0,-1,2,-1
1529312129414689,0,-1,0,0,1,0,0,12
1529312129429605,-1,0,0,-1,-2,0,-2,-4
1529312129429605,-1,0,0,0,-1,0,2,-3
1529312129436611,0,-2,-2,0,-1,-1,-5,2
1529312129436611,1,2,0,-1,0,1,7,-2
1529312129444589,0,-1,-1,0,0,-2,1,5
1529312129444589,-1,-1,-1,-3,0,-2,-6,-6
1529312129459524,-1,0,0,-2,-1,-2,-4,-3
1529312129459524,-2,-2,-1,-1,-2,1,7,5
1529312129474485,1,0,0,1,0,0,-3,1
1529312129474485,0,0,-1,0,-1,-1,1,-16
1529312129489444,-1,-1,1,0,-1,0,1,1
1529312129489444,0,0,-2,-1,-1,-1,1,-6
1529312129497421,-2,0,-2,1,0,0,0,-2
1529312129497421,0,-1,-2,0,0,0,-5,-3
1529312129512381,-2,-1,-2,-1,-2,-4,-2,6
1529312129512381,1,1,-1,-1,0,-1,3,-6
1529312129527341,1,-1,1,-2,-1,-2,-2,6
1529312129527341,0,-1,-1,0,-1,0,0,-6
1529312129542302,0,1,-1,1,0,0,9,15
1529312129542302,-4,1,0,-2,-1,-2,-23,-23
1529312129557262,2,0,-1,-1,-2,1,-1,6
1529312129557262,0,-1,0,-1,1,1,0,9
1529312129565240,-3,-1,-3,-1,-1,0,-3,-11
1529312129565240,1,0,0,-3,0,-1,10,22
1529312129579237,-1,-1,0,-1,0,-1,2,-9
1529312129579237,0,-1,-1,1,-1,0,-4,-5
1529312129587239,-2,-1,-2,-2,0,-1,-2,-6
1529312129587239,1,0,-1,0,-1,0,-2,7
1529312129609170,1,-1,-1,-1,-2,-2,-1,-3
1529312129609170,-5,-2,-2,-1,-2,-2,-5,-14
1529312129624085,-1,0,-1,-2,-1,0,2,-3
1529312129624085,-1,0,0,-1,-2,-3,-14,0
1529312129632096,0,-2,0,-1,-1,-1,-2,-1
1529312129632096,0,0,-2,-1,0,0,1,2
1529312129640042,1,-1,-1,1,2,-1,-3,2
1529312129640042,-3,0,-2,1,0,-1,3,-2
1529312129647022,1,-2,-1,-1,-1,-1,-1,-1
1529312129647022,1,0,-1,0,-2,0,4,5
1529312129655001,0,0,-1,-1,-1,-2,-3,0
1529312129655001,-2,0,-1,0,2,1,1,-16
1529312129669964,-2,-1,1,-1,-1,-1,2,4
1529312129669964,1,0,-1,-1,-1,-2,0,-1
1529312129676942,-1,-1,1,-3,0,0,-3,-9
1529312129676942,1,-2,0,0,-1,-2,6,16
1529312129691944,-2,2,1,1,1,2,-4,-1
1529312129691944,1,-1,-3,0,-1,-2,-2,2
1529312129699940,-2,1,-1,1,0,0,2,-11
1529312129699940,2,-1,0,-3,-2,-2,-1,1
1529312129714898,0,1,-1,0,-1,1,1,0
1529312129714898,-1,-2,-1,-1,-1,0,-1,-2
1529312129729857,-1,-1,-4,0,-2,-1,-2,-2
1529312129729857,0,0,-1,-1,-1,1,-2,-6
1529312129744815,0,-2,-1,0,-1,0,1,8
1529312129744815,0,1,-2,-2,0,-2,-5,-7
1529312129759775,1,-1,-2,-1,0,2,-1,-1
1529312129759775,-1,-2,0,1,0,0,2,5
1529312129766756,-1,0,-1,0,-1,-3,-1,-2
1529312129766756,0,1,2,1,-1,-1,0,2
1529312129782720,0,0,0,0,1,-1,-2,-1
1529312129782720,-1,-1,-1,-1,-1,0,-4,0
1529312129789641,1,1,0,-1,-2,-1,-1,1
1529312129789641,-1,1,0,0,0,0,3,-4
1529312129796660,-2,-1,0,-2,-2,0,2,2
1529312129796660,-1,0,-1,-1,-1,0,-2,4
1529312129819596,-1,-1,0,-1,-2,-1,-5,10
1529312129819596,-1,-3,-2,0,1,0,4,-11
1529312129826659,1,-1,-1,0,-2,0,0,4
1529312129826659,-2,-2,0,0,0,0,2,-5
1529312129842662,-1,-2,-1,1,-1,0,-4,-1
1529312129842662,1,-1,0,-1,-1,1,8,8
1529312129849630,-1,-1,2,-3,0,0,-5,-7
1529312129849630,2,0,0,-3,0,0,1,5
1529312129856620,-1,-1,1,-2,1,-1,-6,-5
1529312129856620,0,0,-1,-1,-1,-2,5,22
1529312129864849,1,1,0,1,2,2,4,-16
1529312129864849,-1,1,1,0,-1,-1,-2,-5
1529312129872567,1,-1,-1,-1,-1,1,1,3
1529312129872567,-1,0,0,0,0,-1,0,-2
1529312129887524,-3,-1,-1,-1,-1,0,-1,9
1529312129887524,1,-1,-1,-1,1,-1,-4,-9
1529312129902721,-3,-3,-2,-2,-1,0,-1,-6
1529312129902721,-2,-1,0,-1,0,1,-2,-2
1529312129910025,1,-2,0,-1,-2,-3,1,-1
1529312129910025,-1,0,-2,0,0,-2,-5,-5
1529312129917389,0,-1,-1,-1,-2,-2,-3,12
1529312129917389,-2,-1,0,-1,-1,-1,1,-20
1529312129925396,0,-1,-2,0,-1,1,-1,9
1529312129925396,-2,-1,0,-1,-2,1,5,5
1529312129932492,1,0,0,-1,-1,-1,0,-3
1529312129932492,-2,-1,-2,-2,-2,-1,-3,14
1529312129939490,-2,-1,0,-2,-1,0,1,-14
1529312129939490,1,-2,0,0,0,-1,4,5
1529312129954476,0,-1,-2,0,-1,0,-5,-13
1529312129954476,0,1,0,-2,0,-2,1,5
1529312129969430,0,0,-1,-1,-1,-2,-3,16
1529312129969430,0,-1,1,1,0,2,11,-5
1529312129977375,-1,-1,-1,-2,-3,-2,-17,1
1529312129977375,1,1,-2,-2,0,-2,1,-6
1529312129984939,0,-2,-2,-2,-2,-1,0,6
1529312129984939,0,0,-1,-1,-1,-1,-5,1
1529312130000221,-3,1,0,-1,2,0,5,4
1529312130000221,-1,-1,1,1,0,-1,-2,-8
1529312130006932,-1,0,-3,-2,0,-2,-4,0
1529312130006932,0,-1,-1,-1,0,-1,4,-11
1529312130015176,0,-1,-1,0,0,-2,2,-2
1529312130015176,-1,-4,0,0,-1,2,-3,1
1529312130021992,0,-2,1,2,0,0,1,-3
1529312130021992,0,-1,-2,0,-1,1,-5,1
1529312130030127,0,-1,-2,-1,-1,-2,1,6
1529312130030127,1,2,-1,-2,0,-1,-2,1
1529312130037420,0,-1,-1,0,0,-1,5,-4
1529312130037420,-1,0,-1,-2,-1,-3,-14,9
1529312130052382,-2,0,-2,-2,0,-2,-7,-27
1529312130052382,-4,-3,-3,0,-2,1,1,-3
1529312130059133,-2,1,0,0,1,0,-1,-3
1529312130059133,-1,-1,-1,1,-1,-1,1,3
1529312130075186,0,-1,0,0,0,0,3,7
1529312130075186,-1,-1,-1,-1,-1,-1,-3,4
1529312130082279,0,-1,-2,-1,1,0,-1,-11
1529312130082279,-4,-1,0,1,-1,-1,-5,3
1529312130090014,0,0,-1,-2,-2,-2,8,7
1529312130090014,-1,1,-1,0,-1,-1,4,2
1529312130097257,-1,-1,-1,0,-2,0,-3,-4
1529312130097257,1,-1,-2,0,0,1,3,3
1529312130112760,1,-1,0,0,1,0,7,6
1529312130112760,-2,-2,-1,-2,-2,-3,-20,-8
1529312130120067,-3,-1,-1,0,-1,-2,-4,-5
1529312130120067,1,1,-1,0,0,-1,2,-1
1529312130135241,0,0,0,1,-1,0,0,-1
1529312130135241,0,0,0,1,-1,1,6,1
1529312130142344,0,-2,-2,-1,0,-2,-2,0
1529312130142344,-1,-2,-2,1,-1,1,2,3
1529312130157300,0,0,2,0,0,0,-1,-7
1529312130157300,0,0,1,-2,0,0,2,-3
1529312130172302,0,0,-2,-1,0,1,4,0
1529312130172302,0,0,-1,0,-1,-2,-4,-3
1529312130179284,-1,-2,-3,-2,-3,-2,3,14
1529312130179284,-1,0,-2,-1,-2,-1,-1,-12
1529312130194290,-1,-1,-1,0,-1,0,1,5
1529312130194290,0,0,0,-1,1,1,4,-6
1529312130202462,0,-1,-2,-2,1,0,-1,3
1529312130202462,-1,1,-1,1,0,0,0,-4
1529312130217424,-2,-1,0,0,-2,0,-2,0
1529312130217424,2,-2,0,0,-2,-2,0,3
1529312130232670,0,0,-1,-1,-1,-2,3,-4
1529312130232670,0,-1,-1,-1,-1,0,-13,1
1529312130247640,0,0,0,-1,-1,0,-2,2
1529312130247640,-5,-1,-1,-3,0,-2,-5,-24
1529312130277351,-1,-1,1,1,0,0,-4,0
1529312130277351,1,-1,-1,0,-1,-1,9,5
1529312130284544,-1,-1,-1,-1,-2,-1,-1,1
1529312130284544,1,0,-1,-1,-1,1,1,16
1529312130299262,0,2,1,-1,-1,1,-1,-1
1529312130299262,-1,0,-1,-1,0,-1,2,7
1529312130307241,-1,-1,-2,-1,-1,0,-3,1
1529312130307241,1,-2,-1,1,1,0,3,4
1529312130315230,0,0,-1,2,0,-2,1,-4
1529312130315230,0,-1,0,-1,-1,0,5,2
1529312130322199,-1,0,-2,-1,-1,-1,-1,1
1529312130322199,-1,1,0,0,-1,-1,2,-3
1529312130337701,-1,0,-1,-3,1,-1,0,-2
1529312130337701,-1,-2,1,0,0,0,-6,-10
1529312130352722,-1,-1,-1,0,0,0,-2,2
1529312130352722,-2,-1,-1,-1,-1,-2,-2,-8
1529312130359911,0,-2,0,0,-2,0,-5,6
1529312130359911,0,0,-1,-1,-1,-1,5,13
1529312130375162,-2,1,-2,0,-1,0,0,-17
1529312130375162,-1,-1,-1,-2,-1,0,-5,1
1529312130382932,-1,-1,1,0,1,-1,-4,-5
1529312130382932,-1,0,1,1,0,0,-2,-2
1529312130397274,1,1,-1,0,-2,0,2,-4
1529312130397274,-2,-1,-2,0,-1,-3,-3,14
1529312130412848,1,-1,-1,0,-1,1,6,-1
1529312130412848,-1,-1,-1,0,1,-2,-1,-5
1529312130420083,1,-1,-1,0,0,-1,1,1
1529312130420083,-1,-1,-1,-2,-1,-2,-3,4
1529312130435384,-1,0,0,-1,-1,-1,-1,6
1529312130435384,-1,0,0,0,-1,-1,3,1
1529312130442510,1,1,-1,0,1,1,2,-2
1529312130442510,0,-1,-2,-1,-1,0,-2,-6
1529312130457547,-1,1,0,0,0,-1,-1,3
1529312130457547,1,-1,1,-1,-2,0,1,-4
1529312130472515,-1,-2,0,-1,-1,-2,-3,-1
1529312130472515,-1,0,0,-2,-2,-1,6,1
1529312130479485,-2,-1,-2,1,-1,-1,0,-2
1529312130479485,0,0,-2,-2,0,0,-3,-2
1529312130494483,1,0,-1,0,0,0,0,0
1529312130494483,0,0,1,-1,0,-2,3,6
1529312130502478,1,-1,0,0,-1,0,-3,-6
1529312130502478,0,-1,-1,1,-2,0,1,1
1529312130524596,0,-1,-1,-2,-2,1,5,1
1529312130524596,-1,1,-1,-1,0,-2,1,-1
1529312130532342,0,0,-1,-1,1,-2,-1,4
1529312130532342,-1,-1,0,-1,-2,0,-1,0
1529312130547306,-1,-2,-1,-1,1,-1,0,-5
1529312130547306,-1,-2,-2,-1,-1,-1,-5,-10
1529312130555300,1,0,-1,0,2,2,9,13
1529312130555300,0,-1,-1,0,1,-1,-6,-5
1529312130570292,-2,0,-2,0,0,-2,-1,2
1529312130570292,-1,-2,1,1,-1,0,0,0
1529312130584805,-1,-1,0,-2,-2,-1,-5,-15
1529312130584805,-1,-1,0,-1,0,-1,0,2
1529312130592789,0,0,-1,0,-2,0,-2,14
1529312130592789,-1,-2,1,0,0,3,3,-17
1529312130607746,-2,-1,0,0,0,0,-1,3
1529312130607746,0,0,0,-1,0,-2,1,-5
1529312130615035,0,-1,-1,-1,0,-3,-4,5
1529312130615035,0,0,-2,-2,1,2,10,4
1529312130630459,-1,0,0,-1,0,-3,-19,1
1529312130630459,0,-1,-1,0,-1,1,6,3
1529312130644571,-1,-2,-1,1,-2,1,3,-2
1529312130644571,0,-1,-1,0,0,-2,0,11
1529312130652536,-3,0,1,0,-1,-2,-6,-18
1529312130652536,-1,1,-1,-1,-2,-1,-3,0
1529312130667392,0,1,-1,-2,1,1,3,4
1529312130667392,0,1,-1,-1,0,-2,-3,0
1529312130675278,0,0,-2,0,-1,0,4,-1
1529312130675278,0,0,-1,-1,-1,-2,-2,-1
1529312130689369,0,-1,1,-1,0,-3,-2,-2
1529312130689369,1,0,-1,0,1,2,4,4
1529312130704349,-1,-2,-2,-1,-1,-2,3,5
1529312130704349,-1,1,-1,-1,-1,-1,-5,-6
1529312130712274,-1,-1,-1,0,1,0,-1,-1
1529312130712274,1,0,-2,1,0,-2,-2,4
1529312130727233,-1,-1,0,-2,-1,-1,4,-2
1529312130727233,-1,-1,-1,-1,-1,0,-1,-3
1529312130734267,0,-1,1,-1,0,-2,1,10
1529312130734267,-1,-1,0,0,-1,0,-3,-18
1529312130749227,2,-1,-1,-1,0,0,0,1
1529312130749227,0,-3,-2,-1,-1,-1,-3,-3
1529312130757208,0,-2,-2,-1,-2,-1,-1,-1
1529312130757208,-1,-2,-1,-1,-3,0,-1,3
1529312130772142,-2,-1,-1,-1,0,0,5,3
1529312130772142,-1,-1,2,-1,0,-1,-6,-15
1529312130787128,0,0,-1,0,-1,0,1,-9
1529312130787128,1,1,0,0,-1,1,0,0
1529312130794059,-2,-1,2,-1,-1,1,-1,-4
1529312130794059,-1,-1,-1,-1,1,-2,-1,-4
1529312130809052,0,-1,0,0,-2,2,0,7
1529312130809052,-2,-1,-2,1,0,-2,0,2
1529312130817050,-1,-2,-1,-1,-1,-1,0,3
1529312130817050,0,0,0,-1,-1,1,-2,-7
1529312130832007,-2,-1,-1,0,-1,0,5,1
1529312130832007,0,0,0,-2,-2,-1,-4,-4
1529312130854903,0,-1,-1,2,-1,-2,1,-1
1529312130854903,-1,0,-1,-1,0,-1,-4,1
1529312130861935,-1,-1,0,0,1,0,2,-13
1529312130861935,-2,0,0,-1,-1,0,0,-1
1529312130876888,0,0,2,-1,0,-1,-3,3
1529312130876888,-1,-3,-3,-1,0,-1,4,12
1529312130884867,0,-2,0,-3,-1,-1,-4,-2
1529312130884867,-2,-1,2,-1,0,-1,-1,-3
1529312130899790,-1,-1,-2,-2,-1,2,11,8
1529312130899790,-1,0,-1,-1,-1,-2,-12,-10
1529312130914778,-1,0,-1,0,-1,-1,-3,-3
1529312130914778,0,0,-2,0,0,0,1,5
1529312130929747,-2,-2,-1,-2,-2,-2,-5,-5
1529312130929747,0,1,1,-1,-1,-1,-1,-7
1529312130936673,-1,0,-1,-2,0,0,5,6
1529312130936673,0,0,0,0,-1,-1,-2,-5
1529312130959612,-2,-3,-2,0,-1,-2,1,8
1529312130959612,0,-2,0,-1,-2,-2,0,-2
1529312130974619,0,1,0,-1,1,1,-6,3
1529312130974619,-2,1,-1,-1,0,-2,-4,-16
1529312130982550,-2,-1,0,0,-1,-2,-3,-1
1529312130982550,-1,0,-2,-1,-1,0,2,2
1529312130996513,-2,-1,0,-1,-2,-1,-1,-7
1529312130996513,-1,-1,-2,-1,1,1,1,9
1529312131004526,0,-1,1,0,-2,-1,1,0
1529312131004526,0,-2,-1,-1,-1,0,-3,-2
1529312131012497,0,-1,-1,-1,-1,-1,-7,-7
1529312131012497,2,-2,-1,2,2,2,8,8
1529312131027434,1,1,-1,0,-1,0,-5,-9
1529312131027434,-2,-1,-2,-1,-1,-1,8,8
1529312131034413,0,-1,-2,1,-3,-2,-20,-4
1529312131034413,-1,-2,-1,-2,-1,-2,-2,3
1529312131049400,-2,0,-1,-1,0,-1,2,-5
1529312131049400,0,0,0,-1,0,-1,-5,-3
1529312131056664,-1,-1,-1,-1,0,1,5,1
1529312131056664,0,-2,0,0,-2,-1,-3,0
1529312131071624,-2,0,-1,-2,-1,-1,-1,-1
1529312131071624,-1,-4,-2,-2,-2,-1,3,1
1529312131087722,0,-3,0,0,2,-1,-2,0
1529312131087722,2,1,0,0,-1,0,1,19
1529312131094814,-2,1,1,-1,1,-1,3,-36
1529312131094814,-3,-2,1,1,-2,-1,-13,-4
1529312131117745,1,-1,-1,0,-1,-2,-2,-1
1529312131117745,-3,-1,0,0,-1,1,3,-7
1529312131124512,0,0,-2,-2,0,0,2,19
1529312131124512,-3,-2,-1,-2,-1,-2,3,0
1529312131139443,0,1,0,-2,0,0,-2,-6
1529312131139443,0,-1,1,-1,-1,-2,-6,-3
1529312131154402,-1,-1,-1,0,-1,-2,-3,6
1529312131154402,1,1,1,-1,0,1,2,6
1529312131169630,-2,0,0,-1,0,0,-1,-4
1529312131169630,-3,-2,0,0,-1,-1,-1,0
1529312131177781,0,-2,-1,0,0,0,0,-2
1529312131177781,1,-1,-1,-1,-1,-1,-1,3
1529312131191903,-1,-1,0,0,-2,0,2,-2
1529312131191903,0,0,0,0,0,-2,-2,-1
1529312131207150,0,0,-2,-1,0,-2,0,2
1529312131207150,-1,-1,-1,-1,0,-2,0,0
1529312131214133,1,1,-1,-1,0,-1,-3,1
1529312131214133,0,-1,0,0,0,0,4,0
1529312131230092,-2,-2,-1,-1,-3,-1,0,5
1529312131230092,1,-1,-1,-1,-1,1,-4,-5
1529312131237354,-3,-1,-2,-2,-1,-2,3,-5
1529312131237354,-1,0,-3,0,0,1,0,3
1529312131252032,1,-1,1,1,0,-1,1,10
1529312131252032,-2,0,-2,1,-1,-2,0,-2
1529312131267497,-1,0,-1,-2,-1,0,-5,-12
1529312131267497,-1,0,-1,-1,1,1,3,1
1529312131275276,-1,-1,0,0,-1,-1,-1,1
1529312131275276,-1,-1,0,0,-1,-2,-2,0
1529312131289184,0,-1,0,0,-1,-2,3,0
1529312131289184,-3,1,-1,0,-1,0,-3,-2
1529312131297162,0,0,-2,-2,-1,0,0,5
1529312131297162,0,-2,0,0,0,-1,11,2
1529312131312421,0,0,0,0,-1,-3,-13,-1
1529312131312421,-2,-2,0,0,-2,0,-1,-7
1529312131327382,-1,-2,-2,-1,1,2,5,8
1529312131327382,-1,-2,0,-1,0,0,0,4
1529312131334362,0,-1,0,-1,0,-1,-6,1
1529312131334362,-2,-1,-1,-1,1,-1,3,-3
1529312131349563,0,1,-2,-2,-1,0,2,1
1529312131349563,0,0,-2,0,-2,-2,0,1
1529312131357297,0,0,-1,-1,0,-1,0,-1
1529312131357297,-2,-2,0,0,-1,0,-6,1
1529312131371827,-2,-2,-1,-1,-1,0,3,-2
1529312131371827,1,0,-2,-2,-1,-1,11,7
1529312131387787,-2,-1,-1,1,-2,-2,-1,-4
1529312131387787,0,-1,-1,-2,-1,-3,-1,-5
1529312131394766,-1,0,-1,0,-2,1,6,7
1529312131394766,-1,1,-2,0,-1,-2,-4,-1
1529312131409726,0,0,1,0,0,1,-2,-5
1529312131409726,0,-1,0,0,-2,-1,-2,4
1529312131417693,-1,-2,1,0,-1,-1,1,-1
1529312131417693,-2,-1,0,-2,-2,0,-1,-2
1529312131432824,-1,-2,-2,0,0,-2,2,10
1529312131432824,0,1,1,0,-2,1,0,-8
1529312131447821,0,0,-3,-2,0,-2,-2,-2
1529312131447821,0,-1,-1,1,1,0,-4,8
1529312131455160,2,-2,0,-1,-2,-1,2,7
1529312131455160,1,0,0,-1,0,-2,7,-16
1529312131470292,0,1,-1,-1,0,0,-16,-6
1529312131470292,-1,-1,-1,-2,-2,-2,-5,-3
1529312131477275,-2,0,-2,0,-1,-2,5,-2
1529312131477275,0,-1,-1,1,1,-1,-1,7
1529312131492217,-1,0,0,-1,0,-1,4,-3
