timestamp,emg1,emg2,emg3,emg4,emg5,emg6,emg7,emg8
1529312128926948,2,22,21,7,-7,-6,-3,-1
1529312128926948,1,4,10,-1,-4,3,2,1
1529312128927945,1,6,6,-11,2,3,1,1
1529312128927945,1,0,2,-5,14,9,1,0
1529312128930936,-5,-16,8,13,-5,-7,-6,-5
1529312128930936,5,25,-22,-9,-8,-7,-1,1
1529312128931934,-5,-26,0,3,-1,1,1,1
1529312128931934,-4,-8,-19,6,-7,0,1,-2
1529312128936940,-3,7,2,-18,18,-1,-6,-4
1529312128936940,5,-3,8,3,-20,-9,-5,-4
1529312128945896,-2,-9,17,14,-17,4,3,1
1529312128945896,-8,-5,-37,-16,14,-4,0,1
1529312128953877,1,7,7,10,12,13,2,2
1529312128953877,-10,0,1,-5,14,1,-1,-5
1529312128966841,4,2,-7,-1,-8,-22,-8,-8
1529312128966841,-2,14,24,-1,-37,-6,-5,0
1529312128975816,13,16,0,1,13,10,8,5
1529312128975816,-3,-17,-12,6,43,23,2,2
1529312128998768,-10,3,8,10,14,10,1,-3
1529312128998768,-1,-17,-1,0,-12,-22,-4,-5
1529312128999754,-13,-6,-17,-16,-29,-2,-2,-1
1529312128999754,-10,-5,13,-2,-12,-11,0,-2
1529312129011721,6,6,-7,-5,7,5,-1,-5
1529312129011721,-14,-4,6,-2,0,-11,-6,-6
1529312129020697,20,13,-3,-6,-9,2,-9,-9
1529312129020697,3,-1,2,-10,-35,-9,6,13
1529312129035697,-9,-6,-1,12,22,11,8,18
1529312129035697,12,16,0,12,9,1,2,2
1529312129037652,-16,-29,-9,-26,1,-4,-22,-35
1529312129037652,-11,-7,0,-3,-20,-10,10,6
1529312129058595,20,23,-4,-5,14,5,9,16
1529312129058595,13,2,15,23,19,18,-10,6
1529312129060590,-10,-11,-2,17,20,9,2,19
1529312129060590,7,5,-8,-10,-16,-11,-9,-11
1529312129072558,-18,-3,-1,-8,-34,-10,-8,-18
1529312129072558,-7,-11,4,-4,17,12,6,-9
1529312129081571,3,5,-1,-2,7,1,10,-19
1529312129081571,-13,-14,-10,-8,2,-4,8,18
1529312129095535,2,-5,-6,0,-33,-31,-20,5
1529312129095535,0,7,3,-5,-9,-2,-16,-33
1529312129097491,4,0,-3,0,16,14,22,36
1529312129097491,13,10,9,16,36,34,18,2
1529312129118475,16,3,1,-14,-22,-15,-2,5
1529312129118475,-4,2,0,3,-4,-6,-4,3
1529312129120431,2,-6,-6,-6,-19,-12,-12,-13
1529312129120431,6,17,2,-3,-4,-13,-11,-17
1529312129132441,-12,-13,-14,-13,-14,5,9,-1
1529312129132441,4,3,-1,0,11,1,10,10
1529312129141416,-11,-5,9,12,1,0,0,1
1529312129141416,-7,-3,-1,-3,12,9,-3,3
1529312129156362,5,1,2,5,16,3,-3,-10
1529312129156362,4,-12,-11,-17,-24,-4,8,-18
1529312129157331,-7,2,-7,3,-12,-13,4,17
1529312129157331,0,-9,6,0,-24,-13,-18,18
1529312129178277,-27,-3,-1,19,69,33,4,-1
1529312129178277,53,22,2,-3,-2,1,6,18
1529312129180271,-13,-14,-5,3,-10,-12,-14,-21
1529312129180271,-4,-12,-6,3,0,-8,-3,-21
1529312129192269,1,14,1,-11,-22,-8,-1,3
1529312129192269,-23,-10,-1,1,1,-1,-4,-5
1529312129201228,12,8,-1,-7,-10,-4,1,0
1529312129201228,-3,2,1,-13,-4,5,0,-7
1529312129216174,-2,-8,2,18,18,11,4,9
1529312129216174,-7,12,4,10,23,3,-1,3
1529312129217172,9,15,3,-4,-19,-8,2,-4
1529312129217172,-1,-2,-3,-2,-3,-2,-6,-9
1529312129238116,-6,-3,-1,-5,-3,1,12,-17
1529312129238116,0,-7,2,-5,-11,-12,-23,15
1529312129240110,-8,-3,-4,2,7,5,9,8
1529312129240110,-9,-3,-2,1,4,-3,-7,2
1529312129252105,15,2,-4,-14,-22,-14,-35,-42
1529312129252105,-2,2,-4,-7,-9,-6,23,15
1529312129261056,-1,-14,6,21,16,7,11,32
1529312129261056,-3,39,-1,-9,7,5,-2,-4
1529312129276015,5,-13,-2,-6,-10,-4,-8,-8
1529312129276015,-12,-16,-2,2,3,5,8,-6
1529312129278010,-16,-4,-4,-11,-11,-7,-20,-46
1529312129278010,6,-17,-1,6,-7,-7,-4,24
1529312129297995,5,11,-1,3,8,1,-42,-61
1529312129297995,-3,11,4,-2,-1,4,44,76
1529312129299951,15,4,-1,4,5,6,28,41
1529312129299951,-6,3,2,4,-1,-4,-24,-14
1529312129311971,-6,7,-3,-8,-5,-1,2,1
1529312129311971,-3,-26,-2,-6,-11,-3,-24,-31
1529312129320895,-38,-6,-4,-2,7,6,6,4
1529312129320895,32,-29,-21,3,5,-2,10,7
1529312129334856,23,25,8,-3,-4,-2,-5,3
1529312129334856,-12,11,4,-3,-5,3,-15,-21
1529312129341837,15,28,2,0,0,-3,8,-17
1529312129341837,-46,6,6,6,2,-23,-20,25
1529312129358793,17,-38,7,0,-3,7,43,6
1529312129358793,-9,16,-33,-3,3,21,5,11
1529312129359791,18,-14,10,-10,-20,-34,6,9
1529312129359791,16,15,-13,-6,5,56,30,-36
1529312129371758,-3,-4,-3,3,10,3,8,-19
1529312129371758,-24,-10,12,-3,-9,-36,-48,-1
1529312129380734,18,7,-1,9,9,48,11,5
1529312129380734,-12,9,2,-14,-11,-45,-22,-58
1529312129403719,-19,4,8,1,3,28,-48,15
1529312129403719,46,6,-7,4,17,28,75,54
1529312129404670,7,-39,-11,-8,-17,-32,-36,4
1529312129404670,-44,-15,12,3,-6,-10,-66,-38
1529312129418680,6,27,-18,0,7,13,51,36
1529312129418680,-18,4,26,3,-13,-28,-36,-41
1529312129419676,0,37,1,1,7,-16,-29,-17
1529312129419676,-67,-67,-16,-4,-6,-44,-34,-61
1529312129431598,97,6,1,5,14,59,79,84
1529312129431598,-21,13,-5,5,6,5,-26,-49
1529312129440600,41,64,-4,-13,-13,-28,-17,-17
1529312129440600,-54,-19,23,10,8,43,42,4
1529312129455549,49,-25,-17,-6,-10,-32,-15,83
1529312129455549,-3,-57,-4,0,3,1,93,3
1529312129462516,9,13,-1,3,18,18,-28,30
1529312129462516,27,35,0,-5,-6,-28,-14,-47
1529312129478473,-63,25,8,-1,-16,-37,-48,-5
1529312129478473,-7,-11,-1,-5,-21,4,1,9
1529312129480467,-86,-64,-17,-6,14,-12,-34,-5
1529312129480467,124,79,3,8,-2,6,1,-13
1529312129492435,-44,-23,0,-7,5,26,46,72
1529312129492435,43,6,15,10,-23,-18,-24,-38
1529312129501411,-38,83,-6,-9,10,4,9,-55
1529312129501411,-45,-90,-4,1,-20,10,15,41
1529312129515373,-30,-14,-6,-10,20,-16,-12,-34
1529312129515373,9,4,-8,34,1,2,-22,6
1529312129522355,-1,-19,0,-12,-13,-2,23,-12
1529312129522355,3,-7,12,-16,18,27,39,12
1529312129538312,8,40,8,-39,-70,-36,-51,-28
1529312129538312,-5,-13,-12,51,89,18,11,1
1529312129540307,6,-25,2,13,-5,5,34,25
1529312129540307,36,33,7,34,-36,-11,-14,8
1529312129562248,-61,-41,-10,-40,32,0,-5,-59
1529312129562248,11,31,-7,-39,3,11,-4,-10
1529312129564244,33,-11,2,-16,-33,-1,-8,8
1529312129564244,5,4,-10,-35,-27,-9,11,44
1529312129576211,-17,-22,11,49,5,-4,5,-21
1529312129576211,8,13,-2,3,14,0,-15,-11
1529312129582247,-8,-10,1,11,-2,-1,-7,-18
1529312129582247,9,-12,-13,-46,-22,-2,11,22
1529312129598207,9,16,1,25,13,-6,2,-9
1529312129598207,-46,-6,1,-27,-16,-9,-26,-17
1529312129600148,16,-40,4,19,5,7,3,7
1529312129600148,15,0,-1,8,7,6,15,-8
1529312129621091,15,25,-5,0,-12,-8,-7,4
1529312129621091,-10,-8,-1,-11,-16,0,8,7
1529312129622091,-13,4,3,10,48,17,15,22
1529312129622091,16,13,-1,24,23,11,-6,-41
1529312129635107,-2,2,-8,-20,6,-5,4,22
1529312129635107,-5,-7,0,-20,-40,-8,1,4
1529312129642035,-3,-8,-8,-22,-23,-10,-5,-7
1529312129642035,-1,10,0,16,24,-2,-19,1
1529312129657994,-13,-28,3,15,-1,5,8,-22
1529312129657994,-3,23,-4,-13,-16,-19,4,-15
1529312129659989,6,-20,5,11,10,16,-8,28
1529312129659989,1,4,0,8,23,11,21,22
1529312129680945,-6,-20,-1,12,-22,-13,-9,-27
1529312129680945,-6,0,5,-12,2,-1,-10,8
1529312129682936,15,-5,-8,-13,-1,-3,-5,-19
1529312129682936,-26,12,-8,-23,-10,-9,-7,3
1529312129694944,-22,0,-7,-4,-4,-16,-11,-46
1529312129694944,47,7,6,13,6,6,9,65
1529312129703924,-23,1,2,3,-3,-12,-27,-1
1529312129703924,-13,-6,5,9,8,18,35,7
1529312129718910,7,7,-1,-2,-4,-21,-33,-68
1529312129718910,-9,-9,-3,-5,-7,-36,-38,11
1529312129719847,3,-1,-5,-3,-3,29,12,-27
1529312129719847,57,2,-4,5,9,0,-19,50
1529312129740829,-17,14,-1,-2,1,-43,1,-22
1529312129740829,-57,-26,0,-9,-12,-19,-40,-34
1529312129742766,-3,5,5,1,1,33,20,1
1529312129742766,16,15,6,12,15,39,56,68
1529312129754792,37,-14,0,0,-4,12,28,23
1529312129754792,-32,-7,-9,-6,-6,-33,-50,-13
1529312129770691,-19,18,6,2,-3,6,10,-41
1529312129770691,9,-21,-7,-5,-6,-26,-29,4
1529312129778701,36,20,5,-3,-4,7,-14,-7
1529312129778701,-2,0,-4,0,4,22,13,12
1529312129779702,-21,-7,-7,6,3,1,-46,-16
1529312129779702,18,2,4,-4,-10,-14,100,-41
1529312129800648,-10,5,5,4,9,25,-7,60
1529312129800648,-14,7,0,-2,2,22,32,-24
1529312129802607,51,-8,-6,-6,-10,-15,4,83
1529312129802607,-70,-8,-6,-2,-1,-9,-20,-37
1529312129814593,-10,46,16,6,8,19,-34,-25
1529312129814593,21,-65,-20,-5,-2,9,28,5
1529312129829684,-7,-9,-3,-6,-14,-31,-23,-33
1529312129829684,-22,0,3,4,9,-3,-38,-10
1529312129838655,15,15,3,7,-3,11,46,-7
1529312129838655,1,17,1,17,1,3,-6,22
1529312129839653,-12,6,-3,-3,11,-13,18,22
1529312129839653,58,11,9,-9,8,7,-23,23
1529312129860645,-29,-38,-13,11,-18,-6,-10,-4
1529312129860645,23,56,21,3,-2,-3,-4,-20
1529312129868575,-65,-97,-34,10,30,-14,4,-38
1529312129868575,-19,31,-7,-38,-13,-6,-14,17
1529312129874817,37,-1,-16,-3,34,4,8,40
1529312129874817,-2,-10,9,17,23,17,2,-9
1529312129883536,-11,42,30,3,-25,-1,12,-7
1529312129883536,5,7,-14,23,19,2,-19,-30
1529312129897733,6,7,16,-11,7,9,15,25
1529312129897733,0,-6,-10,13,-16,-6,0,4
1529312129905768,21,23,8,-27,-20,-2,4,-3
1529312129905768,-39,-32,-4,10,-16,-19,-21,-16
1529312129921394,-2,5,8,25,-4,-5,3,-4
1529312129921394,16,2,-7,-42,9,10,11,-5
1529312129929036,-21,-8,-6,13,19,6,2,-8
1529312129929036,11,10,10,10,-9,-9,-2,9
1529312129943490,-11,-4,-16,-13,-11,-5,-16,-27
1529312129943490,7,-1,14,37,-12,-3,11,24
1529312129945461,-1,-6,-6,-8,-1,-1,0,-14
1529312129945461,1,0,0,8,15,12,5,29
1529312129957428,17,1,5,3,6,1,7,10
1529312129957428,-16,-20,-10,-26,-4,-1,-7,-18
1529312129966404,40,38,5,-14,-24,-9,1,10
1529312129966404,-18,-26,-4,13,-3,1,1,-23
1529312129980367,-51,-34,-8,-10,-2,-4,-10,-20
1529312129980367,73,53,7,8,9,3,8,16
1529312129987918,-5,-9,-2,-3,0,-5,-1,3
1529312129987918,6,2,-4,-10,-2,1,-3,-3
1529312130004204,-21,-26,-9,-24,-21,-8,-6,-3
1529312130004204,-9,-2,-5,-14,-4,-3,-6,-6
1529312130004937,-13,17,2,7,-1,-1,-2,-5
1529312130004937,8,-23,-4,-4,-8,-2,9,5
1529312130017167,3,3,-8,-8,9,-1,-3,-15
1529312130017167,-8,3,-1,9,6,5,-1,8
1529312130025925,11,9,-1,8,1,2,3,8
1529312130025925,-1,-2,-2,-22,-11,-4,-6,-5
1529312130040500,-4,4,2,10,-2,0,6,-15
1529312130040500,-13,6,-3,-16,-5,-8,-13,-7
1529312130047467,0,-3,-2,-4,0,3,0,-8
1529312130047467,-2,17,-1,0,3,3,23,54
1529312130063136,22,-22,2,6,-3,-13,-33,-13
1529312130063136,-28,-12,-1,-4,-9,-10,1,-14
1529312130065137,75,8,1,-2,-6,-14,-3,25
1529312130065137,-63,-26,-5,-1,0,28,21,-52
1529312130086267,29,17,-5,2,-4,5,-4,44
1529312130086267,-4,-12,3,-5,1,-32,-40,-40
1529312130088018,-34,-49,-5,0,0,20,17,-4
1529312130088018,15,11,0,-1,4,10,28,40
1529312130100573,-12,2,-1,-5,-4,-9,-12,-17
1529312130100573,-4,-17,-9,-7,-4,9,36,6
1529312130107811,-7,19,4,2,-2,-16,-33,-27
1529312130107811,-30,-6,3,0,-3,-3,-5,6
1529312130124129,71,6,3,-4,-3,-16,11,45
1529312130124129,12,10,-10,-4,-5,46,63,-21
1529312130125127,-20,-7,2,10,11,8,-28,-19
1529312130125127,-2,-13,4,0,-1,2,-36,-48
1529312130146334,15,-23,0,4,0,-24,-39,52
1529312130146334,-20,19,8,-1,-4,10,31,-9
1529312130148318,15,11,-7,-5,-3,12,47,65
1529312130148318,-12,-8,0,2,0,-24,-62,-27
1529312130160221,-19,24,-2,-6,-11,-11,-17,-38
1529312130160221,13,1,2,9,9,15,-1,25
1529312130168313,-4,8,-5,-13,-12,-8,0,-61
1529312130168313,-44,-38,0,5,-1,-13,-3,45
1529312130183273,-4,7,-7,-9,-8,0,23,8
1529312130183273,16,32,4,1,1,5,26,33
1529312130185268,9,5,7,1,-1,-16,-2,14
1529312130185268,4,8,-13,-5,-5,-10,-39,-34
1529312130206212,-24,-47,-13,-5,3,12,-3,-7
1529312130206212,-40,-1,6,1,-7,-1,-1,-74
1529312130207396,61,21,16,-9,-16,-6,19,107
1529312130207396,-14,10,-6,5,8,-5,0,4
1529312130219462,-10,8,4,-22,-1,13,2,-51
1529312130219462,-9,6,5,20,-5,-14,-5,61
1529312130228451,13,-3,0,6,-6,1,-24,-45
1529312130228451,16,1,3,-3,-5,-8,8,-16
1529312130243650,-1,20,-11,20,31,16,1,-57
1529312130243650,-14,-26,-13,-32,-21,-17,-6,62
1529312130245648,-4,36,9,13,21,15,0,-23
1529312130245648,12,-38,-16,1,-8,-13,15,17
1529312130266381,-19,24,21,-1,-7,25,24,4
1529312130266381,-29,-38,-27,-2,-12,-13,-42,-41
1529312130267510,-43,-3,-3,-31,-24,-14,-15,-46
1529312130267510,81,20,2,17,-3,6,38,61
1529312130279315,-10,-11,-11,-6,14,-6,0,1
1529312130279315,6,-7,1,-4,8,5,-11,-5
1529312130288379,-23,-9,-4,-6,-11,1,3,-3
1529312130288379,-1,9,-1,-15,1,0,-15,-34
1529312130303250,-19,-6,10,17,-19,-5,15,-4
1529312130303250,17,6,3,8,13,3,-12,25
1529312130305245,-4,-21,-17,-16,13,-4,1,8
1529312130305245,-3,-11,7,-6,-20,-3,-3,-23
1529312130326430,3,-2,-3,7,5,4,11,32
1529312130326430,-9,-3,4,-3,-10,-11,-18,-25
1529312130327419,-6,-13,-2,14,-3,-4,-3,-1
1529312130327419,0,3,0,-1,9,6,7,-2
1529312130339440,-1,23,-9,-26,-10,1,2,7
1529312130339440,5,-41,-6,0,-2,-6,-13,-11
1529312130348701,0,-8,0,14,4,1,1,5
1529312130348701,0,15,5,7,5,8,3,5
1529312130363919,-6,-5,-1,-10,-6,-9,-6,4
1529312130363919,18,21,8,15,2,-3,-3,-15
1529312130364910,1,-14,-13,-24,4,0,5,9
1529312130364910,-2,7,1,-1,1,2,-2,-3
1529312130386121,-8,-2,1,3,-9,-6,1,1
1529312130386121,-1,-7,-2,-1,3,-2,-13,-7
1529312130387875,5,2,3,9,4,-3,-5,-14
1529312130387875,-2,4,1,3,-1,-8,-14,-18
1529312130400158,-5,-4,3,11,2,0,33,35
1529312130400158,10,3,-3,-13,5,16,16,7
1529312130408819,11,-3,-1,11,2,-1,-17,13
1529312130408819,-1,1,0,-13,-3,-4,-12,-19
1529312130424123,-2,-8,-5,3,-2,1,0,-4
1529312130424123,6,6,4,2,1,-6,-6,-2
1529312130424776,-18,-8,-10,-9,-6,-5,3,-7
1529312130424776,12,7,-1,-1,3,-3,-1,1
1529312130446521,0,-5,2,2,0,2,-1,-1
1529312130446521,-2,2,-1,-2,3,1,1,3
1529312130452562,-3,-3,-2,1,-1,2,-1,-5
1529312130452562,-3,2,3,9,1,2,6,7
1529312130468586,-4,-3,1,0,-3,-5,-5,1
1529312130468586,6,1,-5,-8,-3,-5,-6,-11
1529312130468586,-18,-6,5,10,2,2,7,0
1529312130468586,21,8,-2,-8,-2,-2,3,8
1529312130484471,-11,-3,-3,-3,-4,-6,-12,-10
1529312130484471,16,3,-1,1,3,4,1,1
1529312130485469,3,2,0,3,0,1,2,4
1529312130485469,-13,-1,-1,-3,-2,5,3,-1
1529312130505427,-1,-3,-2,-5,-3,-3,-5,-8
1529312130505427,-3,1,3,6,2,-3,-1,6
1529312130506413,-5,-5,0,0,1,0,1,1
1529312130506413,0,0,-1,-4,-4,-8,0,-3
1529312130527700,2,0,2,2,3,11,7,1
1529312130527700,-6,-2,-2,-1,0,4,-2,-3
1529312130528354,3,1,0,0,-1,-6,-2,1
1529312130528354,5,-4,-3,-3,-1,1,1,-1
1529312130544311,0,1,1,1,1,-4,-2,1
1529312130544311,-5,-3,-4,0,-3,-4,-5,-3
1529312130545309,2,-1,0,0,-2,0,0,-4
1529312130545309,-16,-3,0,0,0,-1,-2,-2
1529312130565477,4,1,-3,-4,-3,-6,-1,-3
1529312130565477,1,1,-2,-2,-3,-1,0,-2
1529312130566253,0,-2,0,0,-1,-1,0,2
1529312130566253,-2,0,-2,-1,0,0,2,-1
1529312130587797,2,-1,-2,-5,-2,-3,-4,-1
1529312130587797,-6,-1,-3,-2,-6,-7,1,-2
1529312130588529,0,-1,-2,-2,-7,1,1,2
1529312130588529,2,4,2,3,13,8,2,3
1529312130602754,-1,-1,4,2,6,2,-4,-2
1529312130602754,1,-3,2,-4,-5,-8,-3,-2
1529312130603490,-4,-7,-18,-5,0,6,-2,-3
1529312130603490,-4,1,10,-1,-9,-5,-3,-4
1529312130625560,8,0,2,1,-3,3,1,6
1529312130625560,-5,-7,-22,-1,3,-2,-3,-4
1529312130626139,-1,-1,4,-1,0,-2,2,-1
1529312130626139,-2,0,-10,-2,1,-2,-2,2
1529312130647891,0,-2,6,-1,-3,-9,-11,-1
1529312130647891,5,3,4,-2,-3,4,3,0
1529312130648549,-1,-2,-1,-3,-4,-10,-3,-3
1529312130648549,-8,1,0,-2,-9,3,0,0
1529312130663130,-3,1,-1,-1,4,2,2,-3
1529312130663130,2,2,4,4,7,2,-1,3
1529312130664281,0,1,6,2,7,1,-2,-2
1529312130664281,1,1,12,0,-5,-6,-4,-1
1529312130685828,1,-5,-31,-4,-8,-4,4,2
1529312130685828,-1,-1,-3,2,12,12,4,0
1529312130686376,0,-2,-10,-2,5,7,3,0
1529312130686376,4,-5,-9,-4,1,-4,0,2
1529312130707287,-5,-1,11,-2,-5,-2,-3,-1
1529312130707287,-1,5,7,-5,-10,-13,-12,-3
1529312130708299,0,-4,1,3,-2,-5,0,1
1529312130708299,-2,-2,2,2,2,1,-5,-2
1529312130722247,-4,-2,10,2,2,2,9,-2
1529312130722247,-1,-1,-4,-3,-5,-3,-1,-1
1529312130723244,0,0,1,-1,-6,-2,1,1
1529312130723244,-1,-2,-11,-7,-7,-10,-7,-2
1529312130745241,-1,-2,-6,1,0,-2,0,-2
1529312130745241,1,7,32,8,6,9,4,0
1529312130746183,5,3,-11,2,6,2,0,3
1529312130746183,-6,-5,-20,-6,-1,2,2,-5
1529312130768198,1,-4,-16,-6,-5,-4,-6,0
1529312130768198,-17,-4,25,4,-4,-5,-3,-11
1529312130768198,3,-3,4,-3,-4,-4,-3,6
1529312130768198,7,6,38,9,1,6,6,3
1529312130783084,-1,-4,-71,-10,1,0,-2,1
1529312130783084,8,8,17,1,-3,-3,-2,-6
1529312130783084,-15,-20,-32,-15,-4,-5,-5,-3
1529312130783084,0,2,23,-1,-2,-2,-4,0
1529312130805024,-5,-6,-34,1,1,-1,-2,-1
1529312130805024,-4,2,4,3,-1,-2,-1,3
1529312130806024,-8,-3,-28,-6,-4,-1,-2,-8
1529312130806024,-3,3,8,-1,2,1,1,0
1529312130828019,0,8,67,7,1,0,2,0
1529312130828019,8,-14,-63,-13,-2,-4,-2,-2
1529312130828978,-5,7,34,14,2,0,-1,-14
1529312130828978,3,-3,-6,6,4,1,1,12
1529312130842979,-18,4,25,6,2,1,-3,-11
1529312130842979,16,-3,-11,-4,-1,0,0,5
1529312130843976,-8,3,-2,-7,-3,-5,-3,0
1529312130843976,22,2,-33,2,-1,0,2,0
1529312130864921,34,-1,28,2,-1,0,-2,18
1529312130864921,-17,-6,-12,-3,-5,-3,-3,-8
1529312130865862,-29,1,28,6,2,1,-2,-13
1529312130865862,22,-3,-32,-14,-3,-4,-3,2
1529312130888809,12,3,-7,-3,2,3,2,14
1529312130888809,-4,0,8,2,1,-2,1,-5
1529312130888809,12,5,13,4,-4,-1,1,14
1529312130888809,0,2,11,2,1,-3,-2,-5
1529312130902765,9,-16,-7,-11,-4,-2,-1,-6
1529312130902765,-9,-7,-14,-8,-2,-1,1,13
1529312130903815,5,7,-7,-1,0,0,-2,-17
1529312130903815,-10,-8,-2,-5,-3,0,-3,-9
1529312130925703,-3,1,-4,1,-1,-2,-2,-3
1529312130925703,-11,2,6,3,-1,0,-2,-9
1529312130925703,13,1,-4,-3,0,0,3,12
1529312130925703,-28,-3,-1,0,-2,-2,-4,-3
1529312130948693,28,3,-2,0,-2,1,-2,-1
1529312130948693,5,2,5,2,-1,1,0,15
1529312130949674,-1,0,9,1,-1,0,0,5
1529312130949674,-3,-3,-7,-3,-2,-2,0,-11
1529312130962649,-22,-3,-3,-2,1,-2,-2,-9
1529312130962649,13,0,5,0,-2,-3,-4,-2
1529312130963646,-1,-3,-11,-4,2,-1,2,9
1529312130963646,-17,-4,-5,-2,0,-1,-1,-7
1529312130993522,-11,1,7,0,-2,1,-2,-4
1529312130993522,1,0,-3,-3,-1,-1,1,-2
1529312130994519,-4,6,16,-2,-2,-2,0,-5
1529312130994519,-1,-14,-14,-1,-3,-4,0,13
1529312131008493,-1,-2,-2,3,1,5,-1,-15
1529312131008493,-2,-4,-5,-4,0,-2,-1,0
1529312131009480,-5,-3,-3,0,-1,-1,-4,-5
1529312131009480,3,6,5,2,-1,-2,0,7
1529312131022445,3,-1,2,0,-1,-4,-3,1
1529312131022445,-3,-1,0,0,-1,-1,-1,-1
1529312131023441,6,-5,-17,-4,1,0,-2,-1
1529312131023441,7,3,13,1,0,2,1,-3
1529312131045635,-23,-3,0,0,-1,-3,-1,-3
