timestamp,emg1,emg2,emg3,emg4,emg5,emg6,emg7,emg8
1528444584730389,-1,-2,-3,0,4,1,4,-2
1528444584730389,-2,-2,0,1,-3,17,5,0
1528444584737370,-1,-3,-2,-3,2,-7,-10,-2
1528444584737370,-18,-32,-26,-27,-55,-27,-28,-10
1528444584744351,10,29,26,22,24,-4,31,6
1528444584744351,19,19,20,31,78,47,24,14
1528444584759311,-3,-5,-12,-1,0,5,4,-1
1528444584759311,1,4,-3,-10,4,-10,-14,-3
1528444584770282,-21,-41,-32,-28,-56,-11,-15,-13
1528444584770282,2,6,-35,1,1,-20,-10,1
1528444584782251,12,31,79,26,4,-8,1,0
1528444584782251,-3,-8,-18,-10,5,12,2,0
1528444584790228,-6,-10,-11,-18,-15,-5,-15,-4
1528444584790228,-10,-10,-22,-5,-11,8,7,-6
1528444584805189,4,4,-5,1,6,8,5,5
1528444584805189,6,9,30,15,11,3,6,2
1528444584812172,2,5,10,7,15,8,7,1
1528444584812172,-6,-6,5,-13,-24,-15,-35,-8
1528444584827129,-7,-13,-21,-9,-16,-17,-2,-6
1528444584827129,6,11,18,30,49,28,23,7
1528444584834111,4,5,-6,4,17,10,2,7
1528444584834111,-6,-9,5,-12,-24,-24,-14,-7
1528444584850069,-1,-4,-3,2,9,2,-3,-3
1528444584850069,0,3,7,-1,1,10,14,2
1528444584866026,-3,-3,0,-9,-15,7,-5,-1
1528444584866026,-1,-2,-7,-2,-15,-50,-17,-3
1528444584873008,1,1,3,15,36,39,9,0
1528444584873008,3,7,5,-2,-9,-7,12,4
1528444584886971,2,-2,-5,2,16,18,7,2
1528444584886971,-2,-2,-2,-7,-2,8,14,1
1528444584894949,2,2,-6,-8,-29,-35,-7,-1
1528444584894949,-1,-4,12,4,13,13,3,-3
1528444584909909,5,8,1,5,3,22,21,7
1528444584909909,-2,-4,-2,-3,10,7,-1,2
1528444584931849,-2,-3,-4,-9,-17,-25,-16,-4
1528444584931849,0,-2,-1,-3,-7,-22,0,-2
1528444584939828,2,0,-1,3,17,45,21,3
1528444584939828,-2,-5,-4,-6,-18,-18,-2,1
1528444584954788,-1,-4,2,-1,10,10,9,1
1528444584954788,-3,1,2,-18,-36,-5,-8,-5
1528444584961771,-4,-5,0,3,-3,-44,-38,-6
1528444584961771,1,1,5,9,7,-3,13,0
1528444584979722,-1,-1,3,-13,-23,-14,-12,-5
1528444584979722,-4,-4,-5,-12,-34,-50,-27,-5
1528444584991737,2,1,4,3,0,-3,-9,0
1528444584991737,-3,-5,-6,-9,-22,-24,2,-1
1528444585006650,0,1,0,7,12,-7,-8,-1
1528444585006650,-2,-6,-3,1,13,36,4,0
1528444585014683,-2,-3,6,1,2,7,17,1
1528444585014683,1,-2,-8,-37,-18,-20,-14,-2
1528444585044549,-4,-3,9,17,-12,-27,-9,-4
1528444585044549,0,-1,-9,-20,-1,-7,-6,-2
1528444585052620,0,-1,10,32,-1,-8,-8,-5
1528444585052620,-4,-1,-1,-3,4,-11,-9,1
1528444585059531,6,-2,-11,-31,-8,26,16,6
1528444585059531,0,2,0,-1,3,7,0,-1
1528444585067502,0,1,-2,-10,5,0,1,-3
1528444585067502,1,-2,-2,1,-3,-3,3,5
1528444585074522,-3,-1,0,-4,-18,-19,-13,-1
1528444585074522,-4,-4,-2,-2,-8,-3,1,-6
1528444585089430,2,-2,-16,-45,-10,7,1,-4
1528444585089430,-3,-1,11,52,27,3,-18,-12
1528444585097460,3,4,7,13,6,-1,9,7
1528444585097460,-15,-4,-1,-16,-12,-7,-3,-6
1528444585112368,3,0,-3,10,-10,-10,-10,-8
1528444585112368,4,0,0,-32,-18,-2,4,-5
1528444585119349,3,-1,-4,-5,-7,-6,8,8
1528444585119349,-3,-12,-2,0,-36,-21,11,12
1528444585127360,-4,4,2,32,72,35,21,9
1528444585127360,8,7,-1,2,-1,1,7,1
1528444585134308,-2,-3,-10,-4,15,1,-13,-14
1528444585134308,-2,-1,-12,-39,-45,-12,-18,-9
1528444585149321,-6,-10,9,-11,-58,-35,-10,-2
1528444585149321,3,8,0,11,28,40,6,3
1528444585157248,0,1,-18,-18,-15,-4,0,0
1528444585157248,2,3,36,76,35,5,-3,-2
1528444585172208,-2,-2,-7,-45,-29,-7,-1,3
1528444585172208,-1,1,13,21,-2,-12,4,0
1528444585179189,-5,-10,-15,-11,1,1,-9,-3
1528444585179189,8,7,-23,-83,-19,4,2,2
1528444585187206,1,1,-1,55,35,8,-12,-9
1528444585187206,-14,-17,25,39,-1,-17,-24,-17
1528444585194190,6,8,-12,-56,-5,7,30,28
1528444585194190,5,7,2,73,35,4,-28,-44
1528444585209109,-11,-20,-16,-91,-51,-20,-4,7
1528444585209109,24,14,17,72,29,6,15,39
1528444585217087,-34,-18,29,1,-19,-31,-92,-90
1528444585217087,13,9,-23,-35,3,15,41,76
1528444585232050,1,-1,-12,-11,1,3,2,-35
1528444585232050,-14,-3,-3,-23,-9,16,58,29
1528444585239038,8,-4,2,35,9,5,18,9
1528444585239038,0,4,4,-5,-3,-9,-34,-19
1528444585247061,-15,-2,-1,23,10,-14,-34,-19
1528444585247061,2,-3,-16,-63,-75,-20,-13,-4
1528444585254988,28,19,24,95,106,90,31,22
1528444585254988,-6,-6,-8,-11,-9,-7,-8,-16
1528444585269946,-1,5,16,35,2,2,14,21
1528444585269946,-7,-6,-18,-53,-26,-17,-1,-18
1528444585276968,-4,-5,-13,-42,-17,-9,8,4
1528444585276968,4,0,-12,73,42,11,4,5
1528444585291937,-10,4,30,27,-5,-6,-23,-12
1528444585291937,-1,-13,-36,-68,-12,2,-2,0
1528444585299906,14,-9,13,12,-22,-14,3,-13
1528444585299906,16,8,-10,-73,-13,-7,-6,-2
1528444585306897,-29,-3,-1,17,19,16,46,19
1528444585306897,-9,-14,-11,-4,-10,-12,-46,-41
1528444585314828,27,12,7,60,35,35,122,111
1528444585314828,-40,-11,7,-78,-36,-15,-28,-13
1528444585329786,7,6,-13,-13,-7,0,5,-64
1528444585329786,-12,1,-7,14,15,-5,-45,-37
1528444585336803,-31,-14,-1,-31,-26,-13,-14,-11
1528444585336803,50,2,1,24,11,15,9,6
1528444585351728,33,12,44,43,46,7,-10,19
1528444585351728,-10,-2,-12,-14,-21,-9,2,14
1528444585366688,-5,5,15,37,20,-17,-37,-45
1528444585366688,-36,-13,-5,-52,-64,-34,-2,13
1528444585374667,17,-3,-39,17,62,55,29,23
1528444585374667,15,14,28,12,9,-8,-3,1
1528444585381650,-6,1,-11,-29,-22,-12,-15,3
1528444585381650,-9,-5,10,26,15,-1,7,-12
1528444585396610,-1,0,-1,-22,-32,-14,-3,19
1528444585396610,2,-3,-5,-7,0,-2,-10,-2
1528444585404726,-8,4,-9,-13,-10,-3,-5,-4
1528444585404726,-2,-4,10,35,28,2,-1,-4
1528444585434651,-2,6,4,30,6,-5,-16,10
1528444585434651,-6,-3,-12,-79,-36,-5,11,2
1528444585449671,-18,5,15,81,2,-5,1,-7
1528444585449671,3,5,-6,-19,-7,-10,-13,-5
1528444585456700,2,-8,-3,-4,15,9,-7,0
1528444585456700,-13,24,-8,2,1,-1,7,7
1528444585471659,5,12,20,16,-27,-21,-28,-22
1528444585471659,-10,-7,-8,-4,5,-3,12,14
1528444585487616,4,-5,-4,-6,14,19,15,6
1528444585487616,24,8,10,11,-3,-9,2,16
1528444585502536,-22,4,-10,-22,1,4,10,-4
1528444585502536,4,-8,11,29,10,0,0,3
1528444585509512,7,9,-11,-31,-14,-6,-1,2
1528444585509512,-12,-19,20,64,8,3,-6,-9
1528444585524471,0,-1,-15,-37,-20,-12,-9,-4
1528444585524471,6,4,-3,19,0,-2,10,3
1528444585532451,1,0,-5,-26,2,9,13,9
1528444585532451,-9,2,-1,16,17,5,3,4
1528444585547411,19,1,3,-7,-5,-7,1,13
1528444585547411,0,0,-5,-8,-1,-3,0,-3
1528444585562378,-17,-17,-5,17,14,6,-8,-7
1528444585562378,-7,5,15,23,11,0,5,0
1528444585569491,-2,6,-5,1,-8,2,10,-2
1528444585569491,2,-12,-7,-16,5,-2,-12,-13
1528444585584629,4,15,-4,-2,3,10,15,19
1528444585584629,4,-2,18,14,6,-9,-3,-18
1528444585592619,-5,-23,-27,-31,-16,-1,19,21
1528444585592619,-13,7,18,5,2,13,2,-10
1528444585607574,-1,7,-5,-10,-8,-10,-12,-2
1528444585607574,-15,-8,6,7,7,2,-2,-9
1528444585622549,14,1,-5,-20,-13,-5,-10,-3
1528444585622549,3,9,-10,-20,-1,8,0,5
1528444585629370,0,-3,11,28,3,-7,-1,-1
1528444585629370,3,-3,-18,-20,1,6,2,9
1528444585651862,-6,-8,10,10,-1,-9,-21,-12
1528444585651862,-10,1,-6,-10,-7,-2,18,-9
1528444585659837,-1,-5,0,-7,1,4,9,8
1528444585659837,8,3,1,7,-5,0,14,6
1528444585674798,-1,3,8,15,4,-1,3,-1
1528444585674798,1,0,-7,-8,-7,-10,-4,-7
1528444585690059,-2,-1,4,-2,1,2,9,1
1528444585690059,4,5,3,20,9,-1,-8,1
1528444585705077,13,2,-1,-3,1,-10,-5,-1
1528444585705077,-5,6,-11,-13,-6,8,4,8
1528444585711967,2,0,7,6,1,2,2,-1
1528444585711967,-7,-1,8,16,6,-1,-4,-5
1528444585727074,8,-4,-2,1,-2,-3,-1,6
1528444585727074,-12,3,-6,-12,-10,-4,-1,-9
1528444585742027,12,2,-1,-1,12,12,7,9
1528444585742027,-2,1,6,-3,-16,-8,-11,-1
1528444585750006,-4,0,0,21,25,8,-8,-8
1528444585750006,10,-3,0,5,4,-1,5,3
1528444585764984,-8,-1,0,-3,-9,-5,-2,-6
1528444585764984,-1,-6,-2,5,-1,-4,-10,-2
1528444585771968,-1,-2,-13,-31,-28,-11,0,-4
1528444585771968,-2,-2,14,-12,-13,-23,-7,-4
1528444585786926,2,-1,-10,-14,-5,-1,10,2
1528444585786926,-2,-3,5,1,-8,-5,-9,-5
1528444585802113,-11,-5,-3,-34,-35,-28,-10,-7
1528444585802113,-1,-2,-7,13,1,-4,0,0
1528444585809546,0,0,4,1,8,11,1,-1
1528444585809546,8,3,-6,1,14,17,5,5
1528444585824935,8,13,12,6,21,12,9,7
1528444585824935,-7,-10,-16,5,9,-16,-5,-4
1528444585831921,-1,0,7,5,22,27,11,1
1528444585831921,-4,-6,11,-10,-30,-15,-4,-1
1528444585847074,4,-3,21,-5,-16,-9,-7,0
1528444585847074,-5,-5,-23,11,25,10,2,-1
1528444585861875,-13,-7,2,-15,-31,-22,-7,-8
1528444585861875,-7,7,-7,12,9,7,0,-5
1528444585869277,7,-1,26,16,6,-4,3,4
1528444585869277,4,-1,-19,-26,-19,-6,0,2
1528444585885128,-3,0,2,1,-4,-5,-3,0
1528444585885128,-1,-2,-10,-6,14,16,4,2
1528444585892235,-4,3,6,6,-5,-10,-9,-4
1528444585892235,2,1,-14,7,4,0,0,0
1528444585907194,5,2,-8,1,17,5,0,16
1528444585907194,8,-7,6,24,27,12,4,-2
1528444585922136,4,3,-4,4,8,9,-4,-4
1528444585922136,-5,3,5,-12,-16,-19,-19,-10
1528444585929975,-29,-16,-15,-14,-6,2,7,-19
1528444585929975,-2,-2,-1,-5,-21,-7,6,8
1528444585945011,24,2,-7,-5,-3,-5,-17,9
1528444585945011,7,10,16,10,6,8,-1,0
1528444585951916,4,29,-2,-3,-8,-12,-11,-7
1528444585951916,-12,-38,4,-3,-1,4,5,-1
1528444585974855,15,9,1,-6,-10,-5,-4,4
1528444585974855,-2,6,1,4,4,3,0,-1
1528444585989814,-2,-9,-1,3,1,-2,0,-2
1528444585989814,-18,-25,16,2,0,6,0,-5
1528444585996795,-21,-28,-15,-5,-18,-32,-13,-14
1528444585996795,35,59,2,4,25,36,14,16
1528444586011757,18,10,7,0,1,-3,-2,10
1528444586011757,-2,2,0,6,15,2,3,1
1528444586026715,8,6,39,2,1,2,-3,7
1528444586026715,4,15,-15,8,10,5,-4,-3
1528444586041675,-28,-25,-12,-23,-37,-17,-1,-13
1528444586041675,2,-30,8,-9,-12,-13,-1,10
1528444586049654,-2,-6,-16,8,21,22,3,-2
1528444586049654,0,5,-21,2,2,-2,-1,2
1528444586064614,-6,5,32,-12,-23,-11,0,-5
1528444586064614,-15,-9,-5,-5,-12,-11,-6,-9
1528444586071595,0,-14,-17,-6,-2,13,2,-2
1528444586071595,20,38,15,24,34,20,9,11
1528444586086555,2,5,9,-8,-18,-15,-1,2
1528444586086555,-15,-14,-3,-5,-18,-20,-18,-15
1528444586102512,2,-5,-7,1,12,5,5,3
1528444586102512,3,17,7,-4,-5,16,15,7
1528444586109494,2,-14,0,1,3,5,5,2
1528444586109494,-3,-8,-7,13,23,0,-2,-3
1528444586124454,1,10,0,-19,-28,-18,-10,-1
1528444586124454,-4,5,17,14,5,8,5,-1
1528444586132433,3,0,-17,-30,-40,-11,-12,-4
1528444586132433,10,0,14,57,71,29,23,11
1528444586147393,8,24,67,17,31,14,-1,2
1528444586147393,-2,-11,-20,-32,-36,5,31,8
1528444586162360,-3,1,12,-13,-46,-37,-17,-5
1528444586162360,3,1,-11,21,66,41,17,3
1528444586171329,-3,19,-15,-10,-33,-51,-31,-7
1528444586171329,-5,-4,-6,-13,-8,-19,-20,-7
1528444586184294,0,1,4,5,15,61,27,2
1528444586184294,-4,-18,-12,-19,-18,-13,-11,-3
1528444586192273,8,12,2,18,21,43,40,24
1528444586192273,2,11,14,3,10,8,10,-8
1528444586207233,0,1,-9,1,-4,-11,-12,-2
1528444586207233,-6,-16,0,-8,-17,-12,-17,-8
1528444586222192,2,10,-3,1,4,0,5,2
1528444586222192,-1,-8,2,-1,-6,0,4,0
1528444586229183,-2,-10,-3,2,4,0,0,-3
1528444586229183,-2,5,-4,-9,-11,-2,-4,-1
1528444586244134,0,-12,-3,5,15,9,4,0
1528444586244134,-3,-5,-1,-3,-5,-2,-5,-1
1528444586252113,-7,-3,-7,7,7,3,3,-4
1528444586252113,-2,-5,-1,-2,-4,-3,-4,-4
1528444586267075,1,-1,-3,1,4,3,19,4
1528444586267075,-1,-1,4,2,2,3,1,2
1528444586282237,-1,-3,-4,-2,3,1,-7,-1
1528444586282237,-2,-2,-1,-3,-6,0,7,-2
1528444586290204,0,-5,-4,0,3,-2,-13,-5
1528444586290204,-1,3,2,-3,-5,-3,-1,4
1528444586305208,0,0,-4,-4,-1,-3,0,-4
1528444586305208,-1,4,13,-2,-6,-4,3,0
1528444586312130,-1,-3,-6,2,2,-1,-6,-2
1528444586312130,-1,-6,0,5,3,3,-1,1
1528444586328420,0,-3,0,1,0,-2,1,0
1528444586328420,1,2,-3,-5,-5,-3,-4,0
1528444586342541,1,0,-2,-1,1,0,-3,0
1528444586342541,-4,-7,0,2,0,2,2,-1
1528444586349393,1,2,1,0,-3,-3,-1,0
1528444586349393,1,3,-3,-1,-1,-1,-2,-1
1528444586364325,0,-1,2,0,0,-1,0,2
1528444586364325,-3,-1,-1,-1,-1,0,-1,-3
1528444586372305,-2,0,0,-4,-7,-4,-4,0
1528444586372305,2,-3,-3,4,12,2,1,0
1528444586387662,-2,0,-3,-1,1,-1,0,-1
1528444586387662,-2,1,-1,-7,-9,-7,-5,-2
1528444586401596,-4,-5,-3,-1,-3,-4,-2,0
1528444586401596,0,-2,-4,-1,3,6,12,1
1528444586409897,-4,-6,-2,0,-1,0,-1,-3
1528444586409897,5,8,3,0,0,0,-2,4
1528444586424866,4,2,-1,-3,0,-2,-2,1
1528444586424866,0,1,0,-1,-6,-6,-6,-3
1528444586431689,-3,-5,-3,1,1,1,-1,-2
1528444586431689,-5,-3,-3,-3,-3,0,4,0
1528444586447664,4,1,0,0,1,1,7,4
1528444586447664,-11,2,-1,-2,1,-1,-4,-3
1528444586462630,1,-4,-1,0,1,1,3,3
1528444586462630,-1,-1,0,1,-1,-4,-5,-4
1528444586469591,-1,1,0,-1,-2,-2,-3,-2
1528444586469591,0,4,0,-3,-4,-1,-1,-2
1528444586484548,-1,8,-2,-1,0,1,1,0
1528444586484548,-3,-7,-1,1,1,0,-3,1
1528444586492594,3,0,0,0,-1,-1,-1,0
1528444586492594,0,-7,-5,-1,-1,-3,-2,-1
1528444586507489,-1,0,1,1,2,2,-1,-3
1528444586507489,2,0,1,3,3,2,-2,0
1528444586522619,-1,-7,0,1,0,-2,-1,-3
1528444586522619,-3,-1,-4,-4,-1,-4,-6,-3
1528444586529758,2,5,-1,-2,-2,-1,-3,-7
1528444586529758,-2,8,0,-1,-1,-4,-10,-1
1528444586544889,-1,-11,2,1,-2,0,-6,-2
1528444586544889,9,14,1,4,3,6,35,20
1528444586551875,-5,-6,-5,-4,-1,-3,-6,-2
1528444586551875,1,1,0,1,-1,0,-1,-4
1528444586566827,2,-1,1,1,-1,1,10,11
1528444586566827,0,2,1,-2,-1,0,0,-2
1528444586581948,-1,-5,0,3,0,1,-2,4
1528444586581948,1,-4,-2,1,-1,-1,-1,0
1528444586589805,0,5,-1,1,-1,-1,-2,-4
1528444586589805,-3,-4,-2,-1,-3,-4,-3,1
1528444586604885,-2,-1,-1,0,1,1,-2,-3
1528444586604885,2,5,-3,-2,-3,-1,0,0
1528444586611760,-3,-1,0,-2,0,-3,-11,-4
1528444586611760,3,-3,3,-1,1,2,10,6
1528444586627023,-2,-5,-2,-3,0,-1,0,4
1528444586627023,0,2,2,0,-1,-1,0,-3
1528444586642149,1,0,-2,-2,-1,-1,-3,-4
1528444586642149,-1,-1,-1,-2,-2,-1,-5,0
1528444586649969,1,-1,0,1,1,-1,0,-1
1528444586649969,-2,-2,-3,-4,-3,-2,-2,-2
1528444586665094,-2,-1,1,-2,-1,0,0,-1
1528444586665094,0,0,0,1,-1,-1,0,2
1528444586672065,1,8,1,-2,-1,-1,1,1
1528444586672065,0,-8,-3,-1,-1,-2,-2,-1
1528444586687234,-3,-3,0,-1,1,0,3,1
1528444586687234,1,0,-3,1,-2,-1,-2,0
1528444586702419,2,1,-2,-1,0,0,-2,-2
1528444586702419,-2,-4,-2,0,-2,-1,-4,-1
1528444586709918,1,4,2,1,1,1,0,-1
1528444586709918,2,1,-1,1,-1,1,1,2
1528444586725122,0,-4,-1,0,-1,-1,4,3
1528444586725122,0,2,1,2,0,2,0,-2
1528444586732195,-3,1,-4,-2,-3,-4,-7,-2
1528444586732195,1,-9,0,-1,0,-1,-5,0
1528444586755116,-2,-1,-1,1,-2,0,2,-2
1528444586755116,-1,-4,2,-1,0,-2,-4,-2
1528444586769935,-2,-2,-1,0,1,-1,-3,-4
1528444586769935,0,-1,1,0,-1,1,1,1
1528444586776971,-1,-5,-2,-1,1,0,-2,-1
1528444586776971,0,4,-2,-2,-2,0,6,4
1528444586791931,-2,-1,0,-1,-1,-1,0,0
1528444586791931,0,2,1,-1,0,-3,-3,-2
1528444586800019,-1,-3,-2,0,0,1,0,-2
1528444586800019,-1,1,0,0,-1,-1,-2,-2
1528444586806836,2,3,0,-1,-2,0,1,1
1528444586806836,0,-5,-1,-1,1,0,-2,-1
1528444586821955,-2,-2,-2,0,1,-1,1,0
1528444586821955,-2,3,-4,-3,-1,-2,-2,-2
1528444586830126,1,-3,2,0,2,-1,0,-3
1528444586830126,-3,3,-1,-2,-3,-3,0,0
1528444586845020,-3,5,2,1,0,1,-2,-2
1528444586845020,1,-10,-1,-2,0,0,-1,1
1528444586851931,-1,1,-2,1,-2,1,3,0
1528444586851931,-1,-1,-2,2,-1,0,-1,-1
1528444586867053,0,1,1,-2,-1,-2,-4,0
1528444586867053,-2,1,-1,-2,-1,-2,0,-5
1528444586875031,-1,-4,-2,0,0,-3,-6,1
1528444586875031,0,4,1,0,-1,0,6,-1
1528444586889988,1,-12,-4,-1,0,-1,-4,-3
1528444586889988,-1,4,-2,-1,-2,-3,-4,-2
1528444586904948,0,5,0,-1,-1,-1,-3,-3
1528444586904948,-1,-3,-3,0,-1,-1,-3,1
1528444586911771,-2,4,2,-2,-2,-1,0,-1
1528444586911771,-2,-3,-3,2,1,0,-2,1
1528444586927096,0,-1,0,0,0,0,-3,-3
1528444586927096,1,8,3,0,0,-1,-2,2
1528444586934912,0,-12,-3,-2,-1,-1,0,1
1528444586934912,-1,1,-1,-1,0,-2,0,0
1528444586956853,0,2,2,-1,-2,-1,1,0
1528444586956853,0,0,0,-3,-1,0,-3,-3
