timestamp,emg1,emg2,emg3,emg4,emg5,emg6,emg7,emg8
1529289491946830,5,31,30,18,12,7,7,2
1529289491946830,12,15,20,9,6,4,1,6
1529289491947828,-7,2,2,2,1,-2,-2,-3
1529289491947828,6,-13,-16,-3,3,5,5,2
1529289491948825,-1,-8,-12,-12,-9,-5,-9,-3
1529289491948825,-5,-15,-12,-5,-7,-5,-5,-4
1529289491951817,-5,-5,0,-3,-1,-1,-1,0
1529289491951817,4,19,9,2,1,-4,2,2
1529289491959797,-3,-2,-3,-2,1,-1,5,-2
1529289491959797,-8,-2,-2,-5,-2,-4,0,-5
1529289491969767,7,-8,1,0,2,-2,0,1
1529289491969767,0,-2,-2,4,1,-1,-1,0
1529289491972762,5,-3,5,1,0,2,5,2
1529289491972762,-10,-5,3,2,0,1,0,-6
1529289491989715,11,6,1,2,0,1,3,-3
1529289491989715,0,-1,-6,-5,-1,3,0,7
1529289491997694,-8,-26,-21,-11,-5,-6,-7,-7
1529289491997694,-2,4,-5,1,5,2,-6,-6
1529289492005670,-11,12,16,2,-11,-1,-2,-1
1529289492005670,8,25,28,20,20,12,3,5
1529289492017639,-2,-7,-15,-15,-16,-8,-6,-1
1529289492017639,1,-12,-14,-1,10,0,0,4
1529289492065514,0,-4,-3,1,5,-1,0,2
1529289492065514,1,9,9,6,-2,-4,-2,-1
1529289492066509,6,10,0,-5,1,0,0,1
1529289492066509,-3,3,-9,-4,3,-8,-4,0
1529289492067506,2,5,5,-2,-3,-11,1,-2
1529289492067506,-6,-16,-5,-4,-2,-20,-4,-4
1529289492078476,0,-10,4,5,-1,-26,-4,-3
1529289492078476,-1,-2,2,-2,-11,-32,-3,-1
1529289492079474,-5,3,0,1,-1,-36,-2,0
1529289492079474,3,4,-3,-1,-10,-24,4,6
1529289492086454,4,1,1,4,-9,-25,0,-2
1529289492086454,0,-3,-3,-2,-11,-24,-1,-1
1529289492092440,-6,3,2,7,7,-19,-1,-2
1529289492092440,0,-1,-2,-14,-15,-44,-6,-3
1529289492109395,1,-1,-6,-4,9,1,0,3
1529289492109395,-3,-9,-8,-2,-6,-5,-9,-7
1529289492115380,6,-3,0,-15,-9,81,-3,5
1529289492115380,5,10,4,9,-4,100,2,1
1529289492124354,-6,4,2,9,10,115,-1,1
1529289492124354,-7,-10,-11,-27,-31,113,-4,-3
1529289492137355,-1,-4,-3,2,0,-54,-6,-4
1529289492137355,-5,-9,-2,2,11,94,4,1
1529289492147293,-2,3,6,2,14,0,-1,-3
1529289492147293,14,18,17,7,22,-26,1,7
1529289492152314,-5,-6,-6,1,-8,-42,-5,-3
1529289492152314,-3,-4,-1,4,11,-64,-3,-5
1529289492169234,-6,-8,-6,-4,1,-32,3,-1
1529289492169234,2,2,1,5,6,-20,-1,-1
1529289492175254,-2,-4,-4,-4,6,-6,2,2
1529289492175254,1,3,3,-1,7,-34,-1,-2
1529289492184195,9,6,3,3,-2,-12,-1,4
1529289492184195,-7,-10,3,2,11,5,1,-2
1529289492198202,-3,-2,-2,-3,-9,1,0,0
1529289492198202,-6,-11,-12,-14,-3,5,-2,0
1529289492207132,-9,-3,-3,-4,-1,-26,-6,-6
1529289492207132,14,15,16,23,22,-12,3,5
1529289492213116,1,6,9,3,5,14,7,-1
1529289492213116,0,-3,-7,-12,-17,-32,-6,-6
1529289492229074,0,-1,-3,-17,-10,-5,7,4
1529289492229074,-1,-3,-4,10,-3,-9,1,3
1529289492235059,-2,-4,1,7,16,24,2,-2
1529289492235059,2,4,1,-3,-1,-11,-3,-1
1529289492244061,-4,-3,3,1,-4,0,-2,-3
1529289492244061,-6,-9,-15,-14,-4,3,1,0
1529289492258044,0,0,-2,-5,-7,2,-2,-2
1529289492258044,5,4,4,2,-2,0,2,1
1529289492266973,6,4,5,14,8,-3,-1,1
1529289492266973,-6,-4,2,-11,-12,-2,3,-2
1529289492273005,-2,-8,-3,5,2,1,-1,0
1529289492273005,0,-3,-4,-7,1,-3,-1,0
1529289492288938,3,9,2,-2,-4,-2,2,2
1529289492288938,-1,8,10,13,7,1,2,-1
1529289492294935,1,0,-3,-1,0,-4,-5,0
1529289492294935,0,1,-1,4,2,-3,2,3
1529289492311855,-5,-7,-6,0,8,-6,0,-1
1529289492311855,3,4,-2,-3,-14,3,0,-1
1529289492317836,-8,-7,0,0,-5,-2,-3,-5
1529289492317836,0,2,-4,-1,2,2,0,-2
1529289492334792,-4,-9,-10,-14,-15,-14,-5,-5
1529289492334792,2,1,8,4,12,-8,2,0
1529289492335790,4,6,4,9,5,4,4,5
1529289492335790,0,2,5,-2,-3,2,2,2
1529289492348788,-9,-5,-2,4,1,-1,0,-2
1529289492348788,-2,-8,-7,-3,-6,-30,-10,-6
1529289492355735,4,6,3,-8,-11,-3,-1,-1
1529289492355735,-1,4,-1,-5,5,2,4,0
1529289492370696,-2,-6,0,16,9,-6,-1,-2
1529289492370696,2,1,2,-9,-8,-5,1,1
1529289492377724,-1,-5,-9,-8,-7,-7,-6,-4
1529289492377724,1,4,7,6,3,-4,1,0
1529289492386653,2,3,3,-8,-6,-8,0,1
1529289492386653,-3,-1,-3,1,0,-15,0,-2
1529289492392636,-1,0,1,10,21,9,1,-1
1529289492392636,-1,-5,-10,-6,-17,-4,-5,-3
1529289492409591,-4,-3,0,3,1,9,0,-1
1529289492409591,0,-1,-3,-5,2,24,1,3
1529289492415577,4,8,4,-5,7,25,3,2
1529289492415577,1,-4,8,31,30,5,0,0
1529289492430537,-9,-13,-16,-2,-25,8,-10,-9
1529289492430537,3,-4,-18,-47,-14,-20,-1,-3
1529289492437519,-10,-7,-3,-9,-11,-7,-4,-4
1529289492437519,2,5,8,4,11,-12,-3,5
1529289492446494,2,3,0,-1,1,6,0,2
1529289492446494,0,0,3,16,10,9,4,0
1529289492452511,6,4,1,5,5,11,1,1
1529289492452511,-2,-2,-3,-6,-7,7,4,2
1529289492469432,1,3,4,3,0,-4,-1,-1
1529289492469432,-4,-3,-1,3,-7,14,-2,-2
1529289492475451,4,0,-2,-7,-10,-10,2,0
1529289492475451,-5,0,4,8,3,6,2,-3
1529289492490375,0,4,-5,-13,-8,7,0,-3
1529289492490375,6,1,7,12,6,-4,2,3
1529289492497356,-5,-2,-2,1,-4,-1,0,-3
1529289492497356,4,-2,-6,-13,-10,3,0,0
1529289492506367,3,0,4,14,18,-6,0,3
1529289492506367,-1,4,7,-6,-4,8,0,0
1529289492512354,6,3,1,12,11,-1,4,4
1529289492512354,-9,-10,-3,12,19,-3,-3,-2
1529289492529272,3,4,-1,-11,-25,1,3,3
1529289492529272,3,15,14,19,11,5,-3,0
1529289492535256,2,-1,-2,-20,-13,-14,-4,-2
1529289492535256,-1,4,3,0,-2,8,3,1
1529289492550215,-1,-7,-7,-2,7,1,-2,0
1529289492550215,-7,-8,-3,9,5,15,-1,-3
1529289492557197,-2,-3,-2,-7,-11,24,8,0
1529289492557197,2,-2,-4,6,15,-8,-3,-2
1529289492566208,-2,-3,0,-11,-24,26,6,-4
1529289492566208,-4,-4,-1,2,11,-6,-6,-1
1529289492572192,0,3,4,3,3,11,2,2
1529289492572192,4,0,-5,-4,-6,-1,2,0
1529289492589112,0,-1,3,-1,4,-17,-2,0
1529289492589112,-3,-5,-11,-13,6,16,6,-3
1529289492595096,0,3,4,9,0,0,-1,-1
1529289492595096,1,0,1,3,-7,-15,-7,-4
1529289492610055,5,7,6,0,-2,-9,-3,3
1529289492610055,-3,-1,-1,5,7,2,0,0
1529289492618034,-3,-4,-12,-19,-21,-33,-9,-3
1529289492618034,0,5,10,4,0,0,3,2
1529289492627010,-2,0,0,7,14,-9,-4,0
1529289492627010,-3,0,-9,-28,-26,-17,-1,-1
1529289492632993,-1,-2,-3,6,9,-7,-6,-4
1529289492632993,-1,-1,0,-3,-14,-15,-8,-4
1529289492648951,2,0,1,4,3,0,3,-1
1529289492648951,2,-1,-1,5,-3,-35,-12,-3
1529289492654935,-1,0,4,11,10,-6,-3,0
1529289492654935,-2,-3,-5,-13,-11,6,5,-1
1529289492669931,-5,-8,-8,-4,-7,3,-4,-8
1529289492669931,-1,-1,0,3,-5,4,7,1
1529289492677909,-3,-4,-3,-3,4,2,2,0
1529289492677909,-2,-2,-1,-1,1,-16,-9,-2
1529289492686851,-2,-5,-6,-7,-6,3,5,-1
1529289492686851,-3,-3,-3,-2,-2,-6,-4,-1
1529289492699860,3,0,2,4,-2,-7,2,2
1529289492699860,-2,-2,0,0,-2,16,5,0
1529289492708792,1,3,2,-9,2,-19,-6,0
1529289492708792,-5,-7,-13,-13,-24,-31,-7,-6
1529289492714819,1,4,14,27,21,11,1,-1
1529289492714819,-1,1,-8,-6,9,4,1,1
1529289492730733,3,5,-1,-15,-18,-26,-3,0
1529289492730733,1,-2,0,8,15,3,4,-1
1529289492737759,1,4,9,-2,-8,-5,1,0
1529289492737759,0,3,4,5,-4,-22,3,0
1529289492746691,-5,-6,-4,-5,0,4,-2,-4
1529289492746691,3,5,3,1,3,0,3,2
1529289492760689,-5,-5,-8,-13,-14,-13,-4,-3
1529289492760689,-2,-4,-1,3,5,4,-4,1
1529289492769630,-3,-1,-4,-8,-9,-9,-5,-8
1529289492769630,5,0,1,6,5,-6,-2,1
1529289492783636,-4,-5,-8,-9,-6,-7,-5,-2
1529289492783636,-8,-6,-2,-1,-3,4,1,0
1529289492790617,5,5,4,3,10,2,2,7
1529289492790617,3,5,10,14,9,11,-2,0
1529289492797593,-3,-2,-2,-6,-4,-6,5,2
1529289492797593,-3,0,-1,-3,-5,2,0,-1
1529289492806530,4,3,8,17,13,14,5,3
1529289492806530,-1,5,3,-4,-9,1,4,-2
1529289492820493,6,2,-1,-2,6,6,-2,3
1529289492820493,4,1,-1,-8,-19,4,-1,-2
1529289492829468,2,1,6,24,32,7,0,4
1529289492829468,-4,-1,2,-9,-19,11,-4,1
1529289492835455,-2,-3,-22,-33,-13,-11,-3,-1
1529289492835455,4,-1,2,3,3,-5,2,3
1529289492850414,0,-1,-1,5,7,-4,-1,0
1529289492850414,-2,0,4,14,14,5,5,2
1529289492857393,3,4,10,21,12,7,1,0
1529289492857393,1,3,5,5,0,3,-1,-2
1529289492866371,-2,-4,-9,-16,-7,-7,0,0
1529289492866371,1,-2,-2,-1,3,9,6,1
1529289492880334,0,-2,2,2,-12,2,2,0
1529289492880334,7,3,1,5,11,0,0,2
1529289492889310,-9,2,4,3,-18,5,-1,0
1529289492889310,1,3,-4,-11,-13,-17,-7,-1
1529289492895294,-1,-1,-1,1,7,-14,6,1
1529289492895294,-4,-2,3,15,18,-12,-3,-2
1529289492910254,3,2,-2,-17,-5,-21,-2,-1
1529289492910254,-8,-5,-4,2,16,6,-2,-2
1529289492917236,-3,-4,-3,-4,-4,12,-1,-1
1529289492917236,-1,0,-4,-11,4,12,-2,-2
1529289492927209,-7,-6,-2,10,10,11,-5,-7
1529289492927209,13,1,-9,-14,-25,-25,-10,0
1529289492940174,3,1,4,9,18,3,1,3
1529289492940174,4,4,5,7,9,14,10,3
1529289492949343,3,6,3,-1,7,9,4,0
1529289492949343,-8,-2,4,7,17,11,-2,0
1529289492955476,5,4,2,2,-10,-26,-13,-5
1529289492955476,-12,-3,-8,-14,-12,2,1,-2
1529289492970667,9,-4,-4,-5,-14,-21,-3,2
1529289492970667,-3,-4,1,1,0,-23,1,-2
1529289492977880,0,1,-5,-5,-3,7,-3,0
1529289492977880,-5,-4,-1,-4,-2,4,-3,-3
1529289492986901,-4,-1,4,4,9,14,1,-2
1529289492986901,-3,-5,-13,-9,1,-18,4,1
1529289493000270,0,3,6,9,13,-8,-4,-3
1529289493000270,6,1,-5,-4,-6,2,0,1
1529289493009100,7,7,11,4,-1,-3,7,5
1529289493009100,-6,-8,-12,-8,-8,-2,-3,-6
1529289493015229,-2,-2,-2,-14,-9,7,1,3
1529289493015229,-2,-14,-12,-14,-19,-12,-5,-4
1529289493030384,3,5,6,7,-2,-1,-1,3
1529289493030384,-8,3,5,16,10,0,-4,-5
1529289493038297,16,7,0,-1,-7,-5,4,5
1529289493038297,-12,-4,0,4,5,5,1,-8
1529289493053445,-5,-10,-8,-8,9,0,-3,0
1529289493053445,-1,-2,4,1,11,5,4,1
1529289493060191,-6,-4,-2,2,-8,-4,-3,-5
1529289493060191,-1,5,5,3,-14,-3,3,4
1529289493076293,-5,-6,-7,-3,-42,-1,-6,-7
1529289493076293,11,3,3,0,-28,4,6,4
1529289493077119,-6,-1,1,9,-14,-11,7,0
1529289493077119,1,1,0,0,-5,-24,-5,2
1529289493090263,-6,-3,-5,-6,-1,-18,1,-3
1529289493090263,-4,-4,-1,-2,20,-9,-6,-3
1529289493098251,1,-3,-1,7,13,-15,-5,-3
1529289493098251,10,5,8,5,16,-23,-1,3
1529289493113332,2,5,-5,-1,35,-8,-2,3
1529289493113332,-13,-16,-19,-39,-18,-7,-3,-5
1529289493121042,1,-9,-11,-1,12,-12,-3,-1
1529289493121042,-7,0,0,-5,-6,-1,-4,-5
1529289493143943,7,13,18,23,9,6,3,5
1529289493143943,5,6,7,8,6,6,10,3
1529289493144942,-13,-1,-3,-8,-10,-7,2,-6
1529289493144942,7,-4,-8,-2,-13,1,-7,-1
1529289493149928,-5,-6,-3,-8,-17,3,-1,-1
1529289493149928,5,8,5,7,-14,11,1,2
1529289493157941,-5,-4,4,3,-16,-1,-3,-2
1529289493157941,-21,-12,-20,-17,-17,8,-2,-9
1529289493173050,17,-3,-3,-8,-7,-3,-1,6
1529289493173050,-5,1,6,7,8,7,-2,-4
1529289493180893,7,7,10,13,10,16,3,5
1529289493180893,4,8,11,9,7,3,5,4
1529289493196236,-19,-15,-15,-4,2,9,-4,-9
1529289493196236,-1,-7,-9,-8,-2,-6,-4,-3
1529289493197235,-4,0,-3,-6,4,2,-6,-8
1529289493197235,22,17,21,15,19,-2,3,9
1529289493210548,-5,7,3,-4,5,-5,0,0
1529289493210548,7,4,9,19,13,10,3,6
1529289493218235,-8,-6,-12,8,16,2,-2,-5
1529289493218235,-3,-7,-7,-37,-21,10,1,1
1529289493233338,-11,-18,-12,-1,1,-10,0,-6
1529289493233338,-12,2,-6,-12,-19,-3,-11,-6
1529289493240175,23,11,11,3,5,-22,3,11
1529289493240175,-2,4,7,17,14,13,1,-3
1529289493256166,3,-1,-3,3,5,12,3,3
1529289493256166,-4,-16,-14,-6,-1,10,1,-3
1529289493257312,-5,-2,2,-2,3,-1,1,-2
1529289493257312,8,19,24,16,12,-9,1,5
1529289493270098,-5,6,7,-3,-10,-2,0,-4
1529289493270098,-6,-5,-10,0,5,-9,-2,-1
1529289493278282,6,-2,-8,-5,-7,-4,-2,3
1529289493278282,0,-6,-13,-13,-1,-16,0,-5
1529289493293076,4,6,7,11,8,9,-1,0
1529289493293076,6,3,12,-1,-16,-1,2,7
1529289493300018,-5,-4,-10,-14,-5,5,0,-3
1529289493300018,-6,-5,-7,-22,-14,-17,-8,-7
1529289493316132,0,-7,-7,4,20,-14,3,0
1529289493316132,-1,4,8,20,18,-4,1,0
1529289493316970,-7,-6,6,8,2,6,3,-1
1529289493316970,-3,-8,-14,-7,-11,-22,-6,-6
1529289493330108,-2,3,7,-6,-13,-5,1,5
1529289493330108,14,3,3,3,-9,-3,-1,-3
1529289493338496,5,15,5,16,17,5,3,6
1529289493338496,4,-10,-16,-11,-4,3,3,3
1529289493352708,-1,9,8,-1,0,-8,-3,-4
1529289493352708,-5,-1,6,8,15,0,2,-1
1529289493360679,-5,-3,6,0,9,3,2,-2
1529289493360679,-8,-11,-13,-6,-6,5,3,-1
1529289493375864,6,-4,-12,-13,-23,-9,-3,-3
1529289493375864,10,11,10,5,-10,-13,-3,7
1529289493376674,5,11,14,0,-20,-7,0,2
1529289493376674,-7,-7,-7,-2,13,-8,-2,-1
1529289493390025,-3,-5,-1,9,14,6,1,-2
1529289493390025,-9,-5,-14,-13,1,-5,-5,-4
1529289493398309,1,-3,-3,-14,-39,13,-3,-2
1529289493398309,1,6,7,10,18,-13,-2,4
1529289493413001,0,-2,-4,19,7,11,-1,-1
1529289493413001,7,6,13,-12,-17,-16,-4,1
1529289493420949,-12,-12,-17,-21,12,-18,-2,-6
1529289493420949,4,0,1,0,29,19,3,0
1529289493435905,-3,-9,-1,-5,2,2,-1,-3
1529289493435905,-7,-3,2,15,0,16,8,1
1529289493436902,4,9,9,6,-27,-4,-4,1
1529289493436902,4,6,7,4,-40,-6,-2,3
1529289493450508,1,1,-8,-7,-10,-17,-5,1
1529289493450508,-3,-9,-12,-13,-13,11,6,-1
1529289493458404,-4,-7,-4,1,-3,-11,-6,-2
1529289493458404,-7,2,0,8,21,-1,-6,-5
1529289493472442,11,3,4,1,10,18,16,18
1529289493472442,5,5,12,20,28,5,-1,8
1529289493480404,-5,-7,-22,-27,16,-25,-10,-26
1529289493480404,-8,-2,8,17,29,-13,-9,-12
1529289493496196,-6,-6,-10,-41,-75,-33,-22,-13
1529289493496196,-1,-1,-7,-10,-26,5,1,2
1529289493497194,-4,-8,-2,20,27,13,6,9
1529289493497194,3,3,5,4,4,7,4,3
1529289493510316,3,6,19,32,37,16,9,2
1529289493510316,2,-4,-21,-33,18,12,10,2
1529289493518136,-4,-6,-9,-16,-12,-10,-6,-2
1529289493518136,-6,-7,-7,1,6,31,8,-2
1529289493532694,-2,2,-2,-10,14,-31,-10,1
1529289493532694,-3,0,5,11,6,1,-5,-9
1529289493540514,-2,-1,7,12,12,14,2,1
1529289493540514,1,-6,-11,-15,-13,9,4,3
1529289493556141,-4,-1,1,0,4,21,4,-1
1529289493556141,5,6,3,5,-3,3,-5,-4
1529289493557136,3,4,6,5,2,16,11,6
1529289493557136,3,4,7,12,-15,-13,-4,1
1529289493570562,2,0,-3,-1,-20,2,-1,-3
1529289493570562,-2,-2,3,14,15,4,0,-2
1529289493578431,-2,4,0,-18,-23,13,2,-4
1529289493578431,3,-8,-3,5,-6,-9,1,8
1529289493593110,5,2,-3,-5,7,6,4,2
1529289493593110,2,3,12,23,15,6,1,0
1529289493600789,-2,-3,-12,0,3,-12,-6,-1
1529289493600789,-4,4,8,-5,1,4,-2,-5
1529289493615647,5,-1,-2,-2,-1,-9,1,3
1529289493615647,2,0,0,-2,-2,1,12,5
1529289493623940,-21,-12,-6,-8,-2,-11,-20,-15
1529289493623940,13,10,6,4,-4,-15,-8,-1
1529289493630863,-2,3,6,13,14,1,1,-1
1529289493630863,-1,4,2,-11,-14,1,2,-1
1529289493637663,12,8,4,10,6,0,12,15
1529289493637663,-18,-9,-5,-1,-3,0,-4,-7
1529289493653109,9,2,0,1,-3,-10,0,4
1529289493653109,-5,-6,-11,-9,-10,2,-5,-1
1529289493660911,8,3,3,-2,-5,-4,4,4
1529289493660911,-7,-2,0,1,-5,-9,4,-1
1529289493675508,-4,2,3,6,14,8,7,-2
1529289493675508,-3,-3,-5,-12,-16,-27,-8,-3
1529289493683346,-3,-1,0,0,2,-20,-10,-4
1529289493683346,4,0,-1,1,-8,-10,0,-1
1529289493690396,-13,-6,0,6,17,14,1,-5
1529289493690396,1,2,0,-13,-10,-26,-5,-2
1529289493698364,-5,-6,-10,-12,-8,2,-3,0
1529289493698364,4,-3,-6,-4,-4,-13,-1,0
1529289493712784,7,3,-1,-6,4,-10,-6,1
1529289493712784,-4,0,6,22,24,11,10,11
1529289493720767,-1,2,5,0,-5,-10,7,-1
1529289493720767,-8,-6,-2,-3,-5,1,-12,-10
1529289493735746,-9,-14,-12,-7,-10,-14,-5,-8
1529289493735746,18,6,-4,-4,-2,8,6,7
1529289493743915,6,1,9,9,5,-4,-10,7
1529289493743915,-7,5,3,3,1,-4,-4,-5
1529289493750478,-19,-1,1,-3,-12,-3,-9,-18
1529289493750478,-9,-14,-13,-14,-8,7,-12,-17
1529289493758056,15,11,9,12,13,9,17,19
1529289493758056,14,8,8,6,6,9,11,7
1529289493773199,12,20,20,19,19,5,9,7
1529289493773199,-24,-14,-11,-5,-6,-14,-4,-9
1529289493780555,-6,-10,-10,-9,-15,8,-5,-2
1529289493780555,6,-2,-8,-9,0,3,2,6
1529289493795517,-12,-10,-3,-5,-7,19,4,2
1529289493795517,8,11,8,10,18,-3,1,7
1529289493803497,7,8,4,6,-2,-3,3,0
1529289493803497,-17,-8,-13,-20,-16,8,2,-12
1529289493818275,5,-5,-10,-8,-13,25,7,2
1529289493818275,2,-1,6,8,-1,-4,-7,-2
1529289493819273,3,-1,-3,-8,4,-9,-7,-9
1529289493819273,-2,1,-1,1,11,14,4,3
1529289493832959,10,3,1,-5,4,-2,3,9
1529289493832959,-5,-4,0,-1,-1,3,-4,-5
1529289493840632,-17,-6,0,6,7,35,1,-9
1529289493840632,16,1,1,6,8,4,-1,7
1529289493855612,5,-5,-4,-4,-6,24,-4,-6
1529289493855612,-18,-10,0,2,-5,-11,-6,-1
1529289493863552,0,-2,-4,-1,10,-2,1,-2
1529289493863552,-3,-5,-2,-1,0,-20,4,3
1529289493879112,-3,1,0,3,10,-21,-1,-5
1529289493879112,2,2,-2,-11,0,-10,0,-4
1529289493879112,5,0,-4,-5,-2,-4,1,1
1529289493879112,1,1,2,7,1,-19,-8,-3
1529289493892937,1,-1,0,5,5,-26,-1,4
1529289493892937,0,5,1,-18,-37,-2,-3,-3
1529289493900735,-11,-10,1,25,4,14,-7,-9
1529289493900735,2,-1,-20,-49,-31,-27,1,3
1529289493915117,-8,-5,-9,-13,-9,-21,-4,-2
1529289493915117,4,0,-7,-3,13,-10,-4,-2
1529289493923895,-3,0,0,5,7,10,1,-4
1529289493923895,2,3,20,24,3,21,4,0
1529289493938939,-1,-1,-4,-11,-18,-7,-1,4
1529289493938939,5,4,5,10,-2,3,-2,2
1529289493938939,-3,-4,-7,-10,-32,-11,-6,-5
1529289493938939,-6,-4,0,2,-21,9,-5,-1
1529289493952855,4,3,-2,-4,3,-4,2,3
1529289493952855,0,-1,3,9,23,14,4,-1
1529289493959818,1,4,4,3,19,-7,1,-2
1529289493959818,3,7,10,15,13,-6,1,2
1529289493974760,-4,-7,-13,-10,-19,3,-1,-3
1529289493974760,1,-2,-6,-2,-8,3,-4,1
1529289493983736,1,-2,0,-5,-20,-9,3,2
1529289493983736,-3,-5,-12,-15,-12,-4,-2,-1
1529289493998741,0,2,5,9,2,-5,-3,-3
1529289493998741,0,-2,0,4,3,-6,2,3
1529289493998741,-2,3,1,-4,4,-14,0,-2
1529289493998741,-10,-1,1,1,3,2,1,0
1529289494012704,9,0,1,8,16,-6,-4,1
1529289494012704,-6,-2,-1,-9,-4,2,1,-3
1529289494020682,0,-1,-4,-1,4,-14,-4,5
1529289494020682,1,0,2,9,7,-9,1,-2
1529289494035643,-7,2,-5,-9,3,-2,-5,-4
1529289494035643,3,-1,-1,4,16,5,2,1
1529289494043627,8,5,6,4,17,-1,8,3
1529289494043627,-3,-1,0,4,-1,7,1,-2
1529289494058535,-1,-2,2,-3,-16,-15,-4,0
1529289494058535,1,-3,-3,0,-6,-3,-1,-4
1529289494059533,-2,-1,-4,-5,7,5,1,2
1529289494059533,5,4,5,5,21,-1,1,1
1529289494072543,-3,0,3,4,11,-2,2,-2
1529289494072543,-1,-4,-4,-3,2,2,0,-2
1529289494080522,3,0,-5,-6,-6,-6,0,-1
1529289494080522,0,1,-2,1,-3,-4,-1,-3
1529289494095487,-1,3,6,0,-10,-7,-2,-3
1529289494095487,6,2,3,3,4,-6,-1,3
1529289494103461,-1,-4,1,0,1,2,-1,1
1529289494103461,-5,2,-2,2,0,11,-1,-2
1529289494118374,-9,-11,-7,-11,-10,1,-7,-5
1529289494118374,7,4,4,7,9,-6,6,3
1529289494119418,-7,-4,-5,-11,-19,-7,-1,2
1529289494119418,5,-3,-4,-1,1,-13,-2,1
1529289494132383,3,-1,-3,-1,-4,7,-1,1
1529289494132383,0,1,0,-3,-4,-3,-4,-8
1529289494140316,-7,0,1,8,3,2,-4,-5
1529289494140316,-5,-5,-3,-3,-2,-2,5,-1
1529289494156274,-1,-1,-3,-5,-11,1,0,0
1529289494156274,-3,0,-1,-5,-11,-3,-2,0
1529289494163255,0,-1,2,0,1,5,5,-1
1529289494163255,-1,-3,-3,-6,-1,-2,-6,0
1529289494178215,-8,1,-1,3,7,7,-1,-3
1529289494178215,3,1,-1,2,0,-1,-2,4
1529289494179213,2,0,-1,-3,1,-3,0,-2
1529289494179213,2,-2,0,-7,1,2,-2,1
1529289494193175,-5,-3,-1,7,2,-8,0,0
1529289494193175,1,2,3,1,-1,-7,1,0
1529289494200157,-7,-5,-8,-13,-9,-2,1,-3
1529289494200157,6,0,1,5,5,-1,1,1
1529289494215117,8,4,0,-4,-9,-20,-4,0
1529289494215117,-6,-1,6,5,-3,2,0,-6
1529289494223095,3,1,0,4,1,-13,-1,4
1529289494223095,-3,0,0,1,1,-9,3,0
1529289494238055,-7,-1,0,-5,-5,9,1,-1
1529289494238055,3,-6,-6,-6,-6,-21,-4,-7
1529289494239053,4,3,1,0,-4,-6,-6,4
1529289494239053,-1,-2,3,3,1,-5,0,2
1529289494253015,7,5,7,11,12,-15,3,4
1529289494253015,-4,-1,-4,-3,-4,-6,2,5
1529289494259996,0,2,4,4,0,5,1,-4
1529289494259996,0,-1,-4,-3,-1,1,-5,-3
1529289494274957,2,3,3,5,16,2,5,3
1529289494274957,-13,-5,-5,-5,-2,5,-3,-7
1529289494290915,-2,-11,-12,-10,-8,-6,-3,-1
1529289494290915,6,4,2,2,-3,-3,-1,1
1529289494297896,-2,3,6,4,3,2,3,-1
1529289494297896,4,2,-3,-2,2,6,-3,2
1529289494298894,-2,1,2,3,3,6,-1,-2
1529289494298894,6,-1,-5,-6,-5,12,-8,5
1529289494321255,-1,-11,-7,-3,-3,-15,7,-6
1529289494321255,-3,-3,-2,-1,1,6,5,4
1529289494322260,6,9,8,4,1,0,-3,-6
1529289494322260,-2,-4,0,1,3,1,-3,0
1529289494335941,6,5,-1,0,-2,6,1,10
1529289494335941,-1,0,1,-3,-2,3,-2,-3
1529289494343230,-5,-6,-4,-3,0,0,3,-1
1529289494343230,-6,-4,-4,-3,-2,11,4,-4
1529289494358260,1,-3,-3,-2,2,0,-6,3
1529289494358260,4,2,2,2,2,-6,1,2
1529289494359258,2,4,5,3,3,2,-2,2
1529289494359258,-8,-3,0,-1,-4,-7,0,-5
1529289494373222,-4,-2,-2,-1,-8,1,-8,-5
1529289494373222,-4,-1,-1,0,-1,9,-2,-2
1529289494381567,-6,-4,-4,-1,-5,-3,0,1
1529289494381567,6,1,-2,-1,-4,-10,-1,0
1529289494395161,-2,-1,1,0,-4,2,1,-2
1529289494395161,-6,0,1,2,2,0,-3,-3
1529289494403140,9,6,0,-3,-4,7,-3,6
1529289494403140,4,-2,0,-1,-4,-15,12,3
1529289494418135,-9,-4,-1,-1,0,-4,-2,-14
1529289494418135,1,2,1,2,0,-2,1,1
1529289494419098,5,0,0,0,1,-3,3,2
1529289494419098,-5,-2,-1,1,1,-3,14,8
1529289494433483,3,2,-1,0,-1,-10,-10,1
1529289494433483,1,0,-2,-1,-3,-1,2,-1
1529289494440672,-1,-5,-5,-3,-4,1,0,-2
1529289494440672,-1,0,-1,1,1,-4,-4,3
1529289494455603,-2,-2,-2,-6,-5,13,2,1
1529289494455603,-5,-4,-1,5,-33,0,-2,-2
1529289494463395,3,4,5,5,-15,-11,-2,0
1529289494463395,1,0,2,0,-6,-8,-7,-5
1529289494478399,-3,-1,-2,-2,4,-1,3,-1
1529289494478399,6,2,-3,-5,13,-2,-1,-1
1529289494479396,-5,-2,-1,-3,6,4,-1,-2
1529289494479396,-3,0,0,2,-6,4,-4,-4
1529289494493357,0,2,-1,-1,-14,2,-2,1
1529289494493357,-2,-3,-1,-5,-42,6,-1,3
1529289494501336,-8,-4,0,-2,-12,1,0,-7
1529289494501336,15,3,1,-1,26,-8,0,18
1529289494515456,-6,-2,0,-2,22,-19,-1,-20
1529289494515456,-4,3,-1,-1,38,-14,-14,-11
1529289494523151,15,-5,-5,-3,24,-11,9,14
1529289494523151,-19,-14,-7,-2,24,-6,-4,-14
1529289494538254,6,3,2,1,11,-3,2,13
1529289494538254,9,9,11,6,22,-3,-1,4
1529289494546206,-4,4,-1,0,11,-26,-5,-6
1529289494546206,-4,0,-4,-3,3,-18,-3,-5
1529289494553068,3,-6,-7,-2,-14,-11,0,5
1529289494553068,-4,-6,-11,-9,-8,10,-2,-5
1529289494561046,3,6,12,7,13,37,-3,3
1529289494561046,1,5,7,5,-11,26,3,-1
1529289494575848,0,1,2,0,-29,6,0,1
1529289494575848,-1,-2,-5,-3,-27,3,8,3
1529289494583247,-1,-5,-8,-4,-16,0,-11,-1
1529289494583247,-2,0,0,-1,-9,-12,-4,-7
1529289494598367,-6,-2,0,1,2,0,-4,-3
1529289494598367,-1,-4,-1,1,8,-4,2,3
1529289494606399,0,-3,-3,-1,0,0,0,0
1529289494606399,3,3,-1,0,-1,13,-4,-3
1529289494613202,2,1,-2,-1,16,0,1,5
1529289494613202,2,4,1,1,12,-6,1,-2
1529289494621371,-13,-8,-1,0,8,-20,2,-3
1529289494621371,-1,1,-1,-1,-11,0,-2,-1
1529289494635141,2,1,-2,0,0,-5,1,2
1529289494635141,-3,0,-1,1,2,-9,-2,1
1529289494643120,-1,2,0,-1,-12,78,1,-4
1529289494643120,-2,-4,-3,-4,-10,99,-1,-2
1529289494658457,0,-2,0,2,0,127,-4,-4
1529289494658457,2,1,1,2,-5,-34,5,4
1529289494665658,1,1,1,-3,-8,-111,-3,-2
1529289494665658,-3,-2,1,-1,-2,-128,-1,1
1529289494672811,-1,-3,-4,-4,0,-128,-2,-1
1529289494672811,0,-3,-1,-1,-1,-58,-1,-3
1529289494689600,-1,-2,-6,-3,-4,-102,2,-1
1529289494689600,-2,1,1,1,-2,-128,-3,-2
1529289494695752,-2,-1,0,0,2,-71,0,0
1529289494695752,2,-3,-3,-1,2,-54,1,2
1529289494704807,-1,-1,-1,0,0,6,1,-1
1529289494704807,-4,-1,-1,-1,0,88,-1,-1
1529289494717733,-1,0,-2,0,2,74,2,0
1529289494717733,-1,-2,-2,-2,5,104,1,-1
1529289494726673,1,-2,-2,1,2,127,0,-1
1529289494726673,2,1,-1,-1,4,64,-1,2
1529289494732657,3,1,3,1,3,-5,-1,2
1529289494732657,-4,-3,1,-1,3,-5,-1,-1
1529289494749781,1,0,0,-2,4,-6,-7,3
1529289494749781,0,0,-2,-2,-2,-12,9,0
1529289494754868,0,-3,0,-1,-1,-48,-2,1
1529289494754868,-1,-3,0,-1,2,-53,4,0
1529289494764816,0,-1,0,1,2,-63,-1,-2
1529289494764816,-3,-5,-2,0,2,-66,-5,-5
1529289494777709,-1,1,-1,0,3,-39,0,0
1529289494777709,0,1,1,-2,1,-27,-2,2
1529289494787015,0,2,0,-1,-2,5,1,-1
1529289494787015,2,1,0,-1,-5,-15,-2,2
1529289494800159,1,0,0,-1,-5,-17,0,-3
1529289494800159,-4,-1,-1,-1,-2,-12,-5,-3
1529289494808958,-2,-1,0,1,-4,-14,-1,0
1529289494808958,1,2,1,2,-5,-8,-4,-1
1529289494814942,0,-1,-1,0,1,-8,0,-3
1529289494814942,1,0,-1,0,1,7,-1,-2
1529289494824965,-2,3,0,-1,1,-4,0,-3
1529289494824965,-2,0,-1,-1,-1,-5,-1,-2
1529289494837881,-2,0,0,-2,-3,5,1,-2
1529289494837881,0,-1,-1,-2,-3,7,0,2
1529289494846855,-1,-1,0,-1,-1,8,2,-1
1529289494846855,0,0,-1,0,-3,8,1,1
1529289494860230,-2,-1,0,0,-3,8,2,1
1529289494860230,-2,0,0,0,-3,-1,0,2
1529289494868829,-1,-1,0,-2,-3,-2,0,1
1529289494868829,-2,1,-1,1,2,4,0,0
1529289494874814,0,-1,-1,-1,-2,-1,1,1
1529289494874814,0,0,-3,-1,-4,-9,-1,1
1529289494883789,0,1,-1,0,-5,1,-1,0
1529289494883789,-1,-1,1,-1,0,10,-2,-2
1529289494897790,-2,-1,0,1,0,23,0,-1
1529289494897790,-1,1,1,-1,2,27,-1,-1
1529289494906728,-2,-2,-1,0,2,20,2,0
1529289494906728,-1,-2,-2,-1,-2,13,0,1
1529289494920691,-1,-2,-1,-1,0,13,-1,0
1529289494920691,0,-3,-1,1,0,14,1,0
1529289494929668,-1,-2,-2,-2,1,11,1,0
1529289494929668,-1,-1,-1,-1,-1,12,0,-1
1529289494935652,0,0,0,-2,-5,14,-1,1
1529289494935652,0,0,1,0,-4,17,2,1
1529289494944663,2,-1,3,0,-7,10,2,-2
1529289494944663,2,-1,0,-1,-7,7,0,0
1529289494957595,2,-2,0,0,-6,5,-3,1
1529289494957595,0,-1,-1,-1,-1,6,-3,0
1529289494966747,-1,-1,-3,0,0,1,-2,0
1529289494966747,-1,-1,1,0,0,-3,-2,0
1529289494980826,-2,0,0,2,1,-3,-1,-2
1529289494980826,-1,0,-1,2,-2,-1,1,-1
1529289494989776,-1,0,0,1,-2,-1,-1,-1
1529289494989776,0,0,-1,-1,0,-2,2,-3
1529289494994801,-2,0,-1,-2,0,1,-1,1
1529289494994801,0,0,-1,-1,2,0,0,1
1529289495004740,-1,-2,-1,-1,1,0,1,0
1529289495004740,-2,-2,-1,-1,-1,-1,2,0
1529289495017705,0,-2,0,-1,3,-3,2,-1
1529289495017705,0,-1,1,0,2,-4,0,-1
1529289495026681,-1,-1,0,-1,-1,-7,-1,1
1529289495026681,-1,-1,-1,-1,-1,-5,-3,1
1529289495040646,0,0,-1,-1,-2,-7,-1,-1
1529289495040646,-2,0,-1,-1,-1,-7,0,0
1529289495049623,-1,-1,0,-3,1,-3,-1,-1
1529289495049623,1,0,0,1,1,-2,2,-3
1529289495055709,-2,-1,0,1,2,-4,0,-2
1529289495055709,-1,-2,-1,1,0,-2,0,-1
1529289495064688,0,1,0,-1,-1,-1,0,0
1529289495064688,-1,0,-1,-1,0,-2,-1,0
1529289495077654,1,0,0,-1,2,-3,-1,0
1529289495077654,0,0,-2,-2,0,-2,0,0
1529289495086630,0,-2,-1,0,2,-5,-3,-1
1529289495086630,-2,-2,-2,0,0,-5,0,0
1529289495100593,-1,0,-2,-1,1,-3,0,0
1529289495100593,-1,-1,1,0,-1,-2,-2,-1
1529289495109572,0,1,1,-2,-1,-1,-1,-1
1529289495109572,-1,-1,0,1,1,1,-3,-2
1529289495115552,0,0,0,0,-2,-1,-2,0
1529289495115552,0,-2,-1,0,-1,-2,-1,-1
1529289495124528,0,-1,-1,0,-4,-1,0,-1
1529289495124528,0,0,0,-3,0,0,1,0
1529289495137698,0,1,-2,0,0,1,0,0
1529289495137698,0,-2,-2,-2,-1,2,-1,-1
1529289495146707,-2,1,-1,1,2,1,-2,0
1529289495146707,1,1,2,-3,1,1,-2,1
1529289495160672,-1,-2,0,-1,0,1,-1,-1
1529289495160672,0,1,-1,-1,0,1,0,0
1529289495169649,0,1,-3,-2,-2,0,0,0
1529289495169649,-2,-3,-3,2,-3,2,-1,0
1529289495175632,-2,0,-2,0,-1,0,-1,0
1529289495175632,0,0,0,0,-1,-2,-2,-2
1529289495184606,-1,-1,0,0,-1,0,0,-2
1529289495184606,1,-2,1,-1,0,-1,-1,-3
1529289495197755,1,-2,0,0,-1,0,1,-3
1529289495197755,-2,-2,1,-1,-3,0,0,-2
1529289495206547,-1,0,-1,1,0,0,2,0
1529289495206547,-1,0,-3,-2,-2,0,-1,0
1529289495220514,-2,0,0,0,-2,-1,-1,-1
1529289495220514,-3,0,-1,-1,-1,-2,-1,0
1529289495229486,-2,-1,-1,-2,2,0,-2,1
1529289495229486,-2,-2,0,-2,-2,-1,-2,-1
1529289495235470,1,-3,-1,-2,1,1,0,0
1529289495235470,0,0,-2,1,3,1,1,-1
1529289495244446,-1,2,-1,-1,0,2,0,-1
1529289495244446,1,1,0,0,-1,0,1,-1
1529289495257649,-2,1,0,-1,-2,-1,0,-1
1529289495257649,1,0,0,1,-3,-2,-2,-1
1529289495266548,1,-3,2,0,-2,-2,-2,-1
1529289495266548,0,-1,0,0,-3,2,-4,0
1529289495280454,-3,-3,-1,-1,-1,-1,0,-1
1529289495280454,-1,-1,-2,-1,1,0,0,2
1529289495289766,0,-1,-1,-1,2,-2,0,0
1529289495289766,-2,0,-1,0,1,-2,1,0
1529289495295594,-2,2,-1,0,-1,-1,0,0
1529289495295594,-1,-1,-1,0,-3,0,-3,-1
1529289495304732,-1,-2,1,0,-1,-2,-1,-1
1529289495304732,0,0,-2,-2,1,2,0,-2
1529289495317704,1,-2,-1,0,0,-2,-1,-1
1529289495317704,1,0,1,0,-1,0,0,0
1529289495326677,0,-1,-2,0,-1,0,0,-2
1529289495326677,0,-2,1,-1,-2,0,1,0
1529289495340639,-1,-1,-2,-1,-2,0,-1,-2
1529289495340639,0,-1,0,-1,0,1,0,0
1529289495349618,0,-3,0,-1,1,1,2,0
1529289495349618,-2,2,-2,2,2,0,0,1
1529289495355599,0,0,-1,-1,0,0,-1,0
1529289495355599,-1,1,-1,-1,1,0,0,-1
1529289495364576,0,2,0,0,-1,0,1,-1
1529289495364576,-1,0,0,0,-1,0,0,-1
1529289495377907,1,0,-2,0,-2,2,2,-1
1529289495377907,-1,0,-1,0,1,3,3,-1
1529289495386762,0,-1,-1,0,-1,3,0,-2
1529289495386762,0,0,-1,-1,-2,0,-1,-3
1529289495400721,0,-2,1,-1,-1,-1,-2,-1
1529289495400721,-1,-2,1,-1,-2,0,-3,-1
1529289495409701,0,-1,0,-2,-1,-1,-4,-1
1529289495409701,2,-3,-1,1,-1,-1,-2,-1
1529289495415682,-1,0,0,0,0,1,-4,1
1529289495415682,-2,0,-1,-1,0,-2,-2,-1
1529289495424656,-2,0,-2,1,-1,-1,0,0
1529289495424656,-3,-1,-1,-1,1,1,-1,2
1529289495437624,-2,-2,-1,-1,-1,0,-1,0
1529289495437624,-3,-1,0,-1,-1,1,-1,0
1529289495446598,-1,-2,-1,-2,-2,-1,0,1
1529289495446598,-1,0,-2,-2,0,-1,0,0
1529289495460738,0,-2,0,-1,1,-1,2,0
1529289495460738,-1,0,2,0,0,-1,0,-2
1529289495469537,3,0,0,-1,-2,-3,-1,-2
1529289495469537,1,0,-1,0,-1,-5,0,0
1529289495475521,1,0,0,-1,-2,-5,-2,0
1529289495475521,0,0,-2,-1,-1,-1,-2,2
1529289495484499,-1,-1,-1,1,-2,-1,-2,0
1529289495484499,-1,-3,-1,0,-3,-4,-3,0
1529289495497462,1,-1,-1,0,-1,-7,-4,-1
1529289495497462,-1,-1,-2,0,0,-10,2,0
1529289495506437,-2,1,-2,-1,0,-6,1,-2
1529289495506437,0,-1,0,-1,0,-5,1,-2
1529289495520449,-1,0,1,0,-1,-5,1,-3
1529289495520449,1,-1,0,1,-2,-6,-1,0
1529289495529379,-1,0,-2,-2,1,-5,-1,-1
1529289495529379,0,1,-2,-1,-2,-2,0,0
1529289495535361,0,0,-1,-2,0,0,1,2
1529289495535361,2,-1,-3,-1,1,0,-1,-1
1529289495544339,0,0,0,1,-1,2,0,-1
1529289495544339,0,-2,-3,-2,0,1,-2,-1
1529289495557713,-1,0,-1,1,1,4,-1,-2
1529289495557713,-2,-1,-1,1,1,4,-1,0
1529289495566690,-1,-2,0,0,0,1,-2,0
1529289495566690,-3,-1,0,-1,1,-1,-1,-2
1529289495580652,-1,1,-1,-3,-1,1,-1,0
1529289495580652,-1,-1,1,-1,-3,-1,0,-2
1529289495587634,-1,1,1,0,0,0,1,0
1529289495587634,0,0,0,-1,-3,2,-1,1
1529289495595612,-1,0,0,-1,-3,3,-1,-2
1529289495595612,0,0,0,-1,-2,2,-1,-2
1529289495604588,0,-1,0,-1,-2,4,-1,-1
1529289495604588,0,0,0,0,2,4,1,1
1529289495617554,-1,-1,-1,0,0,0,0,0
1529289495617554,-1,-2,-2,-1,-1,0,-1,0
1529289495626529,-1,-1,-2,0,-1,0,0,-2
1529289495626529,-1,0,-2,-1,0,0,0,0
1529289495640494,-2,-1,-1,-1,-1,0,-1,0
1529289495640494,-2,1,-1,-2,0,-2,0,-1
1529289495647633,-1,0,-1,-2,0,-1,0,0
1529289495647633,0,-1,1,0,-1,-1,-1,-1
1529289495655631,1,-2,0,0,1,-2,-1,0
1529289495655631,2,-2,0,-1,-1,1,0,0
1529289495664428,1,-1,-1,-2,-1,-1,-1,0
1529289495664428,1,0,1,-1,-1,0,0,0
1529289495677551,0,1,-1,-1,0,-1,-1,1
1529289495677551,-1,-2,-1,0,0,-1,-1,-1
1529289495686368,-1,-2,-1,0,0,0,-1,-1
1529289495686368,0,-1,0,-1,0,-3,1,-2
1529289495701332,-2,-2,-1,-1,1,-2,1,-2
1529289495701332,-1,1,0,0,0,-2,2,-1
1529289495707473,0,0,0,0,-1,-1,-1,-1
1529289495707473,0,-1,-2,-2,-2,-2,-1,0
1529289495724468,-3,0,0,0,-1,-1,-1,-1
1529289495724468,1,1,-2,-3,0,-1,0,-1
1529289495725466,-1,0,-1,-1,-1,-1,1,-1
1529289495725466,-1,-2,-2,0,1,1,-1,-2
1529289495737435,-2,-2,-2,-1,1,1,-1,-1
1529289495737435,-1,-3,-1,1,-1,1,-2,2
1529289495746408,0,1,-1,0,-1,0,0,0
1529289495746408,-1,1,0,0,0,1,1,-2
1529289495760370,0,0,-1,-2,0,0,1,0
1529289495760370,-2,-1,-1,1,-1,1,-1,0
1529289495767779,-1,-1,0,-1,-1,-1,-2,0
1529289495767779,-1,0,-1,-1,-2,-1,-3,0
1529289495784193,0,-1,-1,1,-1,0,-1,-3
1529289495784193,0,-1,-2,0,1,0,-2,-2
1529289495785191,0,-2,-1,-1,1,-1,-1,-2
1529289495785191,0,1,0,0,-1,1,0,-1
1529289495798159,0,-1,0,-2,-2,2,1,0
1529289495798159,0,-2,-1,-2,-3,-1,0,0
1529289495807132,-2,1,0,-1,0,-1,-1,0
1529289495807132,0,1,-1,0,0,-1,-1,0
1529289495821589,1,-1,-1,0,0,-1,0,-2
1529289495821589,0,-1,-1,1,-2,-1,-2,-1
1529289495827248,2,-1,-1,-2,-1,0,-1,0
1529289495827248,-1,0,-1,-2,-1,-1,0,-2
1529289495844284,-2,0,-1,-1,0,-3,-1,-1
1529289495844284,-2,1,-2,-2,-1,0,0,-1
1529289495846345,0,-1,1,-1,0,-1,0,1
1529289495846345,-2,0,-1,-1,-2,1,1,2
1529289495858344,0,0,0,-1,-2,0,1,0
1529289495858344,-1,0,-1,-2,1,-1,1,-1
1529289495867157,2,0,-2,-1,3,-2,-1,-3
1529289495867157,-2,0,1,-1,1,-3,-2,-1
1529289495881348,-1,-2,-2,-1,0,-1,-3,0
1529289495881348,1,0,0,-1,-1,0,0,-1
1529289495888118,-2,-2,0,-1,0,-1,1,0
1529289495888118,-1,-2,0,0,0,-1,0,-4
1529289495904076,0,0,-1,-1,-1,-2,-1,-1
1529289495904076,-1,0,-2,-1,-1,-1,-1,-1
1529289495905108,-1,1,-2,0,-2,-2,-1,-2
1529289495905108,0,1,0,-1,-1,0,-2,1
