timestamp,emg1,emg2,emg3,emg4,emg5,emg6,emg7,emg8
1529313649455709,-1,-2,-4,-2,-2,-1,0,-1
1529313649455709,-2,-3,0,-6,-11,-6,-1,-1
1529313649458700,1,0,-10,4,10,2,1,-2
1529313649458700,-2,-1,13,2,8,11,5,2
1529313649469671,-8,-10,-5,-8,-26,-17,-8,-5
1529313649469671,0,1,-2,44,28,0,-7,-1
1529313649510593,-5,-8,-7,-7,-21,-28,-12,-5
1529313649510593,-3,-2,-1,8,-2,-10,-6,-3
1529313649511560,6,17,17,24,23,-5,-3,0
1529313649511560,-6,-12,-9,20,-2,-11,0,0
1529313649514552,-1,0,4,14,6,19,-2,-3
1529313649514552,-1,-3,-4,-15,-10,16,11,5
1529313649515559,-2,0,-3,-17,-65,-18,-10,-4
1529313649515559,2,7,3,14,32,1,5,0
1529313649520535,5,3,-1,18,95,30,12,9
1529313649520535,-1,-1,13,25,27,44,-3,3
1529313649529511,-3,-3,0,34,-7,-32,-7,-19
1529313649529511,-4,-5,-16,-57,-52,4,-8,-7
1529313649544471,-7,-9,-17,-24,-21,-11,3,-4
1529313649544471,1,1,-1,-16,1,-35,-13,-7
1529313649550455,4,1,4,20,15,8,6,19
1529313649550455,-3,3,10,9,-2,-18,-3,-9
1529313649559440,10,6,8,13,36,62,21,5
1529313649559440,-9,-4,-6,0,-5,5,-3,-1
1529313649582370,-5,-6,-8,-32,-47,-16,14,1
1529313649582370,-7,-5,1,12,-22,-19,-21,-14
1529313649583395,1,4,9,14,-15,-34,-16,3
1529313649583395,12,8,-1,6,-4,-19,-3,-9
1529313649597356,1,-10,-11,0,38,21,4,10
1529313649597356,3,8,12,17,25,43,16,-15
1529313649605309,-12,-10,-24,19,40,-7,-13,-23
1529313649605309,-1,-2,7,26,-32,-33,-8,6
1529313649619281,-5,0,1,-66,-43,-29,-17,-8
1529313649619281,-4,-9,-16,22,50,19,2,4
1529313649626278,1,0,5,-3,23,34,15,12
1529313649626278,0,0,-3,-55,8,-8,1,5
1529313649642210,-1,-5,3,1,-19,-5,-13,-10
1529313649642210,-1,0,10,-36,-106,-51,-13,3
1529313649644205,-7,-14,-13,-13,-33,-32,-17,-11
1529313649644205,0,3,2,18,75,53,22,9
1529313649656172,-1,0,-10,3,13,25,13,8
1529313649656172,3,3,-16,-27,-6,9,-8,-18
1529313649665148,-1,5,-15,8,-2,-25,-3,-13
1529313649665148,1,1,-27,14,-7,6,6,26
1529313649679111,0,7,-26,37,48,29,36,21
1529313649679111,0,2,-25,-7,16,0,1,5
1529313649686339,-2,-7,-31,-35,-85,-46,-16,-1
1529313649686339,-7,-5,-31,-14,-35,-33,-24,-31
1529313649702090,1,3,3,0,10,-18,0,-3
1529313649702090,1,0,21,18,44,42,5,1
1529313649704044,5,5,56,13,8,14,5,7
1529313649704044,-2,-7,14,14,-18,-16,-10,1
1529313649716012,-6,-22,-18,-59,-11,-10,-10,-6
1529313649716012,3,-4,9,32,-9,-13,6,12
1529313649724996,1,-9,-37,-54,-10,6,3,4
1529313649724996,-5,-13,7,47,53,24,6,-11
1529313649739003,-3,-8,-9,-12,-11,7,-17,-14
1529313649739003,-4,-9,5,-1,-12,-34,-6,1
1529313649745934,2,4,12,0,-14,1,22,22
1529313649745934,0,6,14,-30,-48,-33,-36,-8
1529313649761896,-4,1,22,4,38,32,9,1
1529313649761896,2,0,28,25,32,18,8,19
1529313649763884,-3,-4,34,22,-18,-16,-5,-14
1529313649763884,-3,-7,19,-25,-15,2,8,-20
1529313649784868,3,8,29,33,-15,-13,-9,13
1529313649784868,-4,-10,-9,-19,-14,-17,-11,-10
1529313649785882,-2,-15,3,-12,23,37,18,5
1529313649785882,-2,-12,5,-11,-9,-2,0,0
1529313649798792,-2,-7,1,-3,-34,-12,-11,-12
1529313649798792,-8,-21,-21,-4,51,15,14,5
1529313649805772,1,5,-7,-4,-6,1,-6,-6
1529313649805772,-3,-11,2,46,19,2,10,11
1529313649821732,4,-20,8,-27,-3,-5,-16,-5
1529313649821732,-12,-47,44,23,-12,-9,-3,3
1529313649823727,-1,-1,2,-19,-8,-5,-10,-3
1529313649823727,0,3,5,7,4,8,-5,-27
1529313649844671,-8,-14,-45,-16,0,-7,7,0
1529313649844671,14,4,-31,-9,-4,5,-4,36
1529313649846664,-8,-29,-21,4,-7,-7,-9,-5
1529313649846664,5,11,0,-14,-27,-6,9,4
1529313649867608,-1,-30,-7,30,35,7,-20,-20
1529313649867608,-4,-37,-19,-8,-4,3,0,-4
1529313649868605,12,-24,-22,11,1,-2,-10,2
1529313649868605,9,46,-15,-13,-17,-12,-1,7
1529313649882575,-2,-12,-14,7,19,13,14,-3
1529313649882575,9,-53,0,-12,-38,-21,-9,2
1529313649883564,-6,-121,22,39,45,35,16,7
1529313649883564,-2,-128,0,-21,-17,-2,-16,-2
1529313649904536,1,-30,21,3,0,4,18,8
1529313649904536,5,54,-25,-15,-18,-18,-11,-18
1529313649906503,4,83,4,12,-26,-14,0,5
1529313649906503,-5,66,2,-24,24,25,10,11
1529313649919467,-7,79,-31,30,13,4,-18,-9
1529313649919467,0,62,-1,-8,5,4,0,-7
1529313649925452,-3,63,-3,-4,-8,-7,2,-10
1529313649925452,-2,42,-2,-10,-2,-5,-4,-10
1529313649942407,1,28,19,-18,-24,-12,-6,26
1529313649942407,-1,33,-26,40,26,16,7,-13
1529313649943404,-1,21,-23,-12,-6,-5,-5,8
1529313649943404,-4,32,-31,-21,-14,-14,-37,-25
1529313649964350,-12,-31,5,19,14,11,22,1
1529313649964350,0,-6,-8,7,-6,-1,-2,2
1529313649966343,0,11,-26,-25,-37,-24,-16,-11
1529313649966343,-5,25,3,6,15,12,16,-3
1529313649978312,13,61,-9,-3,30,12,12,7
1529313649978312,-10,-18,20,-15,-25,-13,-12,-14
1529313649987287,-4,34,32,2,18,-2,0,-4
1529313649987287,-3,-13,16,8,-10,-8,2,7
1529313650002248,-2,-17,-4,-18,-21,-3,-4,-6
1529313650002248,1,27,21,1,15,10,15,11
1529313650004242,2,31,44,0,-3,-8,-14,-6
1529313650004242,2,-17,14,13,0,1,14,7
1529313650024190,0,6,34,0,-6,-6,7,4
1529313650024190,-7,10,17,-18,-2,1,27,2
1529313650026183,-1,-10,33,13,-10,-8,7,5
1529313650026183,-3,-18,6,-5,9,7,-14,-18
1529313650047127,3,8,24,1,-2,1,0,23
1529313650047127,4,4,18,-18,-16,-7,5,-4
1529313650049122,-14,-16,-17,-4,-6,4,3,-3
1529313650049122,1,4,-2,16,21,1,9,9
1529313650062096,2,16,-13,3,-7,-11,-34,-24
1529313650062096,3,13,-10,-9,0,2,-6,3
1529313650064082,1,25,0,7,0,0,-9,-5
1529313650064082,1,8,-16,28,68,32,17,11
1529313650085026,-4,-2,-50,-22,-22,-4,-8,-5
1529313650085026,5,7,0,52,8,-5,-6,3
1529313650086023,-6,-1,-26,-63,-28,-20,-2,-2
1529313650086023,7,83,-21,-16,-19,-12,-11,-4
1529313650097990,-5,8,3,20,9,0,7,-2
1529313650097990,-5,-2,-6,9,13,4,1,-2
1529313650106966,-2,-16,-10,9,2,2,3,-3
1529313650106966,3,12,-33,6,-8,-7,0,4
1529313650121926,-7,-22,-13,-20,1,6,30,4
1529313650121926,8,40,-42,-18,-15,-8,-25,-9
1529313650123921,-1,-14,2,18,21,12,-1,1
1529313650123921,-1,-22,-1,-28,-15,-3,5,6
1529313650144868,7,-5,23,18,0,-5,-4,-6
1529313650144868,-9,-2,10,-11,-3,1,-4,-4
1529313650145864,7,9,5,21,21,5,2,-1
1529313650145864,2,-20,-2,-27,-45,-8,3,5
1529313650157871,10,61,-65,-7,8,-1,-12,-8
1529313650157871,-3,3,-10,-8,-18,-6,-1,1
1529313650167805,-3,-13,28,-18,-4,-6,-3,2
1529313650167805,-8,-10,17,17,-6,-4,1,-1
1529313650181821,-4,-9,17,7,2,-1,1,-11
1529313650181821,9,-24,1,-14,13,8,8,30
1529313650183852,3,9,-19,8,-12,-6,1,-1
1529313650183852,2,-54,24,34,12,5,-2,5
1529313650204742,-18,11,25,-18,-6,-1,-1,-16
1529313650204742,-5,-3,-18,22,12,-2,-6,-10
1529313650206735,-1,28,-11,-31,-15,-6,-7,1
1529313650206735,23,-17,7,-5,-2,-5,2,5
1529313650218722,-20,-27,34,57,28,13,4,7
1529313650218722,-11,-41,-7,-36,-32,-10,-7,-4
1529313650227649,-19,-46,60,37,-5,-6,-3,-7
1529313650227649,12,81,-82,37,22,9,5,4
1529313650241608,15,-76,52,-33,-16,-2,-7,-6
1529313650241608,4,11,46,10,15,5,4,1
1529313650243603,8,19,36,10,4,3,1,4
1529313650243603,-15,40,-28,-14,-5,-3,-4,-3
1529313650264598,11,4,6,39,12,5,4,8
1529313650264598,3,31,-28,-12,4,3,-2,-1
1529313650266577,20,80,-27,20,9,6,2,5
1529313650266577,-14,56,-2,-13,0,-1,4,-2
1529313650278509,-18,68,-76,-83,-31,-17,-12,-9
1529313650278509,-12,-9,71,14,-11,-10,-8,-18
1529313650293522,11,-128,-66,25,15,6,-1,-2
1529313650293522,-4,-128,75,32,10,8,8,6
1529313650302444,-19,-92,38,-66,-34,-24,-20,2
1529313650302444,6,-128,44,57,-13,-17,-20,-20
1529313650303441,-14,-128,-59,11,23,30,19,-1
1529313650303441,3,-115,-39,8,9,0,4,6
1529313650325518,18,-89,63,63,9,4,-2,5
1529313650325518,-4,-93,-96,-45,6,6,5,3
1529313650326558,4,-54,-19,-9,-8,-8,-10,2
1529313650326558,-11,-28,-4,-23,-9,-3,-7,-37
1529313650338486,10,-50,-104,-2,5,4,15,40
1529313650338486,0,-29,22,25,-14,-5,-9,-3
1529313650347462,-3,5,-23,-18,4,-2,0,0
1529313650347462,-17,-31,-31,-71,-27,-8,-2,-2
1529313650362477,5,-26,-34,2,5,-2,-1,-8
1529313650362477,6,-3,-1,26,61,13,9,8
1529313650364170,-11,-1,-59,-87,-110,-34,-12,-1
1529313650364170,-11,-24,28,3,8,1,-4,-13
1529313650385458,-4,-7,8,14,20,15,10,6
1529313650385458,0,13,4,-19,4,0,3,3
1529313650386111,-7,-6,19,65,52,10,5,3
1529313650386111,-3,-11,-17,-43,-17,-5,-9,-9
1529313650398433,8,-53,64,-4,-13,-14,-4,-1
1529313650398433,-16,-50,-89,-37,5,6,-5,-19
1529313650407457,10,-59,26,15,2,2,4,-8
1529313650407457,8,-40,9,22,-19,-12,-4,11
1529313650420906,-2,-50,22,1,18,13,-1,-15
1529313650420906,19,42,-50,-3,-14,-6,6,24
1529313650429882,-32,-35,-5,-39,-16,-13,-22,-36
1529313650429882,6,-3,-30,15,10,4,1,9
1529313650444089,1,6,-24,16,4,0,-1,-3
1529313650444089,5,-4,-27,-37,-28,-7,-2,-4
1529313650444842,6,13,30,23,44,-1,0,3
1529313650444842,-7,-33,-6,-13,-31,12,10,10
1529313650467053,-1,8,-42,1,-10,-2,-9,-15
1529313650467053,-1,-11,31,27,40,15,10,-1
1529313650467053,2,-4,7,-36,-46,-7,-5,8
1529313650467053,1,-12,13,26,11,-6,-7,-3
1529313650489729,1,10,8,-14,12,9,8,1
1529313650489729,-7,0,-1,15,0,2,-2,-8
1529313650489729,-4,-11,-4,8,23,6,7,11
1529313650489729,1,18,29,8,2,-5,-7,-1
1529313650512886,-11,-1,-20,-7,-27,-7,-7,-14
1529313650512886,-4,-14,-31,3,8,1,4,4
1529313650512886,9,48,1,11,-1,0,1,1
1529313650512886,-2,0,7,-9,-1,6,0,-5
1529313650526623,-6,-40,26,11,0,-9,-2,5
1529313650526623,-7,-19,32,-14,-8,-2,0,0
1529313650527620,3,5,5,-4,-4,-1,-2,3
1529313650527620,-2,-7,-16,-19,0,-4,1,5
1529313650548565,1,22,0,14,10,2,-1,-2
1529313650548565,-4,17,31,9,-10,-3,-1,-3
1529313650549565,0,8,6,-7,1,3,-1,-1
1529313650549565,1,16,5,3,6,-6,-2,2
1529313650563748,1,15,-17,10,-4,-5,-4,-5
1529313650563748,-2,3,3,-19,-10,-1,0,0
1529313650571710,1,7,1,8,11,1,1,2
1529313650571710,0,5,-3,9,4,-2,-1,-2
1529313650586687,1,12,-14,-17,-15,-6,-4,0
1529313650586687,-1,-5,9,0,-3,0,2,2
1529313650587461,0,2,5,1,5,1,1,-2
1529313650587461,0,4,13,3,0,-3,1,-2
1529313650609641,-4,10,2,-4,-3,-1,-3,-1
1529313650609641,1,5,3,5,2,-1,0,0
1529313650617642,2,13,-6,-2,1,1,-1,-2
1529313650617642,-8,-42,17,1,-4,-2,0,0
1529313650623624,0,9,1,0,2,-2,0,-1
1529313650623624,0,0,-8,-5,-3,0,-2,-2
1529313650631344,-1,3,-11,-4,-1,-1,1,0
1529313650631344,1,12,-7,5,3,-1,-4,0
1529313650646717,1,5,-12,0,1,1,-1,-1
1529313650646717,-2,-6,11,-4,-5,-1,-1,1
1529313650647301,-3,-3,14,-4,-2,-2,-2,-1
1529313650647301,1,13,15,1,2,-2,1,-1
1529313650669246,-2,0,10,-2,-3,-2,-2,-2
1529313650669246,-1,7,0,-6,-3,0,-3,-2
1529313650670243,-2,-4,-4,0,0,-1,-1,-1
1529313650670243,2,7,-10,-1,-2,-2,-1,-1
1529313650692267,-1,6,-9,1,-2,-1,-2,-2
1529313650692267,1,3,0,0,0,0,1,0
1529313650692998,-4,-7,-4,-2,-1,-3,-1,0
1529313650692998,-5,-3,-7,-2,-4,-2,-2,-1
1529313650706901,0,-2,-7,-4,-6,-7,-5,-3
1529313650706901,2,4,-5,2,6,8,4,0
1529313650707547,0,6,-3,-1,1,-2,0,0
1529313650707547,-1,-1,-7,-1,-3,-1,-1,-5
1529313650736802,0,4,-2,3,1,-2,2,6
1529313650736802,-5,1,-8,-7,-3,-2,0,-3
1529313650737769,7,4,3,-1,-3,0,-1,-2
1529313650737769,1,4,-3,3,4,1,2,3
1529313650743772,-10,-8,-15,-10,-6,-2,-1,-5
1529313650743772,-5,-4,-10,-6,-8,-7,-3,-4
1529313650752112,-4,-7,1,-2,0,2,-2,-1
1529313650752112,1,7,-2,-3,1,0,-1,0
1529313650767098,4,5,-2,2,4,1,1,2
1529313650767098,0,4,-1,1,-1,-2,-2,3
1529313650767098,-1,0,-7,-5,-8,-5,-3,-1
1529313650767098,-2,5,-1,-4,-6,-6,-4,-2
1529313650789190,4,6,1,1,0,-2,4,4
1529313650789190,3,6,7,4,8,10,4,0
1529313650789947,3,13,1,6,7,5,3,0
1529313650789947,-5,-18,4,-2,-8,-3,0,1
1529313650802916,2,9,2,-5,-7,-8,-6,-5
1529313650802916,-5,-6,1,-1,3,-5,-3,-3
1529313650812375,-10,-22,-1,-14,-12,2,2,-2
1529313650812375,9,13,3,-1,-2,-2,-5,0
1529313650826765,-8,-5,-5,1,3,6,1,-1
1529313650826765,2,-3,3,1,4,-6,1,5
1529313650826765,11,60,-10,6,4,-3,-3,-1
1529313650826765,8,16,8,10,6,0,1,1
1529313650849702,-1,-11,-1,-3,-1,1,-6,-5
1529313650849702,-3,3,5,-7,-12,-7,-7,-7
1529313650849702,-4,-8,4,2,2,-3,-3,-2
1529313650849702,-5,-5,-8,-3,0,2,0,0
1529313650863667,9,27,4,10,11,6,1,-1
1529313650863667,-2,4,-7,-2,-10,-4,-2,-2
1529313650871896,-1,-15,0,-2,6,2,2,2
1529313650871896,1,-2,1,-5,-12,-2,-1,-1
1529313650887713,-1,-8,8,1,6,1,2,2
1529313650887713,-3,0,1,0,-5,-6,-2,-2
1529313650894583,-7,-59,48,11,-2,-2,-2,-2
1529313650894583,-1,1,-2,3,10,8,2,2
1529313650909605,-3,-1,-5,-5,-3,-4,-1,0
1529313650909605,1,2,-9,-12,-7,-4,-2,0
1529313650910541,1,10,-8,5,2,-3,-3,-1
1529313650910541,-6,3,19,1,2,-2,-3,-3
1529313650923242,-3,-11,4,-2,-19,-5,-4,-1
1529313650923242,1,0,17,4,6,1,-6,-5
1529313650931542,2,14,1,4,7,5,4,2
1529313650931542,-2,-5,-1,-7,-6,-5,-4,-3
1529313650946872,-4,-10,-9,-6,-5,-8,-4,-2
1529313650946872,-1,-7,1,7,9,9,4,2
1529313650947605,1,9,7,0,-1,-5,-7,-1
1529313650947605,1,1,15,-1,1,4,0,-2
1529313650969221,2,13,3,-2,-4,-5,-3,-1
1529313650969221,-1,0,-1,0,-2,-1,-1,-1
1529313650969849,-1,-10,13,-6,-8,-6,-4,-2
1529313650969849,1,5,5,-7,-5,-3,-1,-3
1529313650984082,-1,-2,9,-8,3,8,6,1
1529313650984082,0,-10,-7,-3,-2,0,0,1
1529313650991869,0,5,-26,-4,6,4,3,1
1529313650991869,-3,-6,-18,-16,-28,-13,-3,-2
1529313651006663,-1,1,2,2,16,3,1,-3
1529313651006663,2,20,-31,6,-12,-4,-1,-2
1529313651007658,-1,-5,-8,-8,-9,-5,-1,-1
1529313651007658,-7,-39,2,5,11,4,1,-2
1529313651029720,-2,-5,-17,3,-1,0,-2,-1
1529313651029720,4,3,-3,0,11,1,-1,1
1529313651029720,-2,-4,-25,2,4,2,-2,-2
1529313651029720,3,10,-17,3,3,-1,2,0
1529313651044559,0,7,-4,3,-2,1,0,-1
1529313651044559,-3,-10,2,-3,-1,1,-1,-1
1529313651051539,-2,1,-11,-6,-7,3,0,-3
1529313651051539,0,6,-11,-2,4,2,1,2
1529313651066500,-2,-7,-8,0,0,-3,-4,-2
1529313651066500,-1,-2,-1,-3,-4,1,1,-1
1529313651067497,0,-4,-3,-10,-4,-3,-1,-2
1529313651067497,-1,6,0,2,4,-3,-2,0
1529313651089438,-1,-4,4,3,-2,-3,-2,-1
1529313651089438,-1,-3,7,-1,-2,-6,-2,0
1529313651089438,2,3,1,-3,-2,-2,-2,0
1529313651089438,-11,-9,-5,1,0,-4,-3,-3
1529313651103404,-4,-7,-4,-3,-3,-3,-1,-1
1529313651103404,-2,-3,6,-2,-1,-3,0,-2
1529313651111789,3,1,4,3,2,-1,-1,0
1529313651111789,10,5,-12,-1,-2,0,-2,3
1529313651126752,0,0,3,-5,-5,1,-1,-2
1529313651126752,-5,-3,3,-2,-2,-1,-2,-2
1529313651127746,2,2,4,-1,-2,-2,-1,-2
1529313651127746,-3,2,1,2,2,0,0,2
1529313651148695,-3,-4,-2,1,-1,1,2,0
1529313651148695,-2,-4,-3,0,-2,-1,-2,-3
1529313651149689,4,0,-5,-3,-4,0,-2,-1
1529313651149689,3,10,2,-2,-1,-3,-1,-1
1529313651163654,-2,-9,1,2,1,0,-2,-2
1529313651163654,14,0,-4,0,-3,-2,0,10
1529313651171632,-20,-1,6,-2,-3,-5,-2,-13
1529313651171632,44,12,-3,1,1,1,0,9
1529313651186800,-37,0,5,-1,-2,-3,-5,-14
