timestamp,emg1,emg2,emg3,emg4,emg5,emg6,emg7,emg8
1528445736538974,0,0,-1,-2,-1,0,0,-2
1528445736538974,0,0,-1,-1,-2,0,-1,-1
1528445736556926,0,-1,1,-1,1,1,-1,-2
1528445736556926,-1,0,-2,1,0,0,1,-1
1528445736561913,-2,-2,1,0,1,0,-1,1
1528445736561913,-2,0,1,-1,-2,-1,0,0
1528445736568894,0,-1,-1,0,0,-1,-1,-1
1528445736568894,0,-1,0,-1,-2,-1,0,0
1528445736583855,0,0,0,-1,-1,0,-1,0
1528445736583855,0,-1,-1,-1,0,-2,-1,0
1528445736606793,-1,-2,-1,-1,-3,-2,-2,0
1528445736606793,0,-2,-2,-2,-1,-1,0,0
1528445736620755,-2,-3,-1,-2,0,0,1,0
1528445736620755,1,0,0,-3,-4,-8,-9,-4
1528445736635715,3,2,0,-1,1,3,6,4
1528445736635715,0,-3,0,0,0,1,1,-2
1528445736646686,1,1,1,3,5,8,8,4
1528445736646686,0,-1,0,-1,1,0,2,2
1528445736666632,2,2,3,3,3,3,13,7
1528445736666632,-3,-2,-7,-4,-5,7,6,0
1528445736681592,-5,-3,-3,-1,-9,-28,-22,-10
1528445736681592,-3,-1,-3,-2,-7,-21,-18,-9
1528445736688574,-2,-3,-5,-4,-7,-6,-10,-4
1528445736688574,-1,0,-1,-2,-1,-6,-5,0
1528445736704531,-3,-2,-1,1,-1,-4,-3,2
1528445736704531,1,1,0,-1,-1,8,4,-2
1528445736711513,-12,-1,0,-2,-4,-12,-15,-16
1528445736711513,8,4,4,4,10,19,16,11
1528445736726473,0,-1,-2,-5,-9,-21,-14,-3
1528445736726473,-6,-4,-8,1,3,3,-1,-6
1528445736741433,0,-2,2,-2,-10,-18,-3,-2
1528445736741433,-4,6,6,-2,7,12,0,-2
1528445736751406,-5,-2,-3,-2,-10,-2,-1,-2
1528445736751406,-2,-6,-4,-8,-3,1,-16,-13
1528445736763374,9,3,1,5,30,50,34,13
1528445736763374,3,-1,-6,1,-10,-4,7,7
1528445736771352,4,3,5,-3,-2,-14,5,5
1528445736771352,-4,-3,-2,3,-9,-13,2,6
1528445736786313,11,3,1,9,8,26,12,13
1528445736786313,-10,-8,-9,-21,-16,-22,-13,-5
1528445736801273,-2,-2,-9,-6,-6,-13,-3,-9
1528445736801273,-6,-2,-5,-4,-9,-14,-26,-11
1528445736808254,-1,-5,-1,3,-2,-11,8,-5
1528445736808254,1,0,3,2,16,14,10,10
1528445736823214,-2,2,-1,-5,-21,-26,-19,1
1528445736823214,3,-2,-1,2,13,34,39,16
1528445736831192,0,0,-2,-6,10,16,-11,-9
1528445736831192,3,3,4,13,5,17,23,9
1528445736861112,-5,-6,-11,-5,-4,-8,-19,-10
1528445736861112,-6,-3,-2,-3,-11,-11,-1,-9
1528445736869091,-4,-2,-2,-11,-12,-23,-16,-8
1528445736869091,-3,-3,-2,-4,2,-1,-6,-5
1528445736884051,-2,1,3,-1,-6,-18,-9,-4
1528445736884051,-5,-1,0,-4,11,32,18,-7
1528445736891033,2,2,1,-2,6,11,14,11
1528445736891033,0,2,0,3,10,26,24,6
1528445736899011,2,1,2,1,5,13,20,5
1528445736899011,-1,-2,-1,-2,-5,-12,-16,-11
1528445736914010,1,-1,-4,0,-1,-5,-12,-4
1528445736914010,-1,-2,-3,-2,-1,-5,-11,-4
1528445736920991,-2,0,1,3,-4,-9,-11,-2
1528445736920991,1,1,0,-1,-7,-10,-4,1
1528445736928931,-1,-2,0,-3,-5,-8,-7,-4
1528445736928931,-1,-3,-1,2,-6,-9,-7,-2
1528445736935939,0,-2,-4,-3,5,17,16,6
1528445736935939,2,4,1,9,-1,-5,3,4
1528445736958890,-3,-8,-7,-21,-9,-2,3,-2
1528445736958890,10,8,1,43,28,19,15,17
1528445736973837,-6,-4,6,11,3,-3,-7,-7
1528445736973837,2,10,4,-17,-14,-12,-8,-4
1528445736980834,-4,-11,-5,4,-1,-4,-12,-6
1528445736980834,-4,-3,-3,-31,-13,-10,-6,-3
1528445736995784,-4,-17,-11,-4,-5,-3,-6,-6
1528445736995784,-2,10,-1,7,-2,2,5,-5
1528445737003762,4,14,6,-2,1,3,7,7
1528445737003762,0,3,14,-20,-10,-10,-12,-4
1528445737010714,6,10,9,2,1,1,-1,1
1528445737010714,-2,-4,-26,-5,-9,-14,-17,-4
1528445737025723,5,8,-6,-25,-3,8,6,2
1528445737025723,6,24,-13,12,3,-3,-2,1
1528445737033688,-4,-35,-21,19,8,8,7,0
1528445737033688,1,1,-5,0,2,4,7,6
1528445737048661,-8,-1,15,-7,-9,-11,-11,0
1528445737048661,0,0,-10,15,10,4,-2,-7
1528445737056600,3,13,35,-2,-10,-7,-5,-3
1528445737056600,-2,-10,-37,-5,5,3,-3,-9
1528445737071551,7,1,-8,6,-2,0,0,9
1528445737071551,-5,-11,12,12,1,-2,-2,2
1528445737086544,4,11,11,3,1,0,1,1
1528445737086544,-4,-7,9,6,-3,-1,2,4
1528445737093538,-14,5,-6,8,3,-2,-9,-19
1528445737093538,9,8,-2,-10,-5,-5,-3,13
1528445737108452,6,0,-6,-15,4,7,9,-5
1528445737108452,-2,4,21,-4,-7,-2,3,18
1528445737116432,3,-10,-31,17,7,-1,-1,-5
1528445737116432,6,-1,15,-18,-4,-3,1,1
1528445737131392,-11,-2,-5,-4,-2,-8,2,-8
1528445737131392,8,7,9,10,18,38,33,16
1528445737146351,2,9,39,-16,-16,-11,-9,-7
1528445737146351,-3,-3,-15,7,-7,-25,-20,-13
1528445737153332,8,6,5,-15,19,30,25,26
1528445737153332,-8,-8,-15,19,-2,-9,-13,-15
1528445737168292,-13,-6,-2,3,-10,-21,-19,-16
1528445737168292,3,6,3,1,3,11,9,3
1528445737176270,4,5,4,-3,-14,-11,-11,-3
1528445737176270,-4,-6,-3,-6,11,15,7,-4
1528445737191266,3,-1,-12,18,8,20,11,-3
1528445737191266,-5,-6,-6,5,3,-3,-3,0
1528445737206229,2,-4,-5,9,-9,-11,-7,2
1528445737206229,-1,-8,-24,-25,5,14,0,-6
1528445737213172,-3,8,21,-3,7,-5,-2,-1
1528445737213172,-2,3,5,-19,-13,-5,-2,0
1528445737244089,4,-7,-40,19,4,-26,-10,0
1528445737244089,4,8,18,20,7,25,21,6
1528445737251072,-2,-2,-7,-15,8,9,-6,-6
1528445737251072,1,0,4,-26,-4,-10,-3,7
1528445737266225,-5,0,2,0,-20,-20,-21,-3
1528445737266225,3,2,2,32,16,7,3,-1
1528445737281187,4,1,-1,-32,-15,-1,3,3
1528445737281187,-5,-6,5,30,-3,1,4,-2
1528445737288151,0,5,-3,1,6,18,9,-1
1528445737288151,0,-3,-7,-4,-5,-9,-9,-2
1528445737296129,-5,-3,3,-11,-1,-4,-3,-7
1528445737296129,-10,-14,-1,0,-15,-26,-19,-14
1528445737311090,2,2,5,-23,-9,-12,-5,1
1528445737311090,1,4,3,-11,-11,-3,-2,-1
1528445737326566,1,-1,9,44,48,19,4,0
1528445737326566,3,-1,-7,-13,-17,-8,-1,5
1528445737333297,-4,-4,-4,-3,-7,-10,0,6
1528445737333297,-4,1,3,2,0,2,-1,-9
1528445737348291,3,-3,-8,-13,9,6,-2,2
1528445737348291,-1,1,0,-6,2,2,2,1
1528445737356234,1,0,5,21,6,2,3,0
1528445737356234,0,6,6,-22,-22,-6,-6,-3
1528445737371197,-3,1,-1,-22,-13,-7,-5,-1
1528445737371197,3,6,-4,8,5,0,-2,2
1528445737386192,0,1,11,-7,-5,3,4,0
1528445737386192,0,2,21,-26,-15,-6,-2,-2
1528445737394140,0,-9,-18,42,15,6,3,1
1528445737394140,-2,-13,-8,1,0,-1,2,4
1528445737409280,2,26,18,-43,-12,-2,-1,-1
1528445737409280,3,5,5,12,1,-4,0,1
1528445737416128,2,7,1,-30,-6,0,1,0
1528445737416128,0,-6,1,25,8,6,3,0
1528445737431351,-1,-1,11,4,1,3,1,-2
1528445737431351,-6,3,-2,-26,-2,-2,-3,-1
1528445737446047,-1,-5,5,4,-5,1,0,2
1528445737446047,0,1,-4,-8,1,-2,-1,-6
1528445737454028,-1,0,-9,15,2,0,-2,2
1528445737454028,-5,-3,-1,0,-3,-6,-5,-5
1528445737469417,-9,-2,23,-42,-17,-10,-13,-7
1528445737469417,-2,-22,-17,26,10,7,10,9
1528445737476779,7,20,10,11,3,5,6,2
1528445737476779,4,9,5,-19,-2,-3,-1,1
1528445737491597,-1,-6,-2,-21,-9,-5,-2,-1
1528445737491597,-1,-3,-15,7,2,0,-3,-9
1528445737498579,-2,-3,6,2,-2,-4,-4,-3
1528445737498579,-2,4,12,-3,0,-2,-3,1
1528445737513857,0,-12,-25,13,9,8,10,2
1528445737513857,-6,-2,1,-10,-9,-10,-9,-5
1528445737521839,-6,-7,-6,4,3,-3,-2,-5
1528445737521839,1,2,-4,1,2,5,6,-1
1528445737536849,-8,-5,-3,5,-6,-9,-8,-10
1528445737536849,0,-3,-10,13,10,14,7,5
1528445737543750,-6,-4,1,-3,-5,-12,-12,-4
1528445737543750,1,6,21,-4,-7,-2,4,1
1528445737566447,1,-6,-22,14,3,-3,-1,6
1528445737566447,-2,4,8,-7,-2,-5,1,-2
1528445737573430,-2,-3,-7,3,12,19,8,-5
1528445737573430,5,4,4,-8,-3,-5,-3,3
1528445737581734,1,-2,-6,3,6,15,9,3
1528445737581734,0,4,10,2,-7,-10,-7,0
1528445737597036,0,5,17,-6,-16,-30,-18,-7
1528445737597036,-2,-5,-1,2,-5,-5,-6,3
1528445737611993,2,4,7,-6,-7,-5,-3,7
1528445737611993,-3,-9,-17,7,18,20,5,-3
1528445737619048,0,-1,-7,2,-22,-41,-20,-4
1528445737619048,0,-2,-3,3,2,8,3,3
1528445737626900,-1,-2,-6,9,-1,-7,-14,-9
1528445737626900,0,4,7,-1,-15,-14,-5,0
1528445737640726,2,1,-9,11,7,5,8,4
1528445737640726,1,-1,-6,9,0,-7,0,0
1528445737656777,5,-3,-27,15,12,36,19,9
1528445737656777,-2,3,6,-2,-1,-10,-20,-9
1528445737664051,0,0,4,-17,9,7,10,1
1528445737664051,-2,-2,-5,-17,-26,0,0,-1
1528445737678891,0,-9,-43,20,24,7,15,5
1528445737678891,0,3,9,-26,-58,-70,-21,-6
1528445737686869,1,4,15,-13,-26,-10,0,2
1528445737686869,-2,-3,-2,-1,24,20,13,3
1528445737694540,-4,-2,-1,-2,-19,-31,-12,-5
1528445737694540,-3,1,-3,-8,1,17,8,-2
1528445737708466,-1,-1,9,4,1,1,-1,-6
1528445737708466,3,2,0,16,20,15,7,0
1528445737716443,0,2,4,-4,-10,-9,-7,-3
1528445737716443,2,-1,-2,-5,6,8,2,6
1528445737731704,-1,2,4,6,2,-8,-2,2
1528445737731704,-1,3,10,23,9,14,5,0
1528445737739420,-1,-2,-7,-4,-4,-6,-8,-5
1528445737739420,2,-1,-8,25,10,-4,-4,-1
1528445737746661,-6,3,26,-23,-15,-2,-1,-6
1528445737746661,3,-2,3,-9,15,17,16,9
1528445737753390,4,6,9,-5,-20,-4,1,3
1528445737753390,-2,-6,-20,-5,9,-4,-4,0
1528445737768304,-3,0,4,-7,-5,-7,-7,-4
1528445737768304,0,-5,-19,39,15,12,5,3
1528445737776281,-2,-6,-12,-33,6,0,-3,-3
1528445737776281,-7,-6,0,-6,-7,-4,-4,-8
1528445737791278,1,-1,-6,17,9,5,-1,-1
1528445737791278,6,1,5,-16,-4,6,5,4
1528445737798261,-8,2,-8,30,9,-3,-6,-4
1528445737798261,4,4,-9,-28,-9,2,4,3
1528445737806205,-4,-5,5,1,2,-1,0,0
1528445737806205,-3,-2,4,16,-7,-6,-4,-3
1528445737813235,5,30,17,14,1,-7,-4,-2
1528445737813235,-11,-57,2,-12,-9,-5,-5,-5
1528445737828195,11,12,1,13,11,8,8,9
1528445737828195,-6,5,15,-36,-11,-4,-4,-10
1528445737836176,-2,-13,-13,10,3,2,2,4
1528445737836176,-1,20,25,10,-4,-5,-6,-8
1528445737851135,-1,-8,-7,5,-2,1,1,3
1528445737851135,-7,-19,5,4,0,0,-3,0
1528445737859114,5,13,-13,-16,-7,-4,-4,-3
1528445737859114,6,8,9,13,4,1,3,4
1528445737866042,-10,-15,6,15,10,0,-1,1
1528445737866042,9,26,-18,-19,-8,-5,-4,-4
1528445737874021,-3,-11,4,8,10,6,6,1
1528445737874021,6,12,-9,-15,0,4,3,1
1528445737888981,-1,5,8,10,-4,-2,4,-2
1528445737888981,1,-3,14,8,2,1,0,3
1528445737895962,-1,-7,3,13,0,-2,0,-5
1528445737895962,5,8,1,-11,-1,1,2,9
1528445737918901,2,1,-4,-6,-1,-4,-3,0
1528445737918901,-2,-4,-18,-11,-6,-6,-7,-3
1528445737925882,-3,-7,-2,1,2,5,3,-5
1528445737925882,0,7,4,21,4,1,-1,-3
1528445737933861,-4,0,2,-10,-7,-5,-6,-6
1528445737933861,0,2,-4,-12,-6,-4,-4,-5
1528445737940842,0,-6,-3,-5,3,4,5,10
1528445737940842,-6,-8,-11,2,0,-1,0,-1
1528445737955802,-7,6,-3,-24,-7,-10,-13,-17
1528445737955802,4,2,7,-2,-2,2,5,7
1528445737970762,3,-9,-17,1,0,-1,3,12
1528445737970762,-4,0,-1,5,1,3,3,-2
1528445737985722,0,1,3,-5,-11,-12,-6,-6
1528445737985722,2,-2,-3,-3,10,15,10,0
1528445738001680,2,-3,-6,-4,-2,-7,1,6
1528445738001680,-5,6,18,-1,5,9,1,6
1528445738008661,2,-11,-21,5,3,3,3,0
1528445738008661,-5,-4,2,-2,-9,-11,-10,-7
1528445738023621,-2,-11,-14,-4,1,-5,-4,-3
1528445738023621,-4,-1,1,2,-7,-13,-13,-8
1528445738031600,2,7,24,-10,-18,-7,8,6
1528445738031600,1,4,11,-1,13,18,7,3
1528445738053541,1,6,17,-14,24,36,8,4
1528445738053541,2,-9,-22,13,7,-2,1,7
1528445738068539,-2,4,15,-6,-8,-4,-6,-4
1528445738068539,-2,1,8,6,-1,3,-4,-5
1528445738076747,-1,0,15,-15,-11,-24,-13,-2
1528445738076747,1,3,7,23,-14,14,18,5
1528445738091314,-3,3,20,-5,12,10,-1,-4
1528445738091314,-3,-5,5,12,-10,-14,-6,-1
1528445738099068,2,3,-13,-11,-12,-3,-2,0
1528445738099068,0,-3,-1,-19,25,14,4,2
1528445738106020,-1,-8,-20,2,0,3,-2,-2
1528445738106020,-6,-2,2,3,-1,-17,-13,-8
1528445738121223,0,-1,-3,-5,-8,-1,0,-1
1528445738121223,-1,1,7,-11,1,2,0,0
1528445738129203,0,-5,-9,6,11,4,6,4
1528445738129203,1,2,-3,-2,-9,3,3,3
1528445738144166,-6,-9,-16,4,2,-6,-13,-13
1528445738144166,1,0,-3,-1,7,8,5,3
1528445738151884,-6,-4,-1,3,-2,-6,-2,-4
1528445738151884,3,1,-7,1,-5,-11,-11,2
1528445738166183,-2,-5,-10,14,6,5,2,-2
1528445738166183,-4,-2,6,-7,-8,-9,-11,-7
1528445738181366,3,2,0,-8,-6,-3,-1,1
1528445738181366,-1,1,-1,-6,2,1,1,-1
1528445738189334,-4,-1,2,-8,4,2,1,-2
1528445738189334,-3,3,0,-10,-1,2,5,1
1528445738204303,2,-1,0,5,-1,0,1,1
1528445738204303,2,-3,-9,-6,0,7,7,3
1528445738211597,-4,-3,0,1,9,-1,-5,-4
1528445738211597,0,-5,-10,-5,-17,-6,-2,-5
1528445738226550,2,3,3,1,-1,-3,-2,-2
1528445738226550,-5,-2,2,-2,-2,-6,-5,-2
1528445738241846,-1,-2,-1,-2,1,0,-2,-2
1528445738241846,-1,1,3,1,-2,1,-1,-3
1528445738249072,3,-3,-14,6,3,3,7,10
1528445738249072,-3,-2,-1,5,6,2,3,-3
1528445738263833,1,0,1,1,0,2,1,3
1528445738263833,2,1,5,-3,1,-4,-3,0
1528445738270937,0,2,6,-1,-5,0,0,0
1528445738270937,-1,-1,-1,-1,-2,-3,-3,-2
1528445738287001,-1,8,9,0,-2,-1,-2,-2
1528445738287001,0,1,5,-4,-4,-4,-2,-1
1528445738300731,-3,-2,6,-3,1,-3,-2,-3
1528445738300731,0,-2,-9,6,3,2,4,2
1528445738309041,0,1,1,2,-4,-2,-2,-3
1528445738309041,1,1,3,-1,0,-2,-2,1
1528445738324122,-1,0,2,-2,-1,-1,-2,-4
1528445738324122,2,2,2,0,1,3,3,1
1528445738331373,1,0,-3,-1,-2,1,0,-1
1528445738331373,0,-3,-3,2,-1,-2,-1,-1
1528445738354282,2,7,3,-3,-1,0,-4,-2
1528445738354282,-4,-7,-1,-2,-2,-2,-2,-1
1528445738368699,0,-2,-3,0,0,1,2,1
1528445738368699,-2,3,6,0,-1,-4,-2,-2
1528445738376861,-1,-2,1,-2,0,-3,-1,-2
1528445738376861,-1,-1,-2,-1,0,-1,-1,0
1528445738391912,1,1,-2,-1,0,6,5,4
1528445738391912,-2,-2,-3,-1,0,0,0,0
1528445738405837,-2,-2,1,0,-3,1,1,1
1528445738405837,0,-2,2,0,-1,-2,-1,0
1528445738421019,0,5,0,2,-1,-3,-2,-1
1528445738421019,0,1,-2,-1,0,-3,-4,-2
1528445738429014,0,-2,-3,2,1,0,0,1
1528445738429014,-1,-1,-1,1,2,3,2,1
1528445738443980,-2,-4,-3,3,2,1,0,1
1528445738443980,0,2,2,-2,-1,-1,0,-1
1528445738451470,0,-3,-1,-2,-3,-2,-1,-2
1528445738451470,-2,-1,-3,-3,-2,-1,0,-1
1528445738466167,-1,2,-1,-1,-1,-2,-2,-1
1528445738466167,-2,-2,-4,0,-1,-1,-1,-1
1528445738481372,3,1,-2,-2,-1,-1,-1,1
1528445738481372,-4,4,3,-2,-2,-2,-1,-2
1528445738489106,-1,-2,-1,2,0,1,2,0
1528445738489106,3,0,1,2,4,4,3,3
1528445738503389,0,-3,1,1,2,2,2,-1
1528445738503389,1,-5,-3,1,-2,-1,0,-2
1528445738511557,1,1,4,0,0,-2,-1,1
1528445738511557,-3,-1,-11,-3,-2,-3,-3,-2
1528445738526419,0,0,2,-1,2,2,4,0
1528445738526419,0,4,28,-8,-6,-4,-4,-4
1528445738541644,-1,-2,-4,1,1,-1,0,1
1528445738541644,-3,2,-1,-1,-3,-2,-2,-2
1528445738548626,-1,-3,-2,-1,-1,-2,-4,-3
1528445738548626,-2,-4,-1,0,-2,-2,0,-2
1528445738563675,0,4,1,-2,-2,-3,-4,-3
1528445738563675,-2,-2,-1,0,0,-1,0,0
1528445738571655,0,1,-2,0,4,8,5,2
1528445738571655,0,-2,-5,0,2,3,0,0
1528445738586614,-14,-12,-5,-3,-4,-5,-5,-3
1528445738586614,-1,-4,-4,2,3,3,2,0
1528445738601574,-3,-1,2,-1,0,0,-1,-3
1528445738601574,2,6,8,-1,-1,0,1,1
1528445738609160,1,2,1,-1,-1,-1,0,-1
1528445738609160,3,-8,-10,-1,-2,-2,-2,-2
1528445738623808,-1,0,2,0,1,2,0,-1
1528445738623808,-4,-6,1,-1,1,-3,-3,0
1528445738630811,4,3,0,0,0,0,-1,2
1528445738630811,-1,3,-4,1,-2,-3,-2,1
1528445738646905,-1,0,-3,0,-1,-3,-2,0
1528445738646905,-1,2,0,0,0,0,-1,-1
1528445738661229,1,-1,-1,-1,2,1,1,-1
1528445738661229,-5,-2,-1,0,0,0,1,0
1528445738668947,1,-2,0,-2,-2,-2,-2,-2
1528445738668947,0,-2,-4,1,0,-1,0,-1
1528445738683822,-1,-5,7,-1,-2,0,2,1
1528445738683822,-3,5,-6,0,0,0,-3,-1
1528445738690801,0,1,5,0,-2,-1,-1,0
1528445738690801,3,6,2,0,-1,0,-1,1
1528445738706867,2,-2,-5,-2,-1,-1,-2,0
1528445738706867,-3,1,-1,-1,0,1,-1,0
1528445738721175,-3,-3,-4,-1,0,-2,0,-1
1528445738721175,1,16,-1,-1,-2,2,0,-2
1528445738729391,-4,-17,-3,-1,-1,0,-2,-2
1528445738729391,-2,0,2,0,-1,-1,-2,-1
1528445738743356,2,-2,-4,0,-1,0,-1,-2
1528445738743356,-1,-2,-5,-1,-3,-1,1,1
1528445738751338,-4,2,4,0,0,-1,0,0
1528445738751338,7,8,0,2,0,-2,0,1
1528445738766291,2,7,-2,-2,-1,1,0,1
1528445738766291,-2,-3,-2,-2,-1,1,-1,-1
1528445738781496,2,4,-1,-1,0,1,0,-1
1528445738781496,1,-9,1,-1,0,-1,1,2
1528445738789234,0,0,-2,-1,-2,0,0,-2
1528445738789234,-1,0,-2,-1,2,-2,1,0
1528445738804393,0,-1,0,0,0,-1,0,1
1528445738804393,-1,-3,0,-1,0,-1,1,2
1528445738811411,0,2,0,-1,-2,-1,0,-1
1528445738811411,-1,0,0,-1,-1,0,-2,-1
1528445738826393,1,2,-1,-2,1,-1,1,-1
1528445738826393,-2,-5,-1,0,-1,0,0,1
1528445738841351,0,-1,-2,-2,0,1,-1,0
1528445738841351,0,2,-1,1,-1,-1,-1,-1
1528445738848072,-1,0,-2,0,1,0,-1,-2
1528445738848072,-2,-4,-4,-1,-2,1,0,-2
1528445738863571,1,0,-1,-1,-1,-1,-2,0
1528445738863571,0,0,0,-1,-1,1,-1,-1
1528445738871543,0,-2,-3,-1,0,-1,-2,-1
1528445738871543,-2,-1,0,0,0,0,-1,-1
1528445738886272,2,-1,-2,-1,1,-1,0,-1
1528445738886272,-1,0,0,-3,1,0,1,-1
1528445738908202,-1,-2,-1,1,-2,0,-2,-1
1528445738908202,-1,0,0,-2,0,-2,0,0
1528445738916181,1,-1,-1,2,-1,-1,-2,0
1528445738916181,0,0,-1,-2,-1,0,0,1
1528445738931172,0,0,-1,0,0,0,-1,-2
1528445738931172,1,1,0,0,1,-1,1,0
1528445738939166,-1,-1,-1,0,-1,0,-1,-1
1528445738939166,-2,-1,-1,-1,0,-2,0,-1
1528445738954124,0,0,1,-1,-1,0,-1,0
1528445738954124,0,-2,-1,-2,0,-1,-2,-1
1528445738969039,0,-1,0,1,0,-1,-2,0
1528445738969039,-1,0,1,0,-1,-1,-2,-1
1528445738983999,0,-3,-1,0,0,-1,0,0
1528445738983999,0,-1,-1,0,-1,0,-2,-1
1528445738991007,-2,1,0,-1,-2,0,-1,-1
1528445738991007,0,-2,-1,0,0,-1,0,-1
1528445739006178,-1,0,-1,0,-1,1,-1,0
1528445739006178,-1,0,0,0,-2,0,-1,-1
1528445739021936,0,0,-1,0,-1,0,-1,0
1528445739021936,1,0,-2,0,-1,0,0,-1
1528445739029141,-2,0,0,-2,-2,-1,-1,0
1528445739029141,0,-2,-1,-1,-2,-1,-1,-1
1528445739044099,-1,-2,1,-1,0,0,-1,1
1528445739044099,-1,0,-1,0,0,0,-1,-1
1528445739051855,-1,-1,1,0,0,0,0,-1
1528445739051855,0,-1,-2,-2,-1,-1,0,1
1528445739065804,0,0,-4,1,0,0,0,-1
1528445739065804,-2,0,-1,0,0,-1,-1,-1
1528445739081789,0,-1,-1,0,-3,-2,0,-1
1528445739081789,0,-2,-1,0,0,0,0,0
1528445739088719,-1,-1,0,0,-1,-2,-1,-2
1528445739088719,0,-1,-1,-1,0,0,0,-1
1528445739103680,-3,0,-1,-2,-1,1,0,-2
1528445739103680,0,1,1,-1,-2,-1,0,0
1528445739111823,0,-1,-2,-1,0,-2,-1,-1
1528445739111823,0,0,-2,0,0,-1,0,-1
1528445739125911,-1,0,-2,-1,-1,-1,0,-2
1528445739125911,-2,-1,2,-1,-1,0,-1,0
1528445739141910,0,0,0,0,0,0,0,-1
1528445739141910,1,-1,-1,-1,-1,0,-1,0
1528445739148385,-1,-2,0,1,0,0,0,0
1528445739148385,0,-1,-2,-1,0,-1,-1,1
1528445739164401,-1,-1,-2,0,2,0,-1,0
1528445739164401,-1,-1,-1,-1,0,-1,-1,-2
1528445739171590,-2,-1,-1,-2,0,-2,-3,0
1528445739171590,0,-1,1,-2,-2,0,-1,-1
1528445739186556,-1,3,1,0,-1,0,-2,0
1528445739186556,-2,-1,-1,0,0,-2,0,1
1528445739200857,-1,-1,-1,-1,-1,-1,-1,-3
1528445739200857,1,-1,0,-1,0,-2,0,-2
1528445739209341,0,-1,0,0,0,0,1,-1
1528445739209341,0,0,-1,1,1,0,0,-2
1528445739224521,0,-1,-1,-2,-1,-2,0,-1
1528445739224521,-1,-2,-2,-1,1,-1,-1,0
1528445739231636,-1,-1,0,-1,1,-1,0,1
1528445739231636,0,0,0,-2,-1,0,-2,0
1528445739246287,1,-1,-2,-2,-2,-1,0,-1
1528445739246287,-1,0,-1,0,0,0,1,0
1528445739261591,-1,-1,-1,1,0,-2,-2,0
1528445739261591,1,1,0,0,0,-1,1,0
1528445739269043,0,-1,1,0,0,-1,0,-1
1528445739269043,0,-2,0,-1,0,0,0,-2
1528445739284390,0,-1,0,0,-1,-1,-1,-1
1528445739284390,-2,0,0,-1,-2,0,-1,-3
1528445739291815,-1,-1,-1,0,-1,-2,-1,0
1528445739291815,-1,0,-2,1,-2,-1,1,0
1528445739306732,0,-1,0,-2,0,0,0,0
1528445739306732,-3,-1,-1,-2,1,-1,-1,0
1528445739320920,-1,0,0,-2,-1,0,0,0
1528445739320920,0,1,0,0,-1,0,-1,-2
1528445739329221,-1,-2,-1,0,-1,-1,1,-1
1528445739329221,0,-1,-1,0,-1,0,-1,0
1528445739344170,-1,-1,-1,-1,-1,0,0,1
1528445739344170,-2,-2,3,-3,-2,0,1,-1
1528445739351944,-2,-1,-2,-1,-1,0,-1,-1
1528445739351944,1,0,1,-1,-1,-1,-2,-2
1528445739365872,1,0,-1,-1,-3,-1,0,0
1528445739365872,-1,-1,-1,-2,-1,-2,1,-1
1528445739389114,-1,-2,-1,-1,1,-2,-1,0
1528445739389114,-1,-2,-1,1,-4,0,0,-2
1528445739396927,0,-1,-2,-1,2,1,0,-1
1528445739396927,-1,-1,0,-1,-1,-1,0,0
1528445739411110,0,1,0,-2,-1,-1,0,-1
1528445739411110,-1,0,-1,1,1,0,0,-1
1528445739418965,-3,1,0,-1,-1,0,0,-2
1528445739418965,-1,-2,-1,1,-2,-2,0,-2
1528445739426848,0,0,2,-2,-1,-1,-2,-2
1528445739426848,-2,0,-2,-2,-1,-1,-1,0
1528445739441247,-1,-1,-1,-2,-1,0,-1,0
1528445739441247,-1,-1,-3,0,0,1,1,-1
1528445739448958,-1,-1,-2,0,0,-1,-2,-1
1528445739448958,0,-1,0,-4,-1,1,0,1
1528445739463935,-1,-1,0,-1,1,-1,-2,-3
1528445739463935,-1,-2,0,-2,-1,-1,0,-1
