timestamp,emg1,emg2,emg3,emg4,emg5,emg6,emg7,emg8
1528883636853969,-1,-1,-1,-2,0,-1,-1,-2
1528883636853969,0,1,-2,-1,1,-1,2,1
1528883636861946,-1,1,0,-2,0,0,0,-3
1528883636861946,0,0,-1,-1,-3,0,-1,-2
1528883636899844,0,-1,-1,0,-3,0,-2,-2
1528883636899844,0,-1,0,-1,-2,1,0,0
1528883636901839,0,-2,-1,-1,-3,0,1,-1
1528883636901839,1,0,0,1,-1,-1,1,0
1528883636901839,-1,0,-3,0,0,-2,-1,-1
1528883636901839,0,0,-1,-2,-2,-1,-1,-2
1528883636904847,0,-2,-1,1,0,-1,-2,-1
1528883636904847,0,0,0,-1,-2,0,-2,0
1528883636912810,0,-2,-1,1,-1,-1,1,1
1528883636912810,0,2,-2,1,0,-1,-2,0
1528883636918812,0,-1,-1,0,-1,0,-1,-1
1528883636918812,-1,0,-1,0,1,0,-1,-2
1528883636928766,-2,-1,-1,-2,3,-2,-1,-1
1528883636928766,-3,-1,-1,-1,1,-3,-1,0
1528883636941732,-2,1,-1,0,-1,-1,0,0
1528883636941732,-2,-3,-2,0,0,0,0,-1
1528883636950709,0,0,0,-1,-4,0,0,1
1528883636950709,-1,1,-1,0,-1,0,0,-1
1528883636957691,0,0,-1,1,-1,-3,-1,0
1528883636957691,-2,0,0,0,-1,-1,-1,0
1528883636971653,0,-1,1,0,1,-1,-2,-1
1528883636971653,0,-1,1,0,0,0,-1,1
1528883636979631,-1,-1,0,0,0,0,-1,-1
1528883636979631,0,0,-1,-1,-1,-1,0,1
1528883636988608,-2,1,0,-2,0,-2,-1,-2
1528883636988608,0,-1,0,1,1,0,-1,0
1528883637001607,-2,1,-2,0,1,0,-1,-3
1528883637001607,-1,0,0,-1,-4,-2,-1,-1
1528883637011559,0,0,-2,0,2,0,0,0
1528883637011559,-1,0,-1,0,1,-1,-2,-2
1528883637016533,0,-1,-1,-2,-1,1,0,0
1528883637016533,-1,-1,-1,-1,0,-2,0,-1
1528883637031525,0,0,-1,-2,-3,-1,0,-1
1528883637031525,0,-2,-1,-3,-3,-1,0,-2
1528883637039472,1,-1,0,-2,2,0,-1,-1
1528883637039472,0,0,-1,0,1,-2,-1,1
1528883637048447,-1,0,1,0,1,-1,0,2
1528883637048447,-2,0,-2,-1,0,0,-3,-4
1528883637061412,0,-1,-2,0,-1,0,-1,0
1528883637061412,0,-1,-2,0,0,1,0,1
1528883637070389,-1,-1,-3,1,-1,-2,-3,-1
1528883637070389,0,-1,-1,0,0,-2,-1,-1
1528883637076409,-1,1,-1,0,-2,-2,-2,-1
1528883637076409,-2,-2,1,0,-2,-1,-1,-2
1528883637091373,-1,-1,-2,-1,0,2,3,3
1528883637091373,0,-1,-1,0,-1,-1,-1,-4
1528883637099331,0,-1,-2,-1,-1,-1,0,-1
1528883637099331,1,-1,-1,-1,-3,-2,-1,1
1528883637108288,-1,2,0,1,0,0,-2,-1
1528883637108288,-1,0,-2,1,-1,-1,0,3
1528883637122250,0,0,0,-1,0,1,-1,1
1528883637122250,0,-2,-2,0,-1,-1,-1,0
1528883637131256,0,-1,0,-1,-3,2,0,0
1528883637131256,-1,-1,1,-3,1,1,-4,-5
1528883637137209,0,-1,0,-1,-3,-2,2,-3
1528883637137209,-1,0,-2,-1,-2,1,1,-1
1528883637152206,0,-1,0,0,0,-2,0,-4
1528883637152206,1,-1,-1,1,3,-2,1,2
1528883637159165,-3,-1,-1,0,0,-3,-1,0
1528883637159165,0,-1,-1,0,2,-1,-1,-3
1528883637168129,-2,0,-1,-1,0,-1,-2,-1
1528883637168129,0,0,-2,-1,-3,-2,-1,-2
1528883637182091,2,1,2,-1,-3,-2,-1,3
1528883637182091,-1,2,-2,0,-1,1,-1,-2
1528883637191103,-1,-4,0,-1,-2,1,-1,-1
1528883637191103,2,5,-1,-2,1,-1,0,2
1528883637204061,-1,-1,-1,-2,1,0,-1,-2
1528883637204061,-1,-2,0,-1,-1,-1,1,2
1528883637213009,2,0,-2,0,0,-2,-1,-3
1528883637213009,-3,-3,-1,1,-3,2,2,0
1528883637218991,0,0,0,2,0,-3,-2,2
1528883637218991,2,2,1,0,1,-3,-5,-2
1528883637227968,0,1,-1,-1,-1,0,1,-1
1528883637227968,-1,-1,0,-1,-2,0,0,0
1528883637241961,-4,-1,-2,-3,-1,-1,1,-2
1528883637241961,-2,-1,-1,-2,1,-1,0,1
1528883637250907,1,-2,0,-2,-1,-1,0,0
1528883637250907,1,-4,1,0,-2,0,-2,-2
1528883637263911,0,-1,0,-1,-3,1,0,-1
1528883637263911,0,1,-1,0,-2,0,0,-3
1528883637272848,-2,2,1,0,0,-1,-5,-3
1528883637272848,-1,-2,-2,-2,0,-2,1,3
1528883637278833,-2,0,0,1,1,0,-1,-4
1528883637278833,-2,-1,-2,1,0,1,0,1
1528883637287834,0,0,-1,-1,-1,-1,0,1
1528883637287834,0,-1,-1,-1,0,0,-2,1
1528883637301772,1,-1,0,-2,-1,-1,-3,0
1528883637301772,-4,-2,0,1,1,0,-2,-8
1528883637310747,0,-2,0,2,0,-1,2,5
1528883637310747,-2,0,1,0,-1,-2,0,7
1528883637324711,1,1,-2,-1,-1,-1,-2,-6
1528883637324711,-2,1,-1,-2,-3,-3,-7,-6
1528883637333721,-1,-2,0,-2,-1,1,2,1
1528883637333721,-1,-2,-2,0,-1,-1,-1,-5
1528883637339669,1,-3,-1,-1,-1,-3,-1,2
1528883637339669,2,0,0,-1,-1,-2,1,1
1528883637348646,-3,0,-2,-1,-1,0,-1,-1
1528883637348646,-1,1,0,-2,-2,2,0,0
1528883637361610,1,0,0,1,-2,-1,3,1
1528883637361610,2,1,0,1,-3,2,2,0
1528883637370586,1,0,-3,-1,-1,-4,-1,-2
1528883637370586,-1,1,-1,-1,1,0,1,-1
1528883637384548,-4,1,-1,-2,1,0,-1,0
1528883637384548,0,-4,0,-3,1,-1,1,1
1528883637393525,0,0,0,0,1,-1,-1,-2
1528883637393525,-2,-2,-3,-1,0,-1,0,-2
1528883637399510,-2,-1,-1,-1,0,-2,1,1
1528883637399510,0,1,-1,0,0,-3,0,0
1528883637408486,-2,-2,0,1,-1,1,1,0
1528883637408486,2,0,-2,0,-2,-4,-1,0
1528883637421450,1,-3,0,1,-1,1,-3,-1
1528883637421450,0,-3,-3,-2,2,0,-1,-5
1528883637430426,-2,-3,-1,-1,-3,-1,1,7
1528883637430426,1,1,2,-1,-1,0,0,0
1528883637444396,0,0,-2,-2,-1,-2,-3,-7
1528883637444396,0,1,0,0,-2,0,-1,-5
1528883637453366,-1,-1,-1,0,-1,-1,-2,1
1528883637453366,-2,-1,-2,1,1,0,1,3
1528883637459385,0,0,1,0,0,0,-1,-1
1528883637459385,1,-3,0,-3,1,3,2,6
1528883637468326,1,-2,1,-2,1,0,1,-4
1528883637468326,-2,-3,-2,-1,-2,-1,-1,0
1528883637482291,1,-2,-2,-1,0,0,2,3
1528883637482291,-1,3,-1,0,-2,-2,1,0
1528883637491264,1,1,-4,-2,0,1,-2,0
1528883637491264,-1,-1,1,-2,0,-2,-3,-8
1528883637504229,-1,-4,-1,0,-1,-1,-1,0
1528883637504229,-1,0,0,0,-2,-1,-1,3
1528883637513205,-1,-1,0,0,1,-1,-2,-5
1528883637513205,1,-6,-3,0,-1,0,0,2
1528883637519189,-2,8,-2,-1,1,0,0,-1
1528883637519189,1,-2,0,1,-1,1,2,6
1528883637534149,1,0,-1,0,-1,-1,-2,-5
1528883637534149,1,1,0,-1,0,-1,-2,-1
1528883637542127,-2,-6,0,-1,-1,0,1,1
1528883637542127,0,-1,0,0,-2,0,0,-3
1528883637551105,-3,1,-2,-2,0,2,2,10
1528883637551105,-1,-1,0,-1,-3,-1,-5,-13
1528883637564120,0,2,0,2,2,0,0,0
1528883637564120,-2,0,-1,-2,-1,-1,-2,-1
1528883637573045,0,-2,0,0,-1,-1,0,-1
1528883637573045,0,0,-1,0,1,-2,2,6
1528883637579054,1,1,0,-1,2,0,-2,-3
1528883637579054,-1,-3,-2,-1,1,-1,-3,0
1528883637594045,-1,-2,1,1,0,0,-1,-3
1528883637594045,0,-1,0,-1,-2,0,2,8
1528883637601968,0,0,-1,0,-4,-2,-4,-11
1528883637601968,-1,0,-2,-2,0,0,0,3
1528883637610944,1,0,0,0,-3,-1,-5,-6
1528883637610944,-1,-3,-2,-1,0,0,2,0
1528883637623943,1,0,-1,0,1,0,1,6
1528883637623943,0,1,-2,-1,-1,-1,-2,-2
1528883637632885,0,0,-2,1,0,-2,-1,0
1528883637632885,0,-2,-1,0,1,1,-1,-1
1528883637638869,-3,-3,-2,-2,-2,0,1,2
1528883637638869,3,-2,-2,-1,-3,-1,0,0
1528883637653881,0,6,1,-1,-1,-1,0,0
1528883637653881,-1,2,0,-1,1,0,0,-2
1528883637661860,1,-1,-1,0,0,1,1,4
1528883637661860,1,-4,2,1,0,1,0,-1
1528883637670783,-3,-1,-2,-1,-1,-1,0,-2
1528883637670783,-3,-1,1,-1,-2,-2,0,1
1528883637684801,-1,-1,-2,-2,0,-4,-4,-5
1528883637684801,-2,-2,-1,-2,1,-1,-1,-1
1528883637691784,2,1,-1,-1,0,-1,0,-3
1528883637691784,-2,1,0,-1,-3,0,1,2
1528883637699715,2,0,0,-1,-2,0,0,-1
1528883637699715,3,-2,-2,0,0,-1,0,6
1528883637714667,-5,-1,0,0,-1,-1,-3,-9
1528883637714667,-1,1,-1,1,-1,-1,-2,0
1528883637721701,1,0,-1,-1,-1,-1,-1,1
1528883637721701,-2,0,0,-1,0,-1,-1,-1
1528883637730625,1,-2,0,-2,-1,-2,0,1
1528883637730625,0,0,0,1,1,1,-1,-2
1528883637744640,0,-5,-2,-1,-1,0,0,1
1528883637744640,-4,3,-1,0,-1,-3,-1,-4
1528883637751568,-1,-3,-2,0,0,0,1,7
1528883637751568,0,-2,-3,-1,-1,-2,-6,-7
1528883637759546,-1,-3,-1,-2,0,0,0,1
1528883637759546,-2,2,0,-2,1,-2,-1,-1
1528883637774927,1,4,0,0,-2,-1,2,1
1528883637774927,1,0,1,1,-1,-1,-1,0
1528883637782112,-2,-1,-1,0,-1,-1,-2,0
1528883637782112,-3,-4,-2,0,-2,-2,0,0
1528883637790828,3,-3,-1,-2,-2,0,-2,2
1528883637790828,-4,2,1,-3,-1,1,-1,-6
1528883637805735,-2,-3,-3,-1,-2,2,0,0
1528883637805735,2,4,3,0,-1,2,-2,-2
1528883637812285,1,-1,1,1,2,2,2,-1
1528883637812285,1,2,0,1,0,-1,1,-1
1528883637819256,0,1,-1,0,1,0,1,-2
1528883637819256,-3,-3,-2,-2,1,-1,0,-3
1528883637834530,-1,-6,-3,-1,-2,-3,-2,-3
1528883637834530,-1,-3,-1,0,1,-1,0,-1
1528883637842705,-2,-1,-1,0,-1,0,-1,-1
1528883637842705,-2,-3,-5,-2,-3,-1,0,-3
1528883637851215,-4,1,-2,2,2,-2,-4,-5
1528883637851215,5,6,19,17,2,0,1,1
1528883637864181,4,5,2,-6,-3,-2,0,1
1528883637864181,-1,6,11,4,7,-5,-2,-1
1528883637873199,-1,-5,-5,-5,-31,-1,9,6
1528883637873199,-4,-10,-21,-13,10,1,-5,-1
1528883637888131,-2,3,2,14,8,13,3,1
1528883637888131,-2,-4,-4,-15,-23,-28,-12,-4
1528883637894339,-4,-5,-5,-7,0,-5,-4,-7
1528883637894339,1,-2,-5,7,-12,0,6,1
1528883637911271,2,-7,-11,5,14,-1,-3,0
1528883637911271,4,9,22,21,12,9,2,3
1528883637912095,-1,-2,-20,-40,9,6,0,-2
1528883637912095,-1,5,18,3,-6,-3,-8,-5
1528883637924063,-9,-6,2,9,-3,-5,1,-5
1528883637924063,5,-2,-24,0,0,6,13,8
1528883637933052,-1,-4,-4,3,10,-2,4,6
1528883637933052,-1,1,13,5,-13,-2,-2,2
1528883637947767,1,-1,-21,-38,2,-9,-8,-4
1528883637947767,0,-1,9,-4,-3,8,-2,-3
1528883637954320,2,10,20,4,-3,0,2,1
1528883637954320,-1,-7,-15,15,9,-1,-4,-1
1528883637970949,-5,-10,-12,9,-1,-4,5,-1
1528883637970949,0,-3,3,-8,-3,7,1,-2
1528883637971936,1,1,-6,-8,7,-6,-10,-7
1528883637971936,-6,-12,-24,-17,-11,-2,2,1
1528883637983942,5,-4,-22,2,1,5,10,8
1528883637983942,1,0,5,4,1,-1,-4,-1
1528883637993887,2,27,58,25,12,7,-6,-1
1528883637993887,-1,-1,1,4,3,-5,1,-1
1528883638007840,-2,8,17,3,0,-3,-3,0
1528883638007840,-1,-24,-42,-11,-1,-1,-6,0
1528883638014412,2,4,-5,16,2,4,8,0
1528883638014412,-3,-2,-7,-8,-2,-3,-8,-4
1528883638031295,1,-3,-3,-16,-16,-6,-4,-1
1528883638031295,3,13,4,0,15,6,4,2
1528883638032093,-1,5,38,17,6,0,0,2
1528883638032093,1,0,-5,1,8,3,7,3
1528883638045125,-2,1,14,16,-14,-11,-9,-8
1528883638045125,-12,-13,-10,3,3,-5,-6,-9
1528883638053168,-3,-10,-25,-17,-10,-5,-1,1
1528883638053168,0,-1,-4,-3,-4,0,1,2
1528883638068185,3,0,5,11,24,2,0,0
1528883638068185,3,13,-2,-19,-16,-2,-4,-1
1528883638075074,-2,-6,-11,4,-8,-1,2,-1
1528883638075074,2,7,18,-7,-8,-1,-1,0
1528883638090744,0,-2,3,1,-4,-3,-6,0
1528883638090744,-2,-10,-14,-4,-2,-3,4,0
1528883638092499,1,-10,-9,0,5,2,1,-1
1528883638092499,6,12,4,0,2,-1,2,1
1528883638104467,0,10,9,-5,-2,6,1,-1
1528883638104467,-5,-3,11,2,-5,-5,-2,0
1528883638119427,2,-3,-3,4,1,-1,0,2
1528883638119427,-1,-6,-11,-6,0,0,5,-1
1528883638127646,-1,2,1,-5,-6,0,-3,-2
1528883638127646,2,7,16,16,16,1,3,-1
1528883638134607,1,-1,-8,-16,-15,-3,-5,0
1528883638134607,-1,-6,-5,4,-2,0,-2,-1
1528883638158701,2,2,-10,-6,12,8,10,3
1528883638158701,3,4,12,15,2,-1,-4,1
1528883638160330,-1,-6,-15,-21,12,7,2,1
1528883638160330,2,8,17,12,3,-2,-5,1
1528883638164346,-1,0,8,2,-9,-5,3,-3
1528883638164346,-2,-4,-4,-8,-1,-2,-6,-2
1528883638173284,-7,-4,-12,-2,-10,-6,-8,-2
1528883638173284,-8,-10,-12,-15,-2,4,2,-8
1528883638187252,-5,-13,3,5,5,5,5,12
1528883638187252,12,18,3,10,3,-1,-1,-2
1528883638194261,5,11,0,-1,-16,-3,1,-4
1528883638194261,3,7,6,-2,1,-4,0,-1
1528883638210464,-3,-3,3,2,-12,-5,-7,-5
1528883638210464,-6,-10,-1,-3,4,0,2,0
1528883638212461,-4,-10,-9,5,5,-4,-6,-2
1528883638212461,1,-1,-4,-1,9,1,-1,0
1528883638225113,1,1,9,0,-3,-3,-1,-3
1528883638225113,-1,-2,0,1,-2,2,2,0
1528883638233273,2,1,8,11,11,1,2,0
1528883638233273,-6,-4,-10,-4,-9,-6,-5,-2
1528883638247061,6,7,-2,-19,1,2,1,3
1528883638247061,0,7,2,5,1,-3,3,1
1528883638255066,-7,-2,10,6,0,15,7,-1
1528883638255066,3,-4,0,1,-1,-1,4,6
1528883638271417,-3,-1,-10,-2,-5,-8,-12,-9
1528883638271417,-2,-8,-9,-7,-5,-2,-3,-2
1528883638272360,2,3,-5,0,0,-6,-1,2
1528883638272360,-2,-1,10,10,8,-3,1,1
1528883638284565,1,1,3,6,3,3,-2,1
1528883638284565,-4,-3,-1,-2,-1,1,0,-10
1528883638293311,2,-2,-5,1,-3,-4,2,9
1528883638293311,-3,-2,-7,-13,-7,-4,-4,-4
1528883638316359,0,1,2,0,1,1,1,1
1528883638316359,-3,-3,-2,-2,-2,5,-3,0
1528883638317239,0,0,2,1,-13,-14,-7,-6
1528883638317239,1,3,4,0,-2,5,6,4
1528883638331240,-5,-7,-6,8,5,-6,-11,-4
1528883638331240,0,0,0,-10,10,13,14,7
1528883638332199,1,-1,3,13,3,-1,0,-5
1528883638332199,4,4,-6,-20,-11,-7,-5,4
1528883638344416,-1,1,5,7,-9,-3,2,-3
1528883638344416,-3,-1,-7,0,-6,-7,-9,0
1528883638353186,-1,-8,-9,-9,6,4,-3,-5
1528883638353186,2,12,22,17,11,1,0,0
1528883638367519,2,-4,-3,-15,-8,9,4,1
1528883638367519,-2,-3,-2,-7,-20,-15,1,2
1528883638374489,-4,-3,-2,5,-3,1,-2,-11
1528883638374489,1,-7,-14,-8,8,9,10,10
1528883638390641,-5,-6,-3,0,-2,-17,-7,-3
1528883638390641,2,8,-2,-5,-8,5,-6,-2
1528883638392391,-1,2,-6,-3,6,-2,6,5
1528883638392391,0,2,5,-2,-15,-1,-7,-9
1528883638404386,5,9,14,18,2,1,1,2
1528883638404386,-3,-10,-2,-11,18,2,3,-2
1528883638413334,-2,-3,-3,-5,-9,5,0,6
1528883638413334,-3,-6,-19,-18,-4,1,-7,-7
1528883638427553,5,9,26,21,5,1,2,3
1528883638427553,1,1,0,-4,2,0,3,6
1528883638434539,-3,3,9,15,12,-3,-6,-4
1528883638434539,-4,-3,-7,-14,-22,-7,-7,-10
1528883638450763,-4,-8,-21,-24,9,4,1,5
1528883638450763,-2,-7,3,4,-10,0,-2,0
1528883638456796,-1,-4,-10,-12,9,-1,-4,-5
1528883638456796,3,3,8,9,-2,-3,-1,2
1528883638464509,1,6,7,-1,1,3,3,-3
1528883638464509,4,1,-8,-21,-13,-5,3,1
1528883638473483,-4,-3,-8,16,14,7,-10,-2
1528883638473483,-11,-25,-7,-23,-26,-17,-8,-4
1528883638487450,9,18,0,1,-1,3,11,2
1528883638487450,1,2,6,15,4,-13,2,0
1528883638494666,0,0,-3,-12,-11,12,0,-2
1528883638494666,2,8,1,16,12,3,-3,-1
1528883638510648,-5,-14,-11,-17,12,4,4,1
1528883638510648,-2,-3,6,8,-2,3,-4,-4
1528883638517017,1,5,5,6,-5,-9,6,3
1528883638517017,-5,-10,-2,3,13,8,3,1
1528883638524925,-2,0,-3,-5,-11,-7,-8,4
1528883638524925,2,5,0,20,20,3,-4,-1
1528883638533142,-1,-4,1,-19,10,1,4,0
1528883638533142,3,7,17,17,1,8,8,3
1528883638547789,-3,-3,-13,-15,3,5,0,-4
1528883638547789,-3,-1,-2,-2,-3,-3,-3,0
1528883638554680,5,0,0,-1,-10,-1,1,3
1528883638554680,-4,-4,-16,-3,1,0,3,-6
1528883638570379,0,0,7,8,0,-1,-5,-3
1528883638570379,-2,-1,6,7,2,3,0,-1
1528883638576355,-3,-1,0,-5,-6,-8,-4,-1
1528883638576355,1,3,3,2,9,-1,-4,-1
1528883638584380,-3,-6,-9,2,6,8,5,0
1528883638584380,1,-3,0,0,-23,-11,-2,-1
1528883638593309,3,7,8,4,5,2,0,-2
1528883638593309,0,-3,-11,-20,-5,-4,4,4
1528883638607915,0,1,11,24,-1,-7,-6,-3
1528883638607915,-3,-5,-12,-22,-14,0,0,-4
1528883638614674,0,-3,-1,-1,3,-3,-2,2
1528883638614674,-1,2,4,1,3,4,-1,-2
1528883638630681,-3,-4,-1,0,-7,-1,-3,-3
1528883638630681,-1,1,-1,-3,10,2,-10,-5
1528883638637056,-1,-3,7,8,-5,-6,3,1
1528883638637056,4,1,-2,-4,4,7,9,7
1528883638653885,-3,-1,-11,-4,-10,-8,-1,-4
1528883638653885,-2,3,-2,-2,2,2,1,-1
1528883638654769,0,-1,-8,-6,0,2,-3,8
1528883638654769,-2,-3,-1,7,-7,-6,-7,-9
1528883638668014,2,-3,1,-5,-4,0,-1,1
1528883638668014,1,-1,0,1,0,3,0,-6
1528883638674997,-4,-6,-5,7,8,-5,0,10
1528883638674997,4,5,-3,-13,-15,-4,-3,-2
1528883638690366,-3,-5,-13,-6,-10,-8,-1,-2
1528883638690366,4,3,9,5,7,9,13,8
1528883638697512,1,1,1,-2,1,-2,-20,-10
1528883638697512,-6,-5,-4,19,18,3,-2,0
1528883638713488,3,2,9,-13,-15,-6,-4,0
1528883638713488,-4,-4,-7,-2,2,1,0,2
1528883638715084,-2,3,7,8,0,-2,4,-2
1528883638715084,0,-1,-2,-5,-5,-5,-6,1
1528883638727397,-2,0,-2,3,4,-1,-1,-4
1528883638727397,-1,-1,3,-2,-11,-3,5,0
1528883638735932,4,3,5,1,9,7,-9,-5
1528883638735932,1,-9,-4,-4,-1,-7,1,10
1528883638749785,-11,-15,-4,5,1,1,1,-11
1528883638749785,1,13,-8,-14,-19,-10,-8,-2
1528883638757111,-4,-5,-5,-6,-10,-4,1,-16
1528883638757111,6,10,10,13,17,5,2,13
1528883638773890,3,0,0,-4,1,-1,3,2
1528883638773890,-5,-11,-3,4,-10,-3,-1,-4
1528883638774746,-4,-5,-5,-15,-14,0,11,4
1528883638774746,-1,-2,0,4,3,0,-5,-15
1528883638787686,5,6,0,2,-3,1,0,5
1528883638787686,0,-2,-8,-12,7,4,1,1
1528883638794670,1,1,-4,-1,-6,-6,1,0
1528883638794670,-1,3,8,5,0,-2,-3,0
1528883638809628,0,3,5,8,4,-4,-3,2
1528883638809628,1,-6,-2,-2,6,4,3,-1
1528883638816608,0,-3,-4,8,-1,0,2,0
1528883638816608,0,6,-7,-27,0,5,0,-3
1528883638833622,3,-5,-16,-16,-7,-5,-1,8
1528883638833622,-10,-8,8,16,6,-12,-7,-22
1528883638834562,11,9,10,1,2,15,8,16
1528883638834562,-2,3,4,4,2,2,-5,-7
1528883638847583,-1,1,-3,9,18,6,4,0
1528883638847583,1,-1,2,-5,-25,-4,1,5
1528883638854508,-1,-4,-6,0,21,10,8,0
1528883638854508,-3,-7,-3,-3,-7,-11,-5,-2
1528883638869513,0,4,-2,-3,5,1,-2,0
1528883638869513,-1,-2,-6,5,-7,0,-7,0
1528883638876506,-2,-1,-6,-7,-16,-12,-6,-4
1528883638876506,0,-1,12,5,1,2,4,3
1528883638893459,-4,-2,-1,1,-9,-2,5,-5
1528883638893459,5,5,8,4,15,-1,4,6
1528883638894461,-3,-5,-4,-12,-6,3,-2,1
1528883638894461,-3,-5,-10,3,1,-2,-1,-3
1528883638907421,-3,1,-2,1,0,-3,-6,-5
1528883638907421,3,2,2,7,16,5,4,4
1528883638914374,-3,1,7,-10,-16,-5,-4,-3
1528883638914374,2,-3,1,4,-8,-3,1,-1
1528883638938317,2,6,9,12,-1,2,0,0
1528883638938317,-2,-3,-11,-14,11,3,-2,1
1528883638939315,-4,-8,-3,8,5,-3,-2,1
1528883638939315,4,13,2,1,-2,-1,-3,-7
1528883638953298,1,-3,-7,-12,-8,8,12,0
1528883638953298,2,2,1,6,-2,-7,-12,-1
1528883638955265,2,3,7,8,1,-7,-3,-4
1528883638955265,-3,-4,-2,-8,4,1,3,2
1528883638967207,1,-3,8,5,6,-1,-4,2
1528883638967207,2,-1,-5,-8,-5,-1,3,-1
1528883638976183,-1,1,-1,10,4,-1,5,2
1528883638976183,-2,-7,-7,-16,-14,-4,-1,-3
1528883638990198,1,4,0,-5,2,3,-3,-2
1528883638990198,-2,-3,3,7,-5,-4,-1,1
1528883638997136,-2,1,-2,-6,-8,-1,-3,-2
1528883638997136,-4,0,-3,7,2,0,4,1
1528883639013136,-3,-3,4,7,1,0,-5,-3
1528883639013136,-1,-1,-1,-4,2,0,-4,0
1528883639015079,-2,-3,-3,-1,-3,-4,-2,-3
1528883639015079,-1,-1,3,12,0,-1,1,-1
1528883639027104,1,2,4,-17,4,2,0,0
1528883639027104,0,3,3,9,5,2,4,2
1528883639036023,-2,-2,-4,-7,-5,-4,0,-4
1528883639036023,3,6,5,7,6,3,0,0
1528883639050040,-3,-3,-6,5,-3,-3,-4,-2
1528883639050040,-2,0,-2,-18,-12,0,1,0
1528883639057021,-2,-1,0,8,6,1,-3,0
1528883639057021,-2,-4,-4,-6,-3,-2,1,1
1528883639072979,-1,-3,-4,-2,-4,-2,-6,-1
1528883639072979,-1,0,-1,1,-1,-2,-5,-5
1528883639074935,-2,2,-2,0,-2,2,-1,-2
1528883639074935,0,-2,-1,1,1,0,1,1
1528883639087939,1,-1,-1,-1,-1,-4,-1,-3
1528883639087939,-1,2,2,10,2,1,1,1
1528883639093923,2,2,2,-2,5,0,-1,1
1528883639093923,-3,0,-1,-5,-4,-4,-3,-1
1528883639110172,0,0,1,-3,-9,-2,1,0
1528883639110172,-2,-1,-1,0,6,1,-2,-1
1528883639117438,-1,0,-2,-16,-3,-1,0,-3
1528883639117438,-1,-1,0,6,-3,0,4,-2
1528883639133373,-2,-3,-5,-2,-2,-2,-2,0
1528883639133373,-1,-3,-2,1,0,-2,0,-1
1528883639135108,2,2,4,0,-4,-3,-3,1
1528883639135108,2,-2,2,9,11,2,0,1
1528883639147338,-1,-1,-2,-12,-9,0,1,0
1528883639147338,-2,-1,-4,-5,0,-1,0,-2
1528883639155732,-2,-2,6,6,-4,-3,1,0
1528883639155732,-2,-1,-1,-3,-2,0,-4,0
1528883639170420,1,-1,2,3,4,1,0,1
1528883639170420,0,0,1,3,-3,1,-1,0
1528883639177656,-2,1,-4,-3,-1,0,0,-1
1528883639177656,1,-1,-4,-4,-3,-1,-2,-2
1528883639193113,0,0,0,3,0,-2,0,-3
1528883639193113,0,0,0,-1,-1,0,1,0
1528883639195111,-2,-3,-5,-2,-3,-1,-1,-2
1528883639195111,-1,-1,0,-2,3,-1,0,0
1528883639207082,1,-1,-2,2,0,-1,-1,-1
1528883639207082,-1,-1,1,2,3,3,-1,-1
1528883639216056,0,-4,-2,0,0,2,4,-2
1528883639216056,-1,0,-1,0,-2,-2,-3,2
1528883639230280,-1,-1,-2,-4,-3,0,-3,1
1528883639230280,-1,0,-1,-1,-1,0,0,1
1528883639237523,-1,-1,-2,-1,-3,-3,-1,-3
1528883639237523,1,0,2,3,5,4,2,-2
1528883639253852,-3,-2,-1,1,0,-5,-2,-1
1528883639253852,2,-1,-3,0,-1,-1,-2,-4
1528883639254754,-1,-1,-4,-4,-5,-3,-1,1
1528883639254754,-2,0,-2,-3,-2,-2,-4,-3
1528883639266987,0,1,0,3,2,0,-1,0
1528883639266987,-2,1,-1,4,4,-2,2,-1
1528883639275769,0,1,2,0,-1,-2,-1,-2
1528883639275769,1,0,1,2,0,0,-3,1
1528883639290496,-2,-3,0,-3,-3,-2,-1,1
1528883639290496,-2,-3,0,-1,0,-1,-1,1
1528883639297479,3,2,1,0,2,0,-1,1
1528883639297479,-2,-2,-3,0,0,-2,0,-1
1528883639313181,-1,1,-4,-5,-3,0,-1,-1
1528883639313181,-1,-2,-3,-2,-3,1,1,0
1528883639314172,-1,-1,0,3,1,0,1,-1
1528883639314172,0,-2,-1,-3,-3,0,3,0
1528883639327133,-1,1,4,4,1,1,0,-1
1528883639327133,-1,0,-1,-4,0,0,-1,0
1528883639336399,-1,-2,-3,-3,-1,-1,-1,1
1528883639336399,-1,-2,-2,-2,-2,-1,-1,-1
1528883639350666,1,0,-4,-1,0,3,5,1
1528883639350666,2,3,9,5,1,1,-2,-1
1528883639357346,0,0,0,2,-3,-2,1,1
1528883639357346,-3,-3,-5,-5,-3,-2,-2,-3
1528883639373369,-2,-4,-4,-6,-1,-3,2,2
1528883639373369,-2,-2,-5,-1,3,4,1,0
1528883639375367,0,0,0,-3,0,-2,-2,1
1528883639375367,1,4,3,5,5,1,-9,-5
1528883639395648,-1,0,-1,0,-1,3,-1,0
1528883639395648,-2,-3,-3,-2,-7,-3,1,-2
1528883639395648,0,-1,-1,3,0,-5,-2,1
1528883639395648,-1,2,2,3,5,3,1,0
1528883639411269,2,1,1,-2,1,-2,0,-2
1528883639411269,-1,1,1,1,4,-1,-2,-1
1528883639417478,1,0,-3,-7,-5,0,-2,-3
1528883639417478,1,0,-3,-3,-5,-2,1,4
1528883639431546,2,2,2,6,8,2,-9,-3
1528883639431546,1,2,0,-4,-6,-2,-1,1
1528883639439919,-1,-1,0,0,17,4,-1,0
