timestamp,emg1,emg2,emg3,emg4,emg5,emg6,emg7,emg8
1529305651708878,-1,-1,-1,0,0,-1,0,-2
1529305651708878,-1,-1,0,-2,-1,0,1,0
1529305651709875,0,0,0,-1,-2,-1,-1,0
1529305651709875,-1,0,-1,0,-2,-2,-1,0
1529305651710873,-4,-2,-1,-1,0,-2,0,-2
1529305651710873,1,0,0,-2,-1,-1,-1,-2
1529305651711871,-1,0,0,0,-2,0,-1,0
1529305651711871,0,-2,-1,-3,0,0,2,0
1529305651723837,1,-1,0,1,0,-1,-3,0
1529305651723837,-2,-2,-2,0,0,0,-1,-1
1529305651731816,-2,-3,-1,-1,0,0,-2,0
1529305651731816,-2,-2,-1,0,-1,-1,-3,0
1529305651738798,2,0,-1,0,-2,0,2,0
1529305651738798,-1,0,-1,-2,0,2,0,-2
1529305651752760,-1,0,-1,0,0,0,1,-1
1529305651752760,0,0,0,-1,-1,-2,-1,-1
1529305651762734,-2,-3,0,-1,0,1,-1,-1
1529305651762734,-1,-1,0,1,0,-3,1,2
1529305651766727,-2,-1,0,-1,0,0,-2,0
1529305651766727,0,-1,-1,0,0,0,-4,-2
1529305651782681,1,1,-2,-1,-1,-1,-1,1
1529305651782681,1,1,0,1,0,1,2,1
1529305651790660,0,-2,-2,-1,-1,-2,-2,-1
1529305651790660,1,-2,-1,-1,-1,-1,-1,0
1529305651830565,0,-1,-1,0,-1,0,-1,-2
1529305651830565,-1,-1,-1,0,0,0,-1,-3
1529305651831550,-1,-1,-1,0,-1,-1,0,-1
1529305651831550,1,-1,-1,0,-1,1,-1,-2
1529305651832547,0,-1,-2,0,0,-1,0,0
1529305651832547,-1,0,-2,-1,-1,-1,-2,-1
1529305651835539,0,-2,0,0,0,-2,0,-1
1529305651835539,1,-1,0,1,-2,-2,0,2
1529305651842520,0,-1,-2,-1,-1,-1,-2,1
1529305651842520,-1,0,-1,-1,-1,0,0,1
1529305651849501,-1,0,0,-1,-1,0,1,0
1529305651849501,0,-1,-1,-1,-1,-2,-1,-2
1529305651858477,0,0,-1,-1,-1,-1,-3,-2
1529305651858477,-2,-2,1,1,1,-2,0,0
1529305651873437,1,-1,-1,0,-1,0,-1,-1
1529305651873437,-1,0,-1,-1,1,-1,-1,-3
1529305651879421,0,-1,0,-1,-1,0,-1,0
1529305651879421,-2,0,-1,-2,-1,-2,-2,0
1529305651887400,0,0,-3,0,1,1,-2,-3
1529305651887400,1,0,0,0,-1,1,1,1
1529305651902363,1,0,1,1,0,-2,0,0
1529305651902363,0,-1,-2,-1,-1,0,-1,0
1529305651909348,-1,-1,-3,-2,0,-1,-2,-1
1529305651909348,-3,0,-3,2,0,0,2,-1
1529305651918317,-2,1,0,-3,0,-3,-2,-2
1529305651918317,3,0,-4,-10,-3,-1,5,2
1529305651933278,1,0,2,3,-1,-1,1,0
1529305651933278,-2,-1,-2,-1,-1,-1,-2,-1
1529305651939276,-2,-1,0,2,1,1,0,1
1529305651939276,-1,-1,0,-1,-1,-2,-2,-2
1529305651947240,-1,-3,-3,-5,-2,0,-3,-1
1529305651947240,0,-2,0,0,0,0,0,0
1529305651962200,0,1,-1,-2,-1,1,1,0
1529305651962200,1,-1,-1,1,-1,-2,-2,1
1529305651969182,-2,-1,0,-3,-3,-3,-2,-1
1529305651969182,-1,1,-1,0,-2,0,-3,-1
1529305651978158,-1,-1,-2,1,0,-1,0,0
1529305651978158,0,-1,1,3,1,0,-2,-3
1529305651993117,0,-1,-1,2,0,-1,1,0
1529305651993117,1,-1,1,-2,0,0,0,-1
1529305652000103,-1,-1,-3,-8,-3,-1,0,-1
1529305652000103,-1,2,-1,2,0,1,0,-1
1529305652007081,-1,0,-2,-2,-1,-2,0,0
1529305652007081,0,0,-1,0,0,-2,1,-1
1529305652022040,0,-2,0,0,0,0,-1,2
1529305652022040,-1,0,3,0,1,-1,-2,0
1529305652029021,0,1,0,-2,1,1,-2,1
1529305652029021,-1,-1,-2,-2,-1,0,0,0
1529305652038996,0,1,1,1,0,-1,-2,-2
1529305652038996,1,0,1,1,0,0,2,-2
1529305652052958,-1,0,-1,-1,1,0,0,-1
1529305652052958,0,-2,-2,-5,-1,1,1,1
1529305652059940,-1,-1,4,6,1,-2,-2,-2
1529305652059940,-3,-1,0,0,-3,-2,-3,-2
1529305652066921,-1,0,1,0,-2,0,0,-1
1529305652066921,-1,-1,-1,-1,-1,0,0,0
1529305652081880,1,0,-3,-4,-1,1,1,0
1529305652081880,1,0,0,-1,1,0,-1,1
1529305652089859,-2,1,0,2,-1,-2,-3,-1
1529305652089859,-1,-1,-1,-7,-2,-1,-2,1
1529305652098835,-1,0,-2,0,-1,-2,-1,-1
1529305652098835,-1,0,2,3,1,-1,0,-1
1529305652112797,-1,-2,-2,-4,-1,-1,2,-1
1529305652112797,0,0,0,-1,-1,-1,-2,0
1529305652119779,0,0,-1,-2,-2,-2,-1,-1
1529305652119779,-1,-3,-2,-2,-1,1,-2,0
1529305652126761,0,0,-1,-2,1,0,-1,1
1529305652126761,-2,-1,0,0,0,-2,0,-2
1529305652141720,-1,-1,2,1,0,-1,-1,0
1529305652141720,1,1,0,-1,0,1,5,2
1529305652149699,0,-1,1,3,0,-1,0,0
1529305652149699,1,-2,-1,-1,0,-2,-2,-1
1529305652158675,0,1,0,-4,-1,0,-2,1
1529305652158675,-1,-2,-2,0,0,-3,-4,-2
1529305652172638,1,-2,-1,-2,-2,-2,-1,-1
1529305652172638,-1,0,1,3,0,-1,-1,2
1529305652179626,1,-1,-1,0,-2,-2,0,-2
1529305652179626,0,-1,-2,-2,-1,1,2,0
1529305652195576,0,3,-1,-2,0,1,-2,-2
1529305652195576,-2,0,-2,-2,0,0,0,-3
1529305652201561,-1,-3,0,2,1,0,-1,0
1529305652201561,-2,-1,1,-2,0,-3,-1,1
1529305652209539,-1,-2,-1,-3,-3,0,0,0
1529305652209539,0,2,1,2,0,0,-1,-2
1529305652218515,0,-1,-2,-2,1,1,2,2
1529305652218515,0,-1,-2,-2,-2,-1,-1,-1
1529305652232478,-2,0,0,4,1,-1,0,2
1529305652232478,1,-1,-1,-2,-1,0,-3,-2
1529305652239459,-2,1,-2,-4,-1,0,0,-1
1529305652239459,-1,-1,1,2,1,0,0,-1
1529305652255416,0,-1,-1,-2,0,-1,1,-2
1529305652255416,1,0,-1,2,0,-2,-3,-1
1529305652262398,-1,-2,-1,-3,-2,1,-1,-1
1529305652262398,-1,-1,-1,-3,-1,-1,-1,0
1529305652269391,-2,-1,0,-1,-1,-1,-1,-1
1529305652269391,0,-1,0,1,0,1,2,1
1529305652278357,-1,0,-1,-1,-1,-1,-3,-2
1529305652278357,-1,0,-4,-5,-1,-1,-1,-2
1529305652292318,0,1,5,7,0,-2,0,-1
1529305652292318,0,0,0,1,2,-2,1,2
1529305652299301,0,0,4,2,-1,-1,0,-1
1529305652299301,1,-2,-3,-1,-1,-2,-5,0
1529305652315256,-1,-2,-3,-3,0,0,-2,-1
1529305652315256,-3,-3,-1,2,-1,0,-3,-2
1529305652322237,-2,1,-4,-6,-3,-2,2,-1
1529305652322237,-1,1,7,7,-1,-1,2,1
1529305652329219,1,1,-3,-6,-3,-2,-1,0
1529305652329219,-1,-2,-1,0,-1,0,1,-1
1529305652338195,-1,0,-2,0,0,0,-1,-1
1529305652338195,-1,1,-3,-4,0,-1,-1,-1
1529305652353155,0,0,0,0,0,1,0,0
1529305652353155,-1,0,1,-1,-2,-1,2,0
1529305652359139,0,-1,-3,0,-1,-2,-4,-1
1529305652359139,-1,1,-3,-4,-1,-1,2,0
1529305652375097,0,-3,0,0,1,0,-1,0
1529305652375097,0,0,-2,-3,-1,-1,-1,-1
1529305652382077,-2,-3,-1,0,-1,0,0,-3
1529305652382077,0,0,1,2,-1,-2,-2,0
1529305652389059,-2,-1,-1,-2,-1,-1,1,1
1529305652389059,1,-1,2,2,1,-1,1,0
1529305652398034,-1,-1,1,0,-1,-2,-1,0
1529305652398034,0,0,-1,-1,-1,0,-5,-3
1529305652412996,0,-1,-2,-1,-1,2,3,-2
1529305652412996,-1,0,-1,-2,0,-1,-2,-3
1529305652419976,0,0,-2,-1,-1,0,2,3
1529305652419976,0,0,0,2,0,-1,-2,0
1529305652434936,1,-1,-1,0,-1,-2,-2,1
1529305652434936,-1,0,-1,-3,-2,1,1,1
1529305652441918,-1,-2,-1,-2,0,0,0,-1
1529305652441918,-1,-2,-2,-1,-2,0,-2,-1
1529305652449900,-1,0,0,-4,0,-1,-3,-1
1529305652449900,-1,0,1,6,2,-1,0,-1
1529305652458873,0,1,1,1,2,1,2,1
1529305652458873,1,-1,-2,-3,-1,0,3,0
1529305652472836,-1,-1,-2,-1,-2,1,-1,-1
1529305652472836,-2,-1,-2,-1,-2,-3,-4,-2
1529305652479818,0,0,-1,-2,-1,-2,-3,-2
1529305652479818,0,-1,-1,0,0,1,-1,2
1529305652495931,-1,-1,0,0,-1,-1,-2,-1
1529305652495931,-1,-1,-1,-2,-1,0,2,2
1529305652501972,-2,0,1,2,0,0,0,-1
1529305652501972,1,-2,1,3,3,0,1,-2
1529305652509899,-1,-1,0,-2,0,-1,0,-1
1529305652509899,0,-2,-1,0,-2,-1,0,-1
1529305652524857,-1,-3,-1,-2,0,-2,-4,-3
1529305652524857,0,0,-1,-3,-1,-1,0,-1
1529305652532836,-1,1,1,1,1,2,0,-1
1529305652532836,0,1,-2,-1,0,-3,-3,-3
1529305652540047,0,0,-4,-5,0,0,2,0
1529305652540047,-2,-1,0,6,0,1,-2,0
1529305652555885,0,-1,1,2,-2,1,1,1
1529305652555885,1,-1,0,-4,-2,1,2,1
1529305652561956,0,0,-5,-2,-2,0,-3,-1
1529305652561956,-1,2,6,4,0,-2,-1,0
1529305652569737,0,1,-1,-2,0,0,-2,1
1529305652569737,-4,-2,0,-1,-1,-1,-4,-2
1529305652584812,0,-1,2,4,-1,-1,0,0
1529305652584812,0,-2,-3,-4,-2,0,3,-1
1529305652593037,-1,-2,0,1,-1,-3,-1,-2
1529305652593037,-1,-1,-2,-1,-1,-1,0,0
1529305652599174,0,-1,-1,-1,-1,-3,0,1
1529305652599174,-2,-3,-2,-3,-1,1,-1,-1
1529305652615578,3,1,0,2,1,-2,2,0
1529305652615578,-1,-1,0,-1,-1,-2,-6,-2
1529305652622146,-2,0,-1,-1,-2,0,-1,-2
1529305652622146,0,-1,1,-2,-2,-1,0,-2
1529305652629094,-3,-2,-4,-2,-1,0,-2,-4
1529305652629094,2,0,1,0,1,2,6,1
1529305652644337,1,1,1,2,-2,0,2,2
1529305652644337,0,0,2,-1,-3,-1,-2,0
1529305652652817,-2,-2,-4,0,-1,-1,0,0
1529305652652817,2,1,0,0,0,0,1,-1
1529305652659564,-2,-1,-2,-1,-1,-2,-2,-1
1529305652659564,0,-1,-3,-3,-2,0,-2,-2
1529305652675999,1,0,1,5,-2,-2,-1,-1
1529305652675999,0,0,-1,-1,1,0,0,0
1529305652682036,-2,0,2,2,1,-1,0,-2
1529305652682036,1,-1,-5,-3,-2,-2,0,0
1529305652690041,0,-1,-1,-3,0,0,0,-1
1529305652690041,-2,-3,-2,-1,-2,-1,-2,0
1529305652705225,0,0,-1,0,-1,-2,1,1
1529305652705225,1,-1,-6,-3,0,0,-1,-1
1529305652712020,-1,-1,-2,-2,0,-1,-1,0
1529305652712020,0,0,3,-5,-3,-1,-1,1
1529305652721006,1,2,0,5,1,0,-4,-1
1529305652721006,-3,2,4,3,2,-1,0,-1
1529305652734958,0,2,3,1,1,0,1,0
1529305652734958,2,0,-5,-3,-1,0,-2,0
1529305652741973,-5,-5,-5,-3,-2,0,-2,-3
1529305652741973,-3,-14,-14,-4,-1,-2,1,-1
1529305652749936,-1,8,16,7,5,-1,0,2
1529305652749936,1,10,3,1,-4,-1,1,1
1529305652764924,1,-6,-1,-2,1,0,1,1
1529305652764924,2,4,10,8,1,0,0,1
1529305652771859,0,-4,-7,-5,0,1,2,-1
1529305652771859,-3,-6,-6,0,2,0,-2,-4
1529305652780835,-2,-13,-18,-6,-2,-3,-3,-3
1529305652780835,-3,0,9,-3,-2,-2,-3,-2
1529305652794832,2,3,2,0,-4,-1,1,2
1529305652794832,-5,-2,-3,-4,-2,-3,-5,-4
1529305652803810,2,3,-5,-6,-1,1,3,2
1529305652803810,1,4,5,-3,2,1,0,1
1529305652817789,-1,-1,12,6,1,1,-1,0
1529305652817789,0,-12,-30,-5,-2,-2,0,-1
1529305652824719,-7,-17,-13,-9,-3,-2,-1,-1
1529305652824719,0,4,19,1,0,1,1,0
1529305652840676,5,19,13,3,2,1,-2,0
1529305652840676,11,33,36,23,18,5,4,4
1529305652842671,-6,-8,-13,-15,-9,-1,-2,-1
1529305652842671,-4,-10,-23,0,-5,0,-4,-2
1529305652854639,-6,-15,10,0,-7,0,6,-1
1529305652854639,-9,-22,-27,-9,-5,0,-2,-4
1529305652863614,4,18,30,3,1,-3,-2,-2
1529305652863614,-2,-2,-21,-5,0,-2,-2,-1
1529305652877576,-4,-19,-30,-11,-1,-4,-5,-3
1529305652877576,0,2,25,3,-3,-1,-1,-2
1529305652884558,1,3,-15,-5,0,1,-1,0
1529305652884558,-4,-21,-38,-18,-5,-1,0,-2
1529305652900515,0,16,40,21,3,0,-1,-2
1529305652900515,7,8,11,9,8,4,4,6
1529305652902510,8,26,25,2,0,2,1,2
1529305652902510,-3,-25,-32,-6,-4,-3,-2,-2
1529305652914486,-7,0,-8,-12,-7,-4,-4,-4
1529305652914486,2,-4,19,5,-2,-2,1,2
1529305652923454,4,23,23,22,3,-1,0,0
1529305652923454,7,20,7,-2,0,2,0,3
1529305652937472,-7,-35,-56,-20,-3,0,0,0
1529305652937472,-7,-3,15,-7,-8,-6,-7,-5
1529305652944452,1,-11,-16,4,8,-1,0,0
1529305652944452,-2,0,-11,2,-4,-3,-1,-3
1529305652960410,3,18,47,15,0,-1,-2,-1
1529305652960410,3,1,-11,3,0,6,5,5
1529305652962379,-6,-26,-37,-28,-8,0,0,-3
1529305652962379,0,3,12,11,6,-1,1,1
1529305652974374,3,7,7,2,4,0,-2,1
1529305652974374,2,9,4,-3,1,3,3,1
1529305652983301,0,13,34,22,4,-1,-2,1
1529305652983301,1,12,16,2,0,1,0,-2
1529305652997311,4,-1,-18,7,1,-2,-2,0
1529305652997311,-6,-20,-45,-17,-4,-6,-4,-3
1529305653004293,-3,-32,-27,-17,-5,-1,0,0
1529305653004293,-2,19,37,8,3,-1,-3,0
1529305653021247,7,11,9,-6,4,3,2,4
1529305653021247,-6,-14,-31,-15,-6,-3,-3,-3
1529305653022190,0,5,15,18,2,1,-1,0
1529305653022190,-1,-7,-3,-3,-5,-1,4,2
1529305653034211,-1,4,1,-1,2,0,-3,-1
1529305653034211,2,2,8,9,0,-3,-1,1
1529305653043135,4,16,8,-5,3,2,2,2
1529305653043135,-1,-1,-7,-9,-2,-3,-3,-2
1529305653058346,-7,-22,-34,-1,-8,-2,-3,-4
1529305653058346,0,8,17,-9,-9,-3,0,-2
1529305653065268,-2,-5,-6,6,2,-3,-1,-1
1529305653065268,4,7,14,8,7,5,2,1
1529305653081295,-3,-13,-29,-16,1,-1,0,-1
1529305653081295,-1,4,31,20,-2,-4,-2,-2
1529305653082290,3,11,11,-10,-8,-2,-1,-1
1529305653082290,-5,-5,-3,-3,-1,-4,-2,-2
1529305653095237,-7,-26,-31,-14,-6,-2,0,-2
1529305653095237,2,25,23,18,13,1,-3,0
1529305653103972,1,4,9,0,4,2,2,2
1529305653103972,0,1,-6,-5,-4,0,-2,0
1529305653118942,-2,0,-5,-13,-13,-3,-3,-2
1529305653118942,-3,-11,-16,-4,2,1,0,1
1529305653125962,-7,-12,-2,8,-2,-5,-6,-3
1529305653125962,1,1,0,-6,1,-1,-4,0
1529305653141177,2,6,11,7,3,-2,-2,-1
1529305653141177,0,-2,-8,-1,0,-2,2,1
1529305653142483,0,-2,0,8,2,-1,-3,-2
1529305653142483,0,-4,1,-4,2,-1,1,0
1529305653154694,-1,9,13,11,-2,-1,-2,-2
1529305653154694,-4,-5,-8,-9,-13,-4,-2,-3
1529305653163552,-2,-1,0,-4,0,-1,1,-1
1529305653163552,-2,5,16,12,2,1,0,-1
1529305653177455,0,-3,-6,-5,0,-2,-2,1
1529305653177455,-2,-10,-16,-4,6,0,2,1
1529305653184437,3,7,6,-5,-5,1,3,1
1529305653184437,-2,-4,-10,1,-1,-2,-4,-1
1529305653201503,-2,2,6,7,9,3,0,1
1529305653201503,-1,0,-2,-7,-1,1,-2,0
1529305653202388,-3,-3,-4,3,-5,-2,-2,0
1529305653202388,0,-4,1,9,12,1,0,-2
1529305653214596,3,7,5,-7,-3,3,1,0
1529305653214596,0,-1,-1,-5,-5,-2,-2,0
1529305653223619,1,-2,-2,3,3,-2,-4,-2
1529305653223619,-3,-5,-3,-4,-9,1,3,1
1529305653237583,0,2,-1,9,4,-1,2,3
1529305653237583,-1,-2,1,6,7,2,3,-1
1529305653244817,-1,-3,-4,-10,-18,0,0,-1
1529305653244817,1,-4,-4,-6,-5,0,-2,0
1529305653260839,0,4,5,-4,4,-4,-1,1
1529305653260839,-3,-5,-7,-4,-2,6,0,1
1529305653262795,-3,1,-4,2,6,-1,-2,-4
1529305653262795,-1,-2,3,-4,-6,-2,-2,-2
1529305653275025,1,1,6,5,-3,-2,-2,-3
1529305653275025,1,0,0,6,9,0,-1,-1
1529305653283738,0,-2,-3,-12,0,0,3,3
1529305653283738,-1,0,-1,-3,-9,-3,-1,-1
1529305653298009,-2,3,3,-1,0,1,2,0
1529305653298009,-1,-5,-2,-1,-3,-4,-3,0
1529305653305231,-1,-4,-3,7,8,1,-3,-1
1529305653305231,0,0,-3,-2,0,-2,-3,0
1529305653321507,0,-4,-7,-4,-3,0,0,0
1529305653321507,2,5,3,-2,-2,0,0,0
1529305653323238,1,0,2,6,-1,1,5,6
1529305653323238,-3,-1,-2,8,18,1,-13,-13
1529305653334531,1,3,8,-1,-11,1,0,1
1529305653334531,-2,0,-2,-6,-9,-3,-3,-4
1529305653343523,1,0,-2,-3,-2,1,-2,2
1529305653343523,2,1,7,15,8,-2,5,3
1529305653357882,-1,0,-7,-3,6,1,0,-1
1529305653357882,2,-1,4,-1,-5,-1,2,0
1529305653364825,-1,0,0,-2,-6,-4,-2,6
1529305653364825,-3,-5,-7,-7,-7,-6,0,-11
1529305653381202,0,-1,-1,-1,10,3,-4,-1
1529305653381202,0,4,2,7,-7,-7,-2,0
1529305653382854,-3,-3,-3,-1,1,0,-1,-5
1529305653382854,0,2,3,2,7,0,7,6
1529305653394823,0,-2,-2,-6,-12,-3,-4,-15
1529305653394823,-2,-3,-6,-3,8,-4,3,9
1529305653403798,4,3,0,4,6,8,-3,-3
1529305653403798,0,2,2,-11,-13,1,3,5
1529305653417393,0,0,4,2,1,-1,-2,2
1529305653417393,-3,-5,-3,8,6,-2,0,-4
1529305653426117,0,1,-5,-9,-4,-1,-6,-7
1529305653426117,-1,2,1,2,-1,-1,1,5
1529305653440009,3,5,11,0,-6,-4,-3,-1
1529305653440009,-1,0,-3,-3,0,3,3,2
1529305653446990,-2,-4,-3,0,2,-1,2,2
1529305653446990,-1,-3,-7,-7,-5,1,-5,-2
1529305653455252,0,2,6,9,5,-2,1,1
1529305653455252,-1,-1,-8,-9,-2,1,-3,-3
1529305653463502,-3,-3,0,-1,1,-3,-3,-2
1529305653463502,1,2,12,8,-4,2,1,-1
1529305653478418,-2,-4,-11,4,11,5,3,3
1529305653478418,2,5,12,-5,-5,-3,-4,-1
1529305653485261,-3,-2,-7,-8,-4,-4,-3,-3
1529305653485261,1,-4,-10,-6,-2,2,3,4
1529305653500155,-1,-4,-5,3,-3,0,-2,2
1529305653500155,-1,2,3,6,6,3,0,-3
1529305653507379,0,-2,-4,-1,-1,-4,2,1
1529305653507379,-1,2,3,1,0,-2,-3,0
1529305653523343,0,-2,-3,-6,-4,0,2,0
1529305653523343,5,-2,-8,4,2,0,-6,0
1529305653524271,-3,-1,-1,-6,-7,-2,-2,-2
1529305653524271,-5,0,3,4,-3,-4,-4,-3
1529305653538344,-1,-1,2,5,-2,-1,2,-1
1529305653538344,-2,-6,-11,-16,-6,0,0,-2
1529305653544591,1,2,6,4,6,-1,1,-1
1529305653544591,2,-1,-3,0,0,-1,-1,-1
1529305653559933,0,1,-4,-7,-5,-2,0,1
1529305653559933,-3,-3,3,4,2,-1,-1,-2
1529305653567977,-2,-2,4,3,-4,-4,-1,-3
1529305653567977,-1,1,6,1,2,0,1,-1
1529305653582431,-1,-1,-3,-1,-3,-3,-2,0
1529305653582431,-2,-2,-4,-8,-5,2,3,1
1529305653583415,-1,1,11,7,4,1,0,0
1529305653583415,-2,-6,-14,-8,-5,-2,0,0
1529305653598795,1,3,11,10,2,-1,-1,2
1529305653598795,-1,-1,-2,-1,2,1,-1,-2
1529305653605116,-4,-7,-10,-3,11,-4,-1,-1
1529305653605116,3,4,6,-3,-17,-2,1,0
1529305653620120,-2,-4,-9,-8,-3,-4,-4,-1
1529305653620120,-1,4,8,5,2,0,-2,-2
1529305653627132,1,4,4,2,-3,0,4,2
1529305653627132,-3,-4,-4,-6,8,6,1,1
1529305653643037,-5,-3,-5,12,5,-2,-1,-2
1529305653643037,-1,-3,-5,-15,-11,-1,-3,-2
1529305653643673,3,1,-2,0,-4,2,4,2
1529305653643673,1,2,2,-1,0,-2,-2,-1
1529305653658186,-2,-3,-7,-5,-1,4,-2,-5
1529305653658186,-2,-2,-1,-3,-1,-3,1,1
1529305653664735,0,0,-3,0,-5,1,2,1
1529305653664735,-1,-3,-6,0,5,0,1,2
1529305653679855,2,1,9,5,1,-4,-1,0
1529305653679855,-2,-2,-5,-2,-1,-2,-1,-2
1529305653687766,0,-1,-3,-5,-1,0,-5,-2
1529305653687766,1,2,3,-1,-4,0,0,-1
1529305653703353,0,-2,-5,-2,0,2,1,0
1529305653703353,1,1,3,2,-3,0,-1,-1
1529305653703353,-3,-2,0,3,-1,0,3,3
1529305653703353,-3,-2,-4,0,2,-1,-16,-11
1529305653725932,2,1,2,-1,2,4,3,0
1529305653725932,-3,-2,-5,-8,-11,-3,-4,-3
1529305653725932,-3,-4,-6,-3,-1,2,1,0
1529305653725932,0,0,-4,0,0,-2,2,4
1529305653739528,-3,-1,2,-3,0,2,0,1
1529305653739528,0,1,3,8,5,-2,0,0
1529305653747738,1,1,2,2,1,-4,-3,-3
1529305653747738,2,-2,-3,0,-2,-1,3,0
1529305653763229,0,0,-3,-6,-1,-3,-3,1
1529305653763229,1,-1,0,4,3,1,3,-1
1529305653763850,0,-4,-8,-1,1,0,-2,-1
1529305653763850,-1,0,2,-1,0,2,3,1
1529305653778857,0,-2,1,-2,-1,-3,0,0
1529305653778857,-1,-2,-3,-1,-3,-1,-2,0
1529305653784812,-1,0,-1,1,4,0,-4,-4
1529305653784812,1,-1,-3,-7,-4,-3,1,0
1529305653800053,-4,-3,-4,-1,-4,-3,-2,-3
1529305653800053,1,1,0,0,1,2,-3,-1
1529305653807276,0,0,-1,-1,-5,-1,-4,0
1529305653807276,-3,0,2,-1,0,1,5,2
1529305653823230,1,-3,-8,-8,-10,0,6,9
1529305653823230,-2,0,5,7,12,0,-15,-14
1529305653824167,1,1,1,-1,-10,-1,3,0
1529305653824167,1,1,1,4,1,2,0,0
1529305653838432,-2,0,0,-4,1,-2,-1,0
1529305653838432,0,1,4,3,-8,-3,4,2
1529305653844657,0,0,-1,-2,6,2,-3,0
1529305653844657,-3,-1,-3,1,3,-4,-3,-2
1529305653859413,1,-2,-3,-5,-2,-1,-1,-3
1529305653859413,-1,-3,-10,-5,1,-1,5,2
1529305653867360,2,8,18,8,10,0,-4,-2
1529305653867360,0,-2,-3,-1,-11,-4,1,0
1529305653882347,0,5,6,6,0,-1,-3,-1
1529305653882347,-2,-4,-5,-5,-3,-3,-5,0
1529305653883312,-3,-5,-6,-4,5,4,4,-1
1529305653883312,-1,-1,2,4,5,2,1,0
1529305653898380,3,2,5,-1,0,0,-1,0
1529305653898380,0,-1,1,-2,-8,-4,1,1
1529305653904524,0,0,-3,-1,-2,0,-3,1
1529305653904524,1,-3,1,5,8,3,2,1
1529305653920261,-2,-2,1,1,0,-1,-1,-4
1529305653920261,1,3,-3,-4,-2,-2,-1,-1
1529305653927457,0,0,0,0,-3,-4,-1,0
1529305653927457,-3,0,1,4,0,1,0,-2
1529305653942721,2,2,-1,-3,-2,1,-2,-2
1529305653942721,-1,-3,-6,-8,-2,2,4,2
1529305653943469,-1,-2,0,3,-1,-1,-1,-3
1529305653943469,-1,2,2,-1,-3,-9,-6,-1
1529305653958464,-3,-3,-3,-3,-2,-2,-1,-1
1529305653958464,0,0,-2,-3,3,2,1,2
1529305653964658,0,1,1,1,-4,1,1,0
1529305653964658,1,1,6,0,1,1,0,-2
1529305653979949,-1,-2,-6,0,0,-1,-2,-2
1529305653979949,1,-4,-1,1,-1,-2,-1,-1
1529305653987786,0,1,2,5,-3,-2,-1,0
1529305653987786,0,-2,-9,-14,-4,-2,-3,0
1529305654003166,0,2,12,19,5,1,1,-2
1529305654003166,-2,-2,2,-2,-1,-1,1,-1
1529305654004165,-1,-2,-3,5,0,-3,-2,0
1529305654004165,1,4,8,3,4,1,-1,0
1529305654018463,1,-4,-12,-12,-7,-3,0,0
1529305654018463,-3,-1,-2,4,4,1,2,1
1529305654024652,-2,-4,-13,-10,-5,-2,0,-1
1529305654024652,1,0,-5,0,2,2,0,1
1529305654040121,-1,1,5,2,1,1,-1,2
1529305654040121,3,3,5,2,1,1,0,1
1529305654047106,0,-5,-7,-11,-4,0,1,1
1529305654047106,-2,-4,-5,2,0,-4,-2,-2
1529305654063066,3,5,6,0,-2,1,0,2
1529305654063066,-1,1,2,2,-2,1,-1,-2
1529305654063066,-6,-2,0,-5,-1,1,0,-4
1529305654063066,-1,0,-5,-2,-2,-1,0,-1
1529305654079161,-1,0,5,9,3,-2,-1,-1
1529305654079161,1,1,-2,3,-1,-1,1,0
1529305654085158,1,7,20,3,-1,-2,-2,-1
1529305654085158,0,-4,-4,-1,1,0,-3,0
1529305654099968,-2,-5,-9,-8,0,-1,-1,-1
1529305654099968,1,0,1,-2,2,2,-1,0
1529305654106948,0,-2,-1,3,0,-2,-1,-1
1529305654106948,1,-3,-3,-2,-2,2,7,0
1529305654123170,0,-1,0,-3,-2,-1,-1,-1
1529305654123170,-1,-2,-2,5,4,0,-2,-2
1529305654124173,-1,0,-7,-4,-3,-2,-1,-1
1529305654124173,0,0,3,-2,0,1,-2,1
1529305654139407,0,-3,-3,-1,1,-1,-3,-4
1529305654139407,-1,2,1,-2,-2,-2,-1,0
1529305654144817,1,1,-4,-1,2,0,-1,0
1529305654144817,-1,-1,0,-1,-3,-1,-1,-2
1529305654160111,-2,-3,-7,-4,-3,-1,1,-1
1529305654160111,3,3,5,1,0,-3,0,-1
1529305654166769,-2,-3,-2,-1,0,0,1,-1
1529305654166769,0,-2,-3,0,0,-3,-3,1
1529305654182726,-1,0,-4,-8,-1,0,-1,1
1529305654182726,-2,-3,1,1,-1,0,1,-2
1529305654183723,-2,-2,-5,0,-2,0,-1,-1
1529305654183723,-1,4,4,1,-1,-2,-1,-1
1529305654198683,-2,-2,-2,-2,-2,-1,-1,0
1529305654198683,-1,0,0,-2,-2,0,-1,0
1529305654213287,-1,-2,-2,-1,-1,0,-1,-2
1529305654213287,0,-2,-4,-3,-3,-2,-1,-2
1529305654220268,0,1,1,-1,-1,1,-1,1
