timestamp,emg1,emg2,emg3,emg4,emg5,emg6,emg7,emg8
1529310171777096,-3,-3,0,0,-34,3,-7,-1
1529310171777096,-1,7,4,11,31,22,6,-1
1529310171791044,-2,3,3,7,25,-2,-13,-21
1529310171791044,4,-1,-2,-3,12,-19,7,26
1529310171798026,1,1,6,9,15,11,14,3
1529310171798026,-4,-1,0,8,-2,54,5,-15
1529310171811989,3,4,2,5,15,7,-3,-7
1529310171811989,3,0,-9,-21,-2,7,0,8
1529310171818970,-16,-8,-5,-13,-70,-85,-61,-47
1529310171818970,18,5,0,1,6,-19,58,84
1529310171835925,-11,-3,1,12,36,53,13,-38
1529310171835925,1,-3,-3,-5,-7,0,17,35
1529310171836936,3,-2,-2,-8,-13,-9,-15,11
1529310171836936,-11,-5,-6,-15,-33,-39,-40,-42
1529310171854873,3,5,1,2,3,1,4,15
1529310171854873,-4,0,3,11,10,-1,-16,-26
1529310171858871,3,-3,-8,-5,14,-1,14,13
1529310171858871,-5,-7,-3,-1,-10,1,-9,-14
1529310171872840,8,-1,-7,-7,7,13,4,24
1529310171872840,-9,-2,3,3,-24,13,-2,-27
1529310171878812,-7,-2,-7,-9,4,-17,-28,-25
1529310171878812,-7,-4,4,3,-8,-38,12,15
1529310171895766,8,1,-1,4,-4,4,6,13
1529310171895766,4,9,3,3,40,62,11,-4
1529310171897761,8,5,6,9,6,13,50,35
1529310171897761,-4,-8,-5,-9,-11,-15,-28,-20
1529310171909748,-7,-4,-7,-9,-23,-34,-25,9
1529310171909748,-2,-1,-2,5,0,-18,-7,1
1529310171924689,0,-5,4,9,27,43,15,-3
1529310171924689,-3,6,9,3,-3,-13,-10,-36
1529310171932666,1,-2,-1,-3,-12,-6,31,29
1529310171932666,-1,0,0,-2,-2,-11,-15,-26
1529310171939650,-3,-2,-2,-9,-9,-11,-16,5
1529310171939650,6,5,0,-3,-8,-12,4,18
1529310171955609,-5,-3,-4,-1,1,13,5,3
1529310171955609,0,3,1,1,-4,-2,18,-2
1529310171957600,-8,-12,-6,-4,-6,-8,-15,-15
1529310171957600,0,-1,-4,-2,12,13,1,2
1529310171969568,-1,4,0,1,2,-4,-34,-14
1529310171969568,-9,-7,-6,-5,-4,-3,26,7
1529310171984529,3,3,0,-7,-26,-23,-5,-3
1529310171984529,-6,-4,-9,-10,-28,-38,-10,-5
1529310171992508,4,9,19,26,53,37,-11,-2
1529310171992508,4,-3,-2,-4,0,35,34,11
1529310171999499,-4,-1,-2,-4,-4,-4,-32,-11
1529310171999499,-1,-6,-10,-7,-5,1,11,5
1529310172015504,1,2,-1,-9,-42,-44,-25,-12
1529310172015504,5,1,7,12,21,13,43,21
1529310172017442,-3,-3,-5,-2,16,9,-21,-7
1529310172017442,-3,-3,-1,6,-1,1,0,-14
1529310172038411,4,-5,-3,0,9,7,45,34
1529310172038411,-5,0,3,-3,-18,-23,-53,-15
1529310172039388,-5,-2,-7,-12,-23,-17,5,-3
1529310172039388,-3,-1,-2,-7,-12,-6,-32,-18
1529310172052385,5,5,2,8,27,27,61,28
1529310172052385,-1,-11,-10,0,-19,-13,-19,-2
1529310172059328,0,-1,-1,4,18,6,16,7
1529310172059328,-3,1,-3,-3,12,9,-14,-9
1529310172075312,-8,-7,-5,-9,-28,-20,-30,-29
1529310172075312,-2,5,3,4,-1,-3,10,8
1529310172077281,4,3,2,12,35,31,9,6
1529310172077281,-2,-4,-7,-4,-10,1,10,3
1529310172098263,-2,-4,-7,-10,-6,-13,4,-7
1529310172098263,1,1,0,5,1,-9,-58,-11
1529310172100220,-5,-9,-11,-6,-34,-4,6,3
1529310172100220,9,9,6,17,41,28,43,14
1529310172112188,-3,1,-7,-2,-12,-18,-51,-16
1529310172112188,-3,-9,-26,-7,-3,-8,-20,-9
1529310172119169,0,3,-12,-3,-12,-4,26,-4
1529310172119169,1,0,-4,1,-8,-6,-37,0
1529310172135126,-6,-14,12,-9,-7,-10,-8,-11
1529310172135126,-5,-4,13,-1,-14,-14,-14,-8
1529310172137122,3,2,-7,-17,-14,-9,24,4
1529310172137122,1,4,2,6,7,-17,-15,0
1529310172159063,-6,-6,8,-2,-6,-2,1,-11
1529310172159063,-2,-14,6,5,19,15,-37,-5
1529310172160078,-3,-5,18,2,-11,-7,-7,-5
1529310172160078,1,-7,-9,8,19,13,19,11
1529310172172028,3,1,-33,-2,-2,4,-6,4
1529310172172028,-1,3,-3,-21,-27,-24,-13,-10
1529310172181005,-8,-10,5,-9,-24,-28,-13,-4
1529310172181005,-3,5,29,14,22,5,-29,-18
1529310172195966,4,4,23,-1,-2,6,21,3
1529310172195966,0,7,2,-2,7,20,57,14
1529310172196963,-2,8,-8,0,5,1,-10,-7
1529310172196963,-5,13,-21,-7,-29,-18,-27,-2
1529310172217914,2,-10,-15,8,24,30,49,19
1529310172217914,1,-5,-13,-9,-12,-5,-7,0
1529310172219951,2,-3,5,13,32,2,-18,-6
1529310172219951,-3,-13,-17,-1,1,21,15,10
1529310172231903,-5,11,2,-13,-11,-17,-54,-34
1529310172231903,-7,-3,-6,-15,-18,-12,-1,-3
1529310172240844,-1,-2,15,9,10,-10,-15,0
1529310172240844,4,-3,11,-1,8,1,-19,1
1529310172255807,-1,-3,-11,5,-1,8,27,19
1529310172255807,3,-5,-7,-12,-17,-16,1,-5
1529310172261841,-5,4,-2,6,13,1,-38,-24
1529310172261841,7,11,14,10,20,28,43,17
1529310172277756,-5,-3,-1,-7,-6,-27,-22,-12
1529310172277756,1,10,9,-5,-12,34,16,10
1529310172279746,7,16,10,25,56,23,22,16
1529310172279746,-2,-1,0,-3,0,6,6,-7
1529310172291708,-4,-1,0,-2,-8,3,35,8
1529310172291708,0,7,-7,-26,-18,-23,-13,-11
1529310172300683,-5,-3,-2,-7,-21,-7,12,2
1529310172300683,-3,-6,2,-11,-14,-3,14,-1
1529310172315644,4,10,15,21,27,16,-11,-1
1529310172315644,-7,-6,-2,-5,-17,-21,-10,-7
1529310172317639,2,-11,-12,-2,5,27,16,13
1529310172317639,0,-10,-14,7,29,15,6,3
1529310172338592,2,3,3,-12,-20,-20,-23,-4
1529310172338592,-6,-6,-1,32,23,7,8,-3
1529310172339579,5,-1,-5,-9,-30,-15,1,1
1529310172339579,-3,6,-4,-58,-37,-17,-6,-9
1529310172351546,3,0,-6,53,44,8,14,4
1529310172351546,3,-9,-10,-6,11,14,40,19
1529310172360523,-2,2,5,18,3,3,7,4
1529310172360523,-3,-10,-15,-20,-29,-11,-6,-6
1529310172375482,-13,-11,-6,-32,-35,-15,-12,-10
1529310172375482,0,0,0,-17,4,-11,-15,-3
1529310172377515,-4,-6,-24,-6,12,15,4,-1
1529310172377515,5,6,17,46,50,27,29,13
1529310172398461,-4,-14,0,2,2,13,-4,-6
1529310172398461,3,6,10,-42,-40,-19,-10,-5
1529310172399419,-3,-6,15,24,1,-7,-3,0
1529310172399419,-12,-12,-17,-30,-34,-23,-19,-12
1529310172411387,9,13,14,-11,-22,-4,3,6
1529310172411387,-4,-2,8,41,35,15,-4,-6
1529310172420397,1,1,-10,-18,-14,7,10,4
1529310172420397,0,-7,4,14,1,-7,-3,0
1529310172435339,-5,-4,9,-7,-8,-4,-4,-4
1529310172435339,4,13,15,-10,-10,-10,-3,2
1529310172437319,-1,-3,3,11,-8,-5,0,-2
1529310172437319,-1,-1,-1,4,-12,1,-3,-4
1529310172458261,-1,-3,-16,-12,5,9,-10,-4
1529310172458261,0,-5,-6,16,16,6,-11,-6
1529310172460261,-3,2,-2,-17,-5,-2,-1,-2
1529310172460261,-1,3,7,18,12,-8,-6,-3
1529310172472224,5,-3,-1,8,0,5,4,8
1529310172472224,3,6,-1,-4,-2,-1,-2,0
1529310172481272,5,3,2,12,5,-1,-5,-2
1529310172481272,-6,-17,-16,-15,-7,4,2,-2
1529310172495163,2,-1,5,-18,-7,-4,-4,0
1529310172495163,-4,-13,-2,9,10,6,0,-4
1529310172497160,1,4,26,-9,-7,-8,1,-3
1529310172497160,1,14,62,11,-5,-7,-1,0
1529310172518106,-1,-8,4,-3,13,11,9,2
1529310172518106,6,10,2,18,30,3,14,11
1529310172520105,-8,-3,-29,-14,-20,-11,-15,-10
1529310172520105,-4,-4,-14,-6,-19,-6,1,1
1529310172532117,0,-1,-8,-11,-10,-16,-8,-5
1529310172532117,-6,-9,-4,7,-2,-2,1,-3
1529310172541042,5,-7,-27,9,39,29,9,4
1529310172541042,-4,4,-7,13,1,-4,-4,-1
1529310172556002,-7,0,-14,-2,-4,-5,1,-4
1529310172556002,-8,-8,-7,-8,-6,-9,-8,-11
1529310172557019,4,13,17,-17,-20,-14,1,6
1529310172557019,2,11,6,-3,-9,-11,-12,-6
1529310172577975,-4,-5,-10,2,8,6,4,0
1529310172577975,2,5,-6,3,-6,-5,8,6
1529310172579936,-2,-7,-11,-3,-2,-1,-8,-6
1529310172579936,4,-3,13,-6,8,5,5,7
1529310172591958,1,4,7,18,-5,-11,-7,-6
1529310172591958,2,0,-4,-4,0,8,7,5
1529310172600892,-3,-2,-9,7,7,4,-2,0
1529310172600892,-3,-1,-29,-9,-14,-17,-20,-8
1529310172615840,2,6,11,0,6,17,41,10
1529310172615840,2,0,2,-1,-5,-10,-11,-4
1529310172616886,-6,-3,11,-7,-6,-7,1,-1
1529310172616886,3,1,-4,1,0,8,2,-1
1529310172637836,-9,-6,-19,-3,-8,-6,-14,-8
1529310172637836,-1,1,-5,3,2,-6,-22,-9
1529310172639776,-2,-4,-1,-9,-10,-10,4,1
1529310172639776,-2,-8,-14,4,22,14,13,5
1529310172660719,-1,1,3,-1,-11,-9,-26,-4
1529310172660719,-6,1,-6,-9,-6,4,10,-6
1529310172662714,5,2,5,0,6,6,4,-2
1529310172662714,-5,-1,-2,0,-7,-7,0,-2
1529310172682660,11,4,6,8,9,8,5,4
1529310172682660,-4,-6,0,3,0,2,-4,0
1529310172684655,-3,-14,-20,-22,-12,-1,1,-1
1529310172684655,-1,-3,-3,-5,-2,4,4,-3
1529310172696623,0,5,6,1,1,-2,-3,1
1529310172696623,-2,-3,-6,11,4,4,5,3
1529310172705599,-4,0,2,-8,-3,1,-4,-2
1529310172705599,2,-3,-8,-12,-5,-7,-6,-2
1529310172720559,-6,-6,11,10,-2,-6,-8,-7
1529310172720559,3,-2,6,14,-3,-3,-5,-2
1529310172722556,-4,-1,2,-2,-1,-2,-1,-2
1529310172722556,2,8,0,-4,-8,-10,-4,0
1529310172743498,2,2,-5,-5,28,20,11,6
1529310172743498,3,2,10,34,27,17,8,5
1529310172744495,-1,3,5,-7,-8,-4,-16,-4
1529310172744495,-1,-19,-10,-7,-18,-16,-5,-4
1529310172756463,-6,-2,-11,-21,-9,-9,-7,-5
1529310172756463,-4,-7,-9,-18,-13,-6,-6,-5
1529310172765439,-10,-9,4,14,6,0,2,-1
1529310172765439,13,15,3,9,3,2,1,1
1529310172780400,-12,-15,-6,-11,-12,-9,-10,-4
1529310172780400,-5,-4,-4,-8,-2,-2,-1,-3
1529310172782394,-1,2,13,38,12,6,5,4
1529310172782394,-3,-5,-2,-13,8,4,5,1
1529310172803338,-1,-2,-2,-6,-3,-7,-1,-5
1529310172803338,4,11,0,16,-1,-3,-5,-2
1529310172804335,-3,9,-9,-24,-6,-6,-4,0
1529310172804335,0,4,6,24,10,1,-3,-1
1529310172816344,14,13,0,4,8,6,-1,-2
1529310172816344,-8,-15,-14,-5,-6,-7,-10,-5
1529310172826297,8,17,-2,17,9,7,5,6
1529310172826297,-8,-3,-8,-10,-10,-4,3,0
1529310172840446,-4,-1,3,-15,-9,0,5,3
1529310172840446,9,2,43,-20,-7,-1,8,7
1529310172842444,-24,-26,28,27,1,0,-2,-5
1529310172842444,3,6,18,-25,-9,-1,-7,-16
1529310172863542,1,4,1,4,-6,-8,-15,8
1529310172863542,7,21,20,-3,5,6,15,-1
1529310172864510,-9,-2,-22,-11,-16,-13,-11,-10
1529310172864510,-13,-17,-20,5,-1,1,0,1
1529310172876350,0,6,-19,2,7,5,-6,-7
1529310172876350,-2,-4,1,-2,2,1,7,8
1529310172886324,10,-11,13,-21,-6,-6,-1,2
1529310172886324,-1,-1,12,7,7,7,4,0
1529310172900645,-9,-24,-9,21,-3,-10,-9,-3
1529310172900645,15,2,-21,-27,0,0,-3,7
1529310172906678,-10,-16,-24,-12,-7,-4,0,-3
1529310172906678,21,6,-6,-6,-2,-3,0,4
1529310172923751,-18,-2,-9,1,0,0,7,0
1529310172923751,-7,-6,-19,10,2,-6,-33,-9
1529310172924615,7,1,-13,-7,5,16,52,6
1529310172924615,-10,-6,-2,5,0,-1,2,4
1529310172936746,8,9,2,17,2,-1,1,-4
1529310172936746,-4,-2,-13,-22,-9,0,1,-2
1529310172945590,5,4,4,-14,-8,-11,-19,-2
1529310172945590,5,5,5,11,5,2,2,2
1529310172960568,-5,1,0,-26,-18,-7,3,-6
1529310172960568,-9,-7,-9,-4,4,0,-20,-10
1529310172960568,1,-1,8,25,7,4,20,7
1529310172960568,-2,3,10,-9,4,4,-6,2
1529310172982899,6,1,17,7,4,7,40,8
1529310172982899,-7,-8,-2,-1,-1,-1,-7,-8
1529310172983838,16,18,-3,6,3,-1,18,7
1529310172983838,-17,6,-4,-2,-4,-3,-11,-3
1529310173005054,15,-13,-5,-3,0,4,3,1
1529310173005054,-8,4,-4,7,1,-8,-35,-7
1529310173005888,-4,-9,-4,-16,-6,-5,-2,-4
1529310173005888,21,22,0,-5,-2,-5,-9,3
1529310173020176,-21,-19,1,-8,-5,-7,-10,-20
1529310173020176,-3,0,7,18,8,4,12,2
1529310173021176,-1,1,-1,-9,-3,-6,-23,-6
1529310173021176,7,4,-5,0,-3,3,6,0
1529310173043013,-12,-7,-10,-1,-5,-5,-22,0
1529310173043013,9,9,-2,11,19,17,54,16
1529310173043013,18,17,-3,1,3,5,-1,-9
1529310173043013,-30,-32,-8,-3,-1,-5,4,-8
1529310173065081,1,1,2,3,0,3,11,4
1529310173065081,-5,-10,-8,-7,-13,-12,-3,-4
1529310173065917,-5,0,-3,-6,-2,-2,-22,0
1529310173065917,13,12,-3,3,1,-2,0,0
1529310173080240,7,-2,-1,3,3,-8,-40,4
1529310173080240,-7,-8,-3,-10,-7,4,19,-4
1529310173081075,-10,-6,3,-3,0,-2,7,-9
1529310173081075,3,-4,-2,5,3,4,2,-8
1529310173102776,-4,7,3,1,2,3,1,1
1529310173102776,10,4,-1,-4,-4,-2,12,10
1529310173103827,-19,-9,2,9,2,-1,-16,1
1529310173103827,23,9,-7,3,-5,-6,8,6
1529310173125102,-6,-7,-5,-14,-2,4,8,8
1529310173125102,1,5,2,0,-3,-5,-35,-27
1529310173126099,-6,-4,0,-2,0,1,-8,-7
1529310173126099,-12,-12,0,-1,-3,-7,-28,3
1529310173140098,2,-1,-2,3,4,3,2,5
1529310173140098,-1,4,0,-1,-5,-8,-24,3
1529310173141090,17,25,1,-1,2,5,10,4
1529310173141090,-15,-25,-5,-4,0,1,5,4
1529310173162329,4,2,8,2,-1,-2,16,-1
1529310173162329,-15,-16,-7,-2,-2,5,22,4
1529310173163170,11,3,0,3,1,-6,-11,5
1529310173163170,3,5,3,-1,2,0,-5,3
1529310173185267,4,13,1,2,3,11,51,-1
1529310173185267,-11,-6,-6,-5,-6,-5,5,-5
1529310173186265,16,16,0,-3,-3,-1,-19,4
1529310173186265,-6,-4,12,2,3,1,-2,7
1529310173200499,1,5,-9,2,0,-3,-25,-21
1529310173200499,1,-7,4,4,4,3,-10,1
1529310173200499,-14,-26,-18,-10,-11,-13,-29,-8
1529310173200499,-2,3,-2,-2,2,15,28,2
1529310173222440,-2,-4,9,-2,0,-4,-16,0
1529310173222440,18,22,-3,-3,0,0,4,6
1529310173223438,-9,-10,0,2,1,9,44,11
1529310173223438,-5,-1,3,0,-2,-8,-6,-10
1529310173244382,5,0,-6,-2,-2,-1,-2,7
1529310173244382,0,-3,-8,-3,-6,1,16,0
1529310173245379,4,-4,-2,14,19,5,-3,-6
1529310173245379,-4,-5,-6,-13,-8,-9,-13,-15
1529310173260544,24,24,2,1,5,2,2,11
1529310173260544,-41,-38,-6,-10,-7,-6,-4,-11
1529310173260544,-4,-7,7,4,-13,-15,-34,0
1529310173260544,-3,0,-2,6,9,13,47,1
1529310173282813,-7,-7,-6,-9,-8,-11,-40,-9
1529310173282813,10,9,-5,-5,-5,-8,-13,7
1529310173283817,-1,-7,-8,-5,6,16,22,5
1529310173283817,2,13,-1,3,-5,-8,-23,-4
1529310173304751,-3,-9,11,-1,-6,-9,9,4
1529310173304751,12,12,11,2,-1,-2,4,-2
1529310173305600,-11,-9,0,-1,0,-2,-7,-12
1529310173305600,0,-3,-2,-5,-8,-3,-10,1
1529310173319915,-6,1,-6,-6,-1,-4,-1,-5
1529310173319915,-2,-2,3,18,12,4,-7,-2
1529310173320751,7,6,5,-4,-2,-3,-2,3
1529310173320751,3,4,4,-3,-8,-17,-23,1
1529310173342695,-3,5,-11,5,13,33,18,-1
1529310173342695,7,1,7,2,2,1,-2,9
1529310173343825,-12,-1,6,2,-1,0,-7,-9
1529310173343825,-4,7,-14,-5,1,0,6,0
1529310173364789,-5,-8,5,-1,-8,-11,4,1
1529310173364789,-4,-4,-8,-7,-7,-2,-5,0
1529310173365630,9,11,5,10,10,7,20,2
1529310173365630,-6,-2,1,-4,-4,-5,-1,-1
1529310173379593,-5,-2,4,3,-7,-13,-13,-5
1529310173379593,1,2,-7,-19,-11,-1,0,-7
1529310173380590,2,5,-1,0,4,1,1,-1
1529310173380590,-1,2,-8,0,5,11,11,-2
1529310173402968,-9,-22,8,-2,1,1,-1,7
1529310173402968,1,2,10,7,2,-6,-20,-7
1529310173402968,1,8,1,0,-8,-8,14,-1
1529310173402968,2,-4,1,-1,-3,0,-6,1
1529310173424961,0,6,-11,0,0,-3,0,-5
1529310173424961,-5,-8,1,4,3,-2,-6,-1
1529310173425802,-15,-19,6,-3,-5,-3,18,3
1529310173425802,22,11,5,4,3,11,27,5
1529310173439764,4,2,-4,-6,-4,-2,0,-2
1529310173439764,-2,-4,-2,-2,0,0,7,-1
1529310173440761,1,1,-7,-6,-6,-6,-32,-5
1529310173440761,-12,-11,-2,1,3,0,18,0
1529310173462703,-21,1,3,2,-2,-9,-27,-26
1529310173462703,46,29,-4,-2,1,8,34,27
1529310173463703,-3,-8,-6,-4,-1,3,2,-6
1529310173463703,-2,-4,1,0,-4,-8,-28,-5
1529310173485890,-9,-4,-6,-1,-1,-5,-49,-5
1529310173485890,-1,-1,1,-1,-1,4,21,2
1529310173486878,-3,4,-8,-5,-3,2,0,-1
1529310173486878,-5,-3,0,-1,-2,-2,13,3
1529310173500012,10,-7,1,-2,-1,1,15,7
1529310173500012,-18,6,-4,-1,1,-2,-19,-8
1529310173501013,10,-19,9,2,-3,-4,-26,4
1529310173501013,-12,-13,-1,-4,-4,5,42,-5
1529310173522956,-1,6,-4,1,-1,-5,17,4
1529310173522956,-8,-9,-11,3,4,0,3,-2
1529310173522956,-9,8,6,-1,0,-7,-27,-7
1529310173522956,13,2,0,0,1,3,-6,-18
1529310173545841,-16,15,8,-1,-1,11,76,17
1529310173545841,2,-17,-3,-7,-13,-10,-17,3
1529310173546841,-2,-18,3,8,2,-7,16,-4
1529310173546841,4,1,-11,-4,-4,-1,9,-3
1529310173560233,20,18,1,3,11,3,-4,-7
1529310173560233,-36,-13,2,-1,2,7,29,-10
1529310173561116,8,12,2,-4,-6,0,-2,9
1529310173561116,-2,-6,-6,-1,-1,-9,-50,-7
1529310173582377,-2,-13,-8,-1,-3,2,-29,4
1529310173582377,-1,13,4,2,0,-5,-52,-22
1529310173583211,12,9,-5,-10,-6,0,4,14
1529310173583211,-6,2,4,6,0,-4,6,-1
1529310173605352,5,-7,-1,0,-2,-8,-27,-6
1529310173605352,-4,-2,4,-5,-5,-9,-5,-1
1529310173606359,1,19,-4,-1,-6,7,3,-6
1529310173606359,-2,6,7,1,2,-6,-18,11
1529310173620473,18,-2,-24,1,2,3,7,6
1529310173620473,-8,-16,20,3,1,-2,-6,-6
1529310173621343,-4,-5,-5,-1,-8,-3,17,-2
1529310173621343,-14,-6,-4,-2,5,1,-27,-17
1529310173642614,1,-9,1,-1,-5,-6,-4,7
1529310173642614,13,13,-3,0,2,3,15,3
1529310173643449,-8,-9,-4,-3,-2,-3,-8,-6
1529310173643449,-2,-2,-1,4,2,2,-5,4
1529310173665546,-4,4,-2,1,-2,-2,-3,-8
1529310173665546,-2,-6,-1,4,5,1,-5,-1
1529310173666387,-7,-5,-10,-12,-6,1,2,-2
1529310173666387,-3,-8,1,7,2,-2,-7,-1
1529310173680453,-3,-2,7,-3,2,7,9,-1
1529310173680453,2,3,-6,-2,-8,-10,-4,2
1529310173680453,2,-3,-1,-3,2,1,-4,-3
1529310173680453,0,2,1,-3,-5,-6,10,1
1529310173702653,-13,-2,7,3,1,-7,-12,-5
1529310173702653,7,4,-6,3,2,0,-1,-1
1529310173703647,-1,-1,-4,-8,-2,-1,2,-2
1529310173703647,-5,3,1,-7,-5,-1,-11,1
1529310173725588,6,-1,1,-4,-6,-3,5,0
1529310173725588,1,0,-3,1,0,1,-1,0
1529310173726429,-3,-3,-1,5,1,-3,-9,-3
1529310173726429,0,-3,-3,-7,-7,-2,-6,2
1529310173740493,-6,-8,-2,-2,-2,-2,-3,-6
1529310173740493,-1,-2,-1,-2,-2,0,4,0
1529310173740493,2,3,3,2,3,2,-4,1
1529310173740493,-4,-8,-3,0,1,0,2,0
1529310173762489,-1,3,2,-1,2,3,-2,-2
1529310173762489,-2,-4,-2,-3,-4,-1,4,-1
1529310173763331,-4,0,-4,1,1,2,2,-5
1529310173763331,3,-3,-2,-3,-4,-9,-4,7
1529310173785468,1,3,2,0,2,9,6,-1
1529310173785468,-5,-3,-3,-3,-2,-1,-8,-4
1529310173786468,-1,-1,1,1,2,1,11,3
1529310173786468,-3,-2,-1,-1,-2,-2,1,-1
1529310173799759,2,-1,0,-3,-3,-7,-18,-5
1529310173799759,-3,-1,-3,-3,-4,-1,3,-2
1529310173800596,5,1,-1,1,3,-1,0,1
1529310173800596,0,-1,0,0,0,1,-2,1
1529310173822161,-6,-4,-1,-2,-2,-2,-1,-1
1529310173822161,1,0,-2,-1,-2,0,-3,-1
1529310173823149,-3,0,0,-4,-4,-3,0,-3
1529310173823149,-1,1,-1,-2,0,-1,0,1
1529310173845245,-2,-1,-1,2,1,0,1,0
1529310173845245,1,-1,-2,-2,-2,0,-1,1
1529310173852074,-1,-1,-1,-1,1,1,-4,-1
1529310173852074,-2,-3,-1,-1,0,2,-3,-3
1529310173860051,0,0,-1,-1,-4,-5,0,-2
1529310173860051,0,-1,0,0,2,1,2,-1
1529310173861048,-3,-2,-4,-2,-1,-2,-4,-3
1529310173861048,1,0,0,2,3,-1,-1,-1
1529310173881990,-1,-3,-2,-1,-2,-2,-1,-1
1529310173881990,-1,0,-1,-1,-2,-1,1,1
1529310173882987,0,-1,-2,0,-1,-2,-3,-2
1529310173882987,-2,-3,-1,-1,-5,-1,-2,-4
1529310173905927,-2,-2,0,-2,-2,-1,0,1
1529310173905927,0,1,0,-1,-2,-3,-4,-1
1529310173906924,1,1,-2,1,1,3,-1,-1
1529310173906924,-2,-2,-2,-1,1,0,-5,0
1529310173919928,-1,-3,-3,-1,-1,2,3,-1
1529310173919928,-1,-1,-1,-2,0,-2,-2,0
1529310173920887,-2,-1,0,0,-2,-3,1,-2
1529310173920887,-3,-1,0,-1,-1,2,1,-1
1529310173942829,-1,-1,-3,0,2,-2,-1,-1
1529310173942829,0,-1,-1,0,-4,-1,-1,-1
1529310173942829,-2,-2,-1,-6,-4,-5,-3,-1
1529310173942829,0,1,0,-1,2,3,3,1
1529310173965767,-2,-1,-1,-1,-1,0,0,1
1529310173965767,-1,0,-2,0,0,0,-3,0
1529310173966764,-1,-1,-1,0,-4,-5,-4,0
1529310173966764,0,0,-2,-2,-3,-1,0,0
1529310173979730,-1,-1,0,0,-2,-3,-2,-2
1529310173979730,-1,-2,-3,-2,-2,-1,-3,0
1529310173980727,0,-1,-3,0,-3,1,1,0
1529310173980727,0,-1,-1,0,0,-5,-2,0
1529310174002827,-1,-1,1,1,2,3,1,-1
1529310174002827,-11,-3,0,2,3,3,2,-1
1529310174003803,14,3,0,-6,-3,-1,-3,0
1529310174003803,-1,-1,-1,-4,-3,-2,0,-2
1529310174025764,0,-3,-2,-4,-2,-3,0,0
1529310174025764,0,-2,0,-1,-1,-2,0,0
1529310174026604,-6,-2,0,1,2,0,1,-1
1529310174026604,-1,0,-1,1,0,4,1,-1
1529310174039733,1,-1,1,-1,1,0,0,-1
1529310174039733,1,-1,-2,-5,-6,-5,-4,0
1529310174047579,-3,0,0,0,2,4,3,-1
1529310174047579,2,1,0,0,-3,-6,-2,0
1529310174062699,-3,-2,-2,-1,-3,-4,-2,-2
1529310174062699,-1,-1,-3,-2,1,-2,-3,0
1529310174063679,-2,0,-2,-1,-8,-11,-4,0
1529310174063679,-2,-3,-3,0,2,4,2,-5
1529310174085775,0,1,-2,-3,-2,5,0,2
1529310174085775,-1,-1,1,0,5,-1,-2,-1
1529310174086616,-4,-3,-1,0,3,6,5,-1
1529310174086616,-5,-2,-1,1,-2,-2,-1,0
1529310174099738,3,1,-1,-2,-7,-7,-5,-2
1529310174099738,1,1,-5,-6,-8,-7,-3,-2
1529310174107582,-3,-1,1,4,5,3,1,-2
1529310174107582,-3,0,1,-1,2,2,0,0
1529310174122584,4,-4,1,-3,0,0,0,0
1529310174122584,1,-1,1,0,-2,-3,-2,0
1529310174123706,-1,-1,0,-1,-1,-2,-4,0
1529310174123706,0,0,-3,-5,-4,-3,-3,-1
1529310174145492,-2,-1,-1,-3,-6,-6,-4,-3
1529310174145492,-1,-1,0,0,-4,-3,0,-3
1529310174146491,-2,-2,1,3,5,7,3,1
1529310174146491,1,0,3,4,14,10,2,1
1529310174159455,-2,0,-2,1,2,2,1,-1
1529310174159455,1,1,-1,-1,-3,-1,-1,-1
1529310174167592,-2,-3,1,-5,-5,-6,-4,-4
1529310174167592,0,0,4,-3,-8,-8,-3,-2
1529310174182393,-1,-2,-2,0,1,-1,-1,0
1529310174182393,0,-2,0,0,2,3,1,0
1529310174183420,0,0,-2,-2,-3,-3,-1,1
1529310174183420,-1,-2,-4,-3,-3,-2,-1,-2
1529310174205331,-1,-1,-2,-4,-4,-4,-2,-3
1529310174205331,-3,-3,-1,0,-2,-1,-2,-1
1529310174206340,0,-1,-2,1,6,4,1,-1
1529310174206340,1,0,0,2,5,4,1,1
1529310174228327,-3,0,0,2,4,4,2,0
1529310174228327,1,-1,-3,-4,-2,0,-2,-1
1529310174229324,-2,0,-3,-3,-6,-7,-4,-4
1529310174229324,-3,-2,-2,-3,-7,-5,-4,-2
1529310174242290,-2,1,-6,-4,-1,-1,-1,-3
1529310174242290,-1,3,5,1,3,2,1,1
1529310174243284,2,8,19,-3,-2,-2,-2,1
1529310174243284,0,-2,4,-2,-2,-1,1,-4
1529310174265227,-3,0,4,-1,0,-1,0,-1
1529310174265227,-2,-1,5,1,3,3,0,0
1529310174266242,-2,-4,-8,0,0,0,-1,-1
1529310174266242,0,-2,-7,-3,-3,-2,-2,-1
1529310174288167,-2,-2,0,0,-1,-1,-2,0
1529310174288167,1,-2,-9,-2,1,-1,1,-3
1529310174289163,-1,-4,-6,-1,-1,-1,-3,0
1529310174289163,-3,-2,-2,-1,-1,-1,-1,-1
1529310174302126,-3,-2,-5,0,0,-1,-1,-1
1529310174302126,0,-3,-1,-2,0,1,1,0
1529310174303124,0,0,-2,0,-1,0,-1,1
1529310174303124,0,1,1,0,-4,-2,-2,0
1529310174326074,-3,-3,-2,2,1,1,0,-2
1529310174326074,1,3,0,0,-3,-3,-2,1
1529310174326074,-7,-7,-3,-1,2,4,3,-3
1529310174326074,0,-1,-4,-2,-3,-4,-3,0
1529310174348007,-2,-2,-1,0,0,2,0,-2
1529310174348007,-2,-3,-1,-1,-2,-1,0,-3
1529310174349001,1,0,-2,-1,-2,-3,-4,-2
1529310174349001,0,-1,0,-1,-1,-2,0,-2
1529310174361971,-1,-2,0,-1,0,1,-1,-1
1529310174361971,-1,-3,0,0,0,0,-1,-3
1529310174362969,0,2,-1,0,-1,-2,1,0
1529310174362969,-1,-2,0,0,-2,0,-1,-2
1529310174386047,1,1,1,-1,-3,-3,-1,0
1529310174386047,1,-2,-2,0,-1,0,-1,-2
1529310174387032,0,-1,-1,-1,-1,-4,-3,-1
1529310174387032,0,-2,-2,-1,-2,-2,-1,-1
1529310174408193,0,-1,-3,-2,-1,-3,1,-1
1529310174408193,-1,-2,-1,-1,0,-2,-1,1
1529310174409049,1,-2,-2,-1,-1,0,-2,-2
1529310174409049,1,-1,-1,-1,0,-1,-1,-2
1529310174422021,-1,-2,-1,-1,-2,-1,-2,0
1529310174422021,-1,-1,-2,0,-1,-1,-1,0
1529310174423018,-1,-1,-1,-2,-1,-3,-3,-2
1529310174423018,-2,-2,-3,-2,0,0,1,-1
1529310174446149,-1,0,-2,1,-2,0,-1,0
