timestamp,emg1,emg2,emg3,emg4,emg5,emg6,emg7,emg8
1528180512286121,-3,-1,-3,-3,-1,3,-5,-2
1528180512286121,-2,-1,-3,-1,-1,-1,-5,0
1528180512287098,1,0,-1,1,-2,1,-3,1
1528180512287098,-2,-1,1,-1,0,0,2,-2
1528180512288096,-2,2,1,3,0,-1,3,1
1528180512288096,0,-2,1,-1,-1,-1,4,-2
1528180512289094,1,-2,0,0,-1,-1,0,-4
1528180512289094,1,2,-1,-1,-3,0,1,1
1528180512298069,-2,0,-1,-4,0,-4,-1,-1
1528180512298069,-1,-2,-3,-2,1,-3,-2,2
1528180512304053,-1,0,-2,0,2,-1,0,-1
1528180512304053,2,-4,3,0,1,1,-4,-1
1528180512316021,2,1,2,-1,1,2,-1,1
1528180512316021,3,4,1,-1,1,6,-1,0
1528180512342951,-2,-3,-3,-1,-3,-1,-3,0
1528180512342951,-3,-1,-4,3,-1,-3,0,-2
1528180512344945,1,-2,-3,1,-1,-4,0,-1
1528180512344945,0,-2,-1,2,-2,-3,0,2
1528180512350928,-1,3,1,-1,-1,1,0,1
1528180512350928,-3,1,-2,-2,-2,0,-3,-1
1528180512357910,-2,-4,0,-1,0,-2,2,-1
1528180512357910,-4,-1,1,-2,1,-1,-1,-2
1528180512372870,-2,-2,-1,-1,1,0,2,1
1528180512372870,0,0,0,-1,2,1,-2,0
1528180512374865,1,-3,-1,-2,0,-2,-1,-2
1528180512374865,0,-3,-2,-1,-3,-3,-2,-2
1528180512419746,-2,-3,0,-1,-1,0,1,-1
1528180512419746,-2,1,2,-2,-2,0,0,-1
1528180512420742,1,3,0,2,-1,-2,2,0
1528180512420742,1,-2,1,-1,-1,-1,2,0
1528180512421740,0,-1,0,-1,0,-4,0,-3
1528180512421740,0,-1,-2,-1,-1,-3,-3,0
1528180512423734,-1,0,-1,-1,-2,-2,-2,0
1528180512423734,2,1,-4,0,2,-1,1,1
1528180512432721,0,0,1,-1,-3,1,2,-1
1528180512432721,-3,-1,-1,-1,-3,2,0,-3
1528180512438695,-3,1,1,-2,-1,-1,-1,-4
1528180512438695,-2,-3,3,1,0,0,-3,-3
1528180512446674,-2,-1,0,0,3,0,0,2
1528180512446674,-2,0,-1,-2,0,-1,0,0
1528180512461634,1,-1,-3,-3,-3,0,-1,1
1528180512461634,-2,2,-4,1,-4,1,-1,-1
1528180512469611,0,2,-4,1,-2,2,-1,0
1528180512469611,1,1,-3,1,-1,2,-3,0
1528180512500528,-1,1,-1,2,0,-3,-3,1
1528180512500528,1,-1,1,-3,1,-4,-1,-3
1528180512501526,-3,-2,-1,-2,-2,-4,0,-5
1528180512501526,0,-3,-2,-2,-1,-4,3,-2
1528180512515488,0,-3,0,-2,-1,1,1,0
1528180512515488,-2,-1,-2,0,0,0,-3,-1
1528180512516486,1,0,-3,-1,3,1,0,0
1528180512516486,0,-1,-3,0,0,0,1,0
1528180512530477,-4,1,-4,2,-2,-2,0,0
1528180512530477,-1,-1,0,0,-2,0,-3,-1
1528180512531447,2,-3,2,1,1,1,-6,-2
1528180512531447,0,-2,1,-2,-3,1,-2,-2
1528180512560379,2,-1,1,-2,1,2,0,-2
1528180512560379,-2,4,0,1,-2,2,2,1
1528180512561366,-2,1,-2,1,2,0,0,-1
1528180512561366,-2,-2,2,1,2,-3,-1,0
1528180512567393,-3,-2,0,0,-3,0,-1,4
1528180512567393,0,-1,-1,0,-3,2,1,3
1528180512568348,3,-4,-1,-5,-5,-1,-1,2
1528180512568348,0,-1,-1,1,0,1,2,-3
1528180512590326,-3,0,-2,-1,-1,0,-3,-5
1528180512590326,-4,0,-2,-2,0,-3,-4,-5
1528180512591288,0,1,-2,0,0,-2,-4,-3
1528180512591288,2,2,-5,0,2,-4,-1,-1
1528180512620209,3,-2,-3,-2,1,2,1,1
1528180512620209,-3,0,0,0,1,1,3,3
1528180512621223,-5,0,-1,0,-1,1,3,5
1528180512621223,-3,-2,1,-1,-3,0,-3,0
1528180512627190,2,-4,4,-2,-2,-3,-2,0
1528180512627190,1,0,-2,-4,-4,-1,0,-3
1528180512628190,0,-1,-1,-3,-2,-1,-4,-3
1528180512628190,1,0,-2,0,1,2,0,-4
1528180512650131,-2,-2,-3,1,1,-2,3,-3
1528180512650131,1,-6,-2,2,0,-1,3,0
1528180512651128,-2,2,-1,2,-2,-1,2,1
1528180512651128,-1,4,-1,0,-1,-3,-2,0
1528180512673089,0,5,2,-1,0,-1,-1,-3
1528180512673089,1,1,2,-1,-1,-2,-2,3
1528180512674088,0,-2,2,-3,-1,-3,0,-3
1528180512674088,-3,-2,1,0,-1,-1,-3,-1
1528180512687032,-1,-3,1,0,-1,1,0,-2
1528180512687032,-1,-2,-1,-2,-1,0,-2,1
1528180512688027,2,-2,0,-1,-2,-1,-2,1
1528180512688027,0,-4,1,0,-3,-3,-1,1
1528180512710966,2,-2,0,-2,-2,-1,-1,0
1528180512710966,1,2,-1,-4,1,-1,0,-2
1528180512710966,-1,4,-1,0,0,1,0,-2
1528180512710966,-1,2,-2,-2,1,1,2,-1
1528180512732908,-3,-1,-1,-1,-2,0,1,2
1528180512732908,-1,-2,-3,0,1,0,2,1
1528180512733905,-2,-2,-2,1,0,0,-4,-2
1528180512733905,2,-4,-1,0,-2,-3,-2,2
1528180512746870,-1,-1,-1,0,-1,0,-2,0
1528180512746870,-2,1,3,0,0,-1,-3,1
1528180512754903,-4,1,0,-2,-3,-1,1,-1
1528180512754903,-1,3,-1,1,-2,2,0,-1
1528180512777840,0,0,0,1,2,3,0,1
1528180512777840,1,0,-2,2,2,1,-4,-6
1528180512779783,0,-1,-1,0,0,0,-1,-5
1528180512779783,1,-7,0,-2,-1,1,-1,1
1528180512792762,2,1,0,-3,-3,1,0,3
1528180512792762,-1,-2,-1,-1,-2,-1,3,1
1528180512794744,0,-2,-1,1,1,-5,3,1
1528180512794744,2,2,3,-2,-1,0,4,-1
1528180512806712,-2,1,2,1,1,-2,0,-1
1528180512806712,-2,-5,-1,1,-2,0,-2,-1
1528180512815686,-1,-3,-1,0,-1,-1,-4,-1
1528180512815686,0,-1,-2,-2,0,0,-7,-3
1528180512837674,0,0,-4,-2,-1,-2,-3,-2
1528180512837674,-2,4,-4,-1,1,-3,-1,2
1528180512839623,1,-1,-2,-1,3,-2,3,2
1528180512839623,1,-3,1,-1,-1,-1,3,0
1528180512853601,1,-2,2,-1,-2,2,-1,-2
1528180512853601,-3,-1,1,-2,-4,2,-1,-1
1528180512854582,-2,1,-1,0,-2,0,-2,-3
1528180512854582,-3,1,-3,2,2,-2,-1,-1
1528180512866550,-3,0,-4,-3,0,-4,0,-3
1528180512866550,3,1,-2,-4,1,0,0,0
1528180512875526,0,1,-1,-4,-2,2,0,2
1528180512875526,-1,-1,0,-1,-1,-2,1,-1
1528180512889519,-2,-3,-2,2,1,-4,2,-3
1528180512889519,-2,-2,1,-1,-1,-2,-2,-5
1528180512896470,-1,-2,2,-1,-2,0,-2,-3
1528180512896470,-1,0,1,1,-2,2,-1,1
1528180512913433,-1,0,-2,0,0,-1,-1,-1
1528180512913433,3,2,-2,0,-1,2,0,0
1528180512914436,-1,0,-2,2,0,-1,-1,1
1528180512914436,-1,1,-3,-1,-3,0,-2,0
1528180512926427,-1,1,0,-1,1,0,-1,1
1528180512926427,2,-2,1,-2,-2,-2,1,0
1528180512935392,1,-2,1,-1,-2,-1,2,1
1528180512935392,-2,-3,-2,0,0,-2,0,2
1528180512949330,-2,-5,-2,-1,-1,-1,-1,-1
1528180512949330,-2,-1,0,0,1,-3,0,-3
1528180512956312,0,-2,0,1,1,-1,0,0
1528180512956312,0,-2,-1,-3,0,0,-1,1
1528180512973302,-2,1,-2,0,-2,3,-4,1
1528180512973302,-4,2,-4,2,-2,-1,-5,-3
1528180512974289,-3,4,-1,-3,-2,0,-1,-3
1528180512974289,0,3,1,1,-2,-3,0,-3
1528180512986230,3,2,1,-1,-3,-1,0,-2
1528180512986230,1,0,0,-3,-1,2,3,2
1528180512995207,-2,-3,-2,-3,-3,-1,-2,2
1528180512995207,-1,-4,1,-2,0,3,-3,-3
1528180513010167,-1,0,1,0,1,-1,-5,-3
1528180513010167,-1,-4,1,2,2,-1,-4,-2
1528180513017170,0,-3,-1,2,4,-1,1,2
1528180513017170,-2,0,0,-1,1,-3,1,0
1528180513033132,1,-1,1,1,-2,-1,1,-2
1528180513033132,-1,0,-2,-5,-5,-1,-1,-1
1528180513035163,1,0,1,1,-3,-1,0,0
1528180513035163,0,-1,0,0,-1,-1,2,2
1528180513047068,-1,1,-1,0,0,-1,1,1
1528180513047068,2,0,0,0,2,0,0,-2
1528180513056046,3,-1,0,1,-2,0,0,-1
1528180513056046,1,1,-4,-2,1,0,1,-2
1528180513070007,1,-3,-1,0,0,-2,-2,-1
1528180513070007,-1,-3,-1,-1,0,1,-3,2
1528180513084003,-3,-2,-4,-4,-1,-1,-1,2
1528180513084003,-2,-3,-3,0,-1,-1,0,1
1528180513092945,1,-2,0,-4,-2,-2,0,0
1528180513092945,-2,-1,2,0,-3,-3,-1,-2
1528180513094940,1,-1,3,1,-3,-1,-2,-4
1528180513094940,-2,2,1,0,0,-1,-4,-2
1528180513115885,-2,1,-2,-1,3,1,1,1
1528180513115885,0,3,0,3,-1,0,0,0
1528180513116893,-1,0,-2,0,0,0,0,1
1528180513116893,3,-3,-2,0,0,-2,1,1
1528180513129882,2,-3,-2,1,1,-1,-1,2
1528180513129882,0,-3,-1,0,-1,-1,-1,1
1528180513143843,-3,1,-2,0,0,-1,-1,0
1528180513143843,0,1,-3,-2,-4,0,-4,-2
1528180513152838,-2,0,1,-3,-3,3,0,1
1528180513152838,-1,0,0,-2,-2,0,1,0
1528180513154780,-1,-1,-2,-2,1,-2,0,-3
1528180513154780,-1,-3,-1,-2,0,-1,0,0
1528180513166800,1,0,0,-1,-1,0,-1,-3
1528180513166800,0,-1,-2,1,0,-1,2,-1
1528180513175735,0,-1,1,-3,-2,-2,-1,2
1528180513175735,0,3,-1,2,-1,-1,0,0
1528180513189721,-2,2,-1,2,-2,-3,-1,-1
1528180513189721,-3,-1,-2,-1,0,-1,-4,-3
1528180513196730,0,0,-1,0,-1,-2,-1,-3
1528180513196730,0,0,1,-2,0,0,-1,1
1528180513220659,0,0,0,1,-1,-1,3,2
1528180513220659,1,-3,0,-1,-1,1,0,-2
1528180513222660,3,0,-1,0,2,1,-1,0
1528180513222660,-2,0,-2,-2,2,2,1,1
1528180513235613,-2,1,-2,0,2,4,-1,-2
1528180513235613,-4,1,-1,0,-1,0,-3,-1
1528180513237586,-1,-2,-1,0,-2,-3,-1,-1
1528180513237586,1,-3,-1,1,-3,-5,0,-1
1528180513249527,2,-7,-3,-1,-3,-5,-1,0
1528180513249527,1,-2,2,-2,-2,-2,-1,1
1528180513256512,0,-1,0,1,-3,2,0,-3
1528180513256512,3,1,1,1,-1,2,2,-2
1528180513273463,-2,-1,2,-2,0,-1,-1,1
1528180513273463,-5,-2,-2,-2,-2,-1,3,1
1528180513274460,-1,-1,0,-3,-1,-2,-2,1
1528180513274460,-2,1,1,-1,-2,1,-5,-3
1528180513295659,2,3,-1,0,0,1,-3,-4
1528180513295659,-1,0,-4,-1,-1,-2,0,0
1528180513297541,1,-1,-3,-2,1,-2,1,-2
1528180513297541,0,-1,-3,-1,-1,-2,-1,-1
1528180513309663,-1,-1,0,0,1,-1,0,0
1528180513309663,0,2,1,0,1,0,-2,0
1528180513316759,-1,1,-1,0,1,1,1,0
1528180513316759,0,-1,-1,1,2,2,-2,-3
1528180513333639,-3,-3,0,-1,-2,-1,-2,0
1528180513333639,0,3,0,2,2,-1,-1,2
1528180513334589,-1,2,1,-1,-2,0,-1,0
1528180513334589,-1,1,0,-2,-1,1,1,-1
1528180513363629,1,-1,-1,-1,-1,-2,-1,1
1528180513363629,1,0,-4,-1,-1,-3,0,1
1528180513364518,-2,-3,-1,1,-3,-3,0,0
1528180513364518,0,-4,0,-1,-1,-4,2,-1
1528180513369025,2,1,-3,0,-2,0,4,-2
1528180513369025,2,0,-1,0,-1,-1,0,-1
1528180513377961,-4,-1,0,1,1,0,-2,-1
1528180513377961,-2,-3,1,1,1,-1,-2,1
1528180513391997,-1,1,1,-2,3,0,-1,-1
1528180513391997,-1,-2,4,-1,1,1,1,-3
1528180513400973,0,0,0,0,-3,1,-1,-2
1528180513400973,0,0,0,-1,-3,1,-3,-1
1528180513423102,0,-1,-1,1,-2,0,-2,-1
1528180513423102,0,0,-3,-4,-3,0,0,1
1528180513424909,-1,-1,-1,1,-1,0,-1,-1
1528180513424909,-1,-3,0,-2,-3,-1,-1,1
1528180513438235,0,-2,-3,-1,0,-1,3,2
1528180513438235,0,-1,-3,0,1,-2,3,-1
1528180513440230,-2,0,-1,-1,2,-2,3,-3
1528180513440230,-2,2,-3,0,0,0,0,2
1528180513452071,-2,0,-2,0,-2,2,-5,1
1528180513452071,1,-1,0,0,-2,-1,-3,0
1528180513461033,2,1,-3,0,-1,0,-2,-1
1528180513461033,1,1,0,-1,-4,-1,-1,-2
1528180513475993,-2,-3,0,2,-2,0,0,1
1528180513475993,-2,-2,1,-1,2,2,0,1
1528180513478016,1,-3,-1,-2,-1,1,-2,0
1528180513478016,1,-1,0,3,-1,-5,-1,-3
1528180513498147,-1,3,0,-6,-2,-7,-3,0
1528180513498147,0,0,1,-1,0,-2,-1,-1
1528180513504164,-1,1,0,2,1,-1,0,0
1528180513504164,0,-1,-3,-4,-1,2,3,0
1528180513512111,-2,-1,-1,6,2,0,-1,-3
1528180513512111,-4,-1,-4,-1,-2,-1,1,-5
1528180513521114,-2,1,1,-2,-1,-2,0,2
1528180513521114,-1,-3,0,1,0,3,2,2
1528180513534207,0,-2,-1,-1,-1,-1,2,-1
1528180513534207,1,1,1,0,-1,0,-1,-3
1528180513551007,0,-2,0,0,-3,1,-1,-1
1528180513551007,-3,3,-1,-1,-2,-1,0,0
1528180513558190,1,3,-3,-6,-2,1,-2,-1
1528180513558190,0,0,-1,0,-1,1,-3,-3
1528180513559185,1,-2,-2,1,-1,-2,-2,0
1528180513559185,0,-3,0,0,2,-2,2,1
1528180513572306,-3,-3,-1,0,1,-4,3,1
1528180513572306,-1,-3,-1,1,-1,-3,1,-1
1528180513581126,-3,-2,0,-1,-1,1,-3,-3
1528180513581126,-2,-1,1,1,0,-1,-4,-1
1528180513595284,-4,1,1,1,-1,2,-1,-1
1528180513595284,-3,1,1,-3,-1,1,-2,-1
1528180513602293,0,-2,0,0,1,0,1,-3
1528180513602293,1,-2,-4,-1,-1,1,-2,-4
1528180513618358,1,-2,-1,-1,0,0,-4,-3
1528180513618358,0,1,0,-1,-1,-2,-2,2
1528180513620259,-2,3,1,-2,2,-2,-2,1
1528180513620259,-1,3,0,-2,0,0,-2,1
1528180513632264,0,-1,-4,-2,-1,-1,1,1
1528180513632264,-1,-3,-2,1,-1,-2,2,1
1528180513641200,-2,-2,-3,1,0,-4,1,-2
1528180513641200,-1,-1,0,-1,-4,-3,0,-1
1528180513656167,1,0,0,-1,-1,0,-3,-3
1528180513656167,1,-3,0,3,-1,1,-1,0
1528180513669115,2,-2,0,-2,-2,1,-1,-2
1528180513669115,-2,0,2,4,1,-2,-1,-2
1528180513678203,0,3,0,-2,0,0,-1,-3
1528180513678203,1,0,-3,1,-2,0,-2,0
1528180513680054,2,-2,-2,-5,-2,2,-3,1
1528180513680054,-4,0,0,0,-1,-1,-2,0
1528180513701091,-2,-1,2,-1,2,1,2,1
1528180513701091,-4,-2,-2,-2,0,-4,-1,0
1528180513701996,-3,-1,0,1,1,-1,2,-1
1528180513701996,-1,-1,-1,0,-1,-1,1,-3
1528180513714961,-1,-1,0,0,-2,-1,-1,1
1528180513714961,1,-1,0,-1,1,0,0,-1
1528180513722086,0,0,0,1,-1,-1,-3,-1
1528180513722086,1,-1,-2,0,1,-2,-3,-2
1528180513737900,0,-1,-2,2,-2,-2,-1,-2
1528180513737900,1,-1,0,-1,-2,0,0,1
1528180513739895,-1,-2,0,-1,-2,-1,1,3
1528180513739895,1,-1,-1,0,0,1,-1,0
1528180513760980,-2,-5,-2,-1,-1,1,1,0
1528180513760980,-2,-1,-1,-1,1,-1,0,0
1528180513761923,-4,0,0,-1,0,-2,0,-4
1528180513761923,1,2,-3,-1,3,-2,-1,-2
1528180513783121,-1,0,-1,1,1,2,-2,-1
1528180513783121,1,1,-2,-4,-1,1,-1,-3
1528180513784975,-1,-1,1,0,0,-3,-1,-1
1528180513784975,-2,0,-2,-3,-4,0,-2,2
1528180513798096,1,2,0,-1,-1,-1,2,3
1528180513798096,0,1,0,2,-1,0,0,-2
1528180513800091,3,-1,-2,-1,-3,1,-1,-2
1528180513800091,0,-1,-1,-4,-3,2,-1,-1
1528180513820923,-2,-4,0,-2,0,-1,-1,1
1528180513820923,-3,-3,-2,-2,1,0,-1,1
1528180513826998,-2,-1,-1,-1,0,0,-2,0
1528180513826998,0,-2,-2,-1,-1,0,0,0
1528180513835002,1,2,2,-1,-1,-4,-1,0
1528180513835002,-1,1,0,-1,-1,-2,0,-3
1528180513841829,0,1,-1,0,-1,0,1,-2
1528180513841829,-1,-1,-1,0,0,-2,0,-2
1528180513857781,-2,-1,0,-2,-2,0,-4,-2
1528180513857781,2,-1,-1,2,0,-3,-5,-1
1528180513859775,-1,0,0,0,0,-1,-1,0
1528180513859775,-1,-4,1,0,1,4,1,3
1528180513879878,-2,-3,-3,-1,-2,1,2,0
1528180513879878,-2,-2,1,0,-2,-1,2,-1
1528180513888773,-2,0,0,-5,-2,0,-1,-2
1528180513888773,2,1,1,-1,-1,-2,-2,-1
1528180513894812,-2,2,-2,1,2,2,-1,-1
1528180513894812,1,-1,-1,1,1,2,-1,1
1528180513919884,0,0,-1,0,0,1,0,-1
1528180513919884,-1,-2,0,-2,0,-2,-5,0
1528180513920737,-1,0,-2,-2,-1,-1,-2,-4
1528180513920737,0,1,-2,1,-2,-2,1,-2
1528180513924741,-1,-2,-3,-3,-4,0,1,1
1528180513924741,-2,-3,-4,0,-1,-2,2,1
1528180513947803,-1,-3,-1,1,0,-2,2,-1
1528180513947803,-3,1,1,1,-2,1,1,-3
1528180513949652,-1,1,1,1,0,-3,-2,-1
1528180513949652,-1,2,3,1,-1,-4,0,0
1528180513954785,-1,0,-2,-2,-1,-3,-2,0
1528180513954785,-1,-2,-2,-3,1,0,-2,-1
1528180513978706,1,-5,-4,1,1,0,1,3
1528180513978706,1,-4,-1,1,1,0,2,-1
1528180513979567,1,0,2,1,-2,-1,-1,1
1528180513979567,2,-1,0,0,0,3,1,2
1528180513981565,-5,2,0,1,0,1,-1,1
1528180513981565,3,4,-1,0,-1,-4,-4,-2
1528180514008485,0,1,1,1,-1,-1,1,-1
1528180514008485,-3,-3,-3,-3,-3,-3,-1,-2
1528180514009483,0,-4,1,0,-1,-1,-1,0
1528180514009483,-2,-2,0,-1,-2,-1,4,0
1528180514014630,0,2,0,-2,-3,0,1,-2
1528180514014630,2,-3,1,1,1,-1,-2,-2
1528180514038544,-2,-2,-3,-1,0,1,-3,-3
1528180514038544,-3,0,0,1,0,1,-3,0
1528180514039413,0,-1,0,-1,1,3,1,0
1528180514039413,-2,0,-1,1,0,0,-2,2
1528180514041416,3,-1,-3,-3,1,0,-1,-1
1528180514041416,1,-2,0,0,-2,-1,-4,-1
1528180514061737,-3,1,-2,0,-1,-3,-1,2
1528180514061737,0,-2,-2,-1,0,-1,0,0
1528180514062703,1,1,-1,-1,1,1,-1,0
1528180514062703,2,3,1,-3,0,3,0,0
1528180514073673,0,-1,2,-1,-2,-2,-2,-1
1528180514073673,-4,0,0,-2,-4,-3,-1,0
1528180514089747,-1,0,2,1,-1,-2,0,-2
1528180514089747,-4,-2,-1,2,0,-3,1,-4
1528180514097770,-2,-5,-2,-4,0,-2,0,-1
1528180514097770,-2,-2,-3,-2,-1,-2,0,2
1528180514099605,0,-1,-2,0,-3,1,3,-1
1528180514099605,2,2,0,-1,0,-2,-1,-1
1528180514120705,4,-1,-2,0,0,-3,0,-1
1528180514120705,0,1,2,4,1,2,3,-1
1528180514122699,1,-3,1,-1,-1,-1,1,-1
1528180514122699,-3,-1,-1,-3,-1,3,-1,-1
1528180514134673,1,0,0,2,-1,1,-3,-2
1528180514134673,2,-1,2,-2,0,-1,-3,-1
1528180514143486,-3,-1,-2,-1,1,-2,-4,1
1528180514143486,-5,-3,-5,-1,3,1,-2,-2
1528180514158447,9,4,-4,-1,2,2,-2,2
1528180514158447,1,1,-4,0,-1,1,-3,1
1528180514159474,2,1,1,0,-1,-1,-1,0
1528180514159474,-3,-2,0,-1,-4,-1,0,1
1528180514180544,-1,-2,1,0,-2,-1,-1,-2
1528180514180544,1,0,0,1,-1,-3,-2,-3
1528180514182383,0,-1,-2,-2,0,-2,-2,-3
1528180514182383,-1,-2,0,0,0,-3,0,-1
1528180514194540,-4,-1,-1,-2,0,0,1,-2
1528180514194540,2,0,1,-1,-1,-2,1,1
1528180514203328,-1,-2,0,2,-3,-2,0,-2
1528180514203328,-1,-1,-1,-2,0,2,0,-1
1528180514218357,-4,-2,0,-2,-3,-1,-2,-1
1528180514218357,0,-2,1,-3,-4,0,-3,0
1528180514224605,-2,-2,0,-2,-2,0,-1,3
1528180514224605,2,3,-2,-1,0,0,-2,0
1528180514240820,-3,1,-2,-1,0,1,0,-3
1528180514240820,-1,2,-2,-2,2,0,2,-1
1528180514241653,-3,0,-1,1,-1,-1,1,0
1528180514241653,0,-1,-1,0,-2,-2,1,3
1528180514253848,0,0,2,1,-2,2,1,1
1528180514253848,0,-2,-1,1,-2,0,1,-1
1528180514262850,-1,-2,0,0,0,0,1,-1
1528180514262850,-1,-2,-1,-3,1,-1,-2,-3
1528180514285763,-3,-3,0,-1,1,-2,-2,-1
1528180514285763,-3,0,0,-1,1,-1,2,-3
1528180514286795,1,0,-1,-2,0,-1,-1,-2
1528180514286795,2,-1,1,-1,-2,-1,-4,0
1528180514300776,0,0,0,0,-2,-1,-2,-1
1528180514300776,-1,1,-3,-2,0,-1,-2,-2
1528180514301779,0,2,-2,-2,-2,-3,-1,-1
1528180514301779,3,0,0,-1,-3,-3,1,0
1528180514314685,0,-2,0,-2,1,-2,-2,2
1528180514314685,-4,-1,1,0,3,0,-2,0
1528180514328681,-3,-1,-1,1,2,0,-2,-1
1528180514328681,-1,1,0,-2,-2,0,1,-3
1528180514338654,-1,-3,-3,0,-4,0,0,-1
1528180514338654,-1,-3,0,-1,-2,-1,2,0
1528180514340668,2,-1,1,-1,-1,1,0,-2
1528180514340668,-2,-2,-2,2,0,0,-1,-1
1528180514360616,-2,-2,-2,0,2,0,0,1
1528180514360616,-2,1,-2,0,0,1,0,1
1528180514362599,-1,-1,-1,0,-1,-2,-1,1
1528180514362599,1,1,1,1,0,-2,0,-1
1528180514374540,-1,-1,-2,-1,0,-1,-4,-1
1528180514374540,1,-3,-2,-2,-4,-1,-2,0
1528180514383501,-1,-2,-1,-1,-2,2,0,0
1528180514383501,-1,-2,-1,-2,-1,1,1,1
1528180514398461,-1,-2,-1,-2,0,-3,2,-2
1528180514398461,2,0,2,-2,3,2,-2,-2
1528180514399463,1,-1,0,-1,0,0,-2,0
1528180514399463,1,-1,-2,1,-2,0,-2,1
1528180514420402,-1,-3,0,-1,-4,-1,-3,-2
1528180514420402,-2,-1,-3,0,-5,-2,-1,-2
1528180514422397,-2,0,-2,1,-1,-3,-2,-2
1528180514422397,0,0,-1,0,0,-1,-2,0
1528180514434365,-1,1,-2,1,1,-1,0,3
1528180514434365,2,1,1,0,2,0,0,2
1528180514443341,0,0,1,0,3,0,1,0
1528180514443341,-3,-1,0,0,1,0,-2,-2
1528180514457304,-2,1,0,0,0,0,-2,-3
1528180514457304,2,-3,-1,-1,0,-2,-2,-2
1528180514464285,1,-1,-3,0,-1,-1,1,-2
1528180514464285,0,0,0,-1,-1,0,1,0
1528180514480259,1,-2,2,-1,-1,0,1,1
1528180514480259,-2,-3,0,-1,0,0,1,1
1528180514482237,-2,-2,-1,-2,-2,-1,0,-3
1528180514482237,1,-2,-1,-2,1,-1,2,-2
1528180514494259,1,1,-1,-1,2,-1,-1,1
1528180514494259,1,3,-2,0,0,-1,-2,-1
1528180514503182,0,0,-2,-2,0,2,-3,1
1528180514503182,-2,-2,-2,-1,1,2,0,0
1528180514517197,0,2,-1,-2,-1,0,0,1
1528180514517197,0,-1,3,1,-1,-1,-1,0
1528180514531155,-2,-1,1,-1,-4,-1,-1,-1
1528180514531155,-1,-1,-1,-3,-2,-1,1,0
1528180514540137,-3,-4,-3,-3,-1,0,-1,-1
1528180514540137,-1,-2,-2,0,-1,-2,1,0
1528180514542078,-1,0,2,0,-1,2,-1,1
1528180514542078,-2,-1,-2,2,-1,-2,-2,0
1528180514554092,1,-1,2,1,-1,-1,-1,-1
1528180514554092,-2,0,0,0,-1,0,-1,-2
1528180514563020,-1,0,-1,-3,0,0,0,-3
1528180514563020,-1,-1,1,-1,-4,1,-1,0
1528180514576983,0,-2,-1,-2,-1,-1,-3,-2
1528180514576983,0,-4,1,-2,0,-1,-1,0
1528180514584124,0,-1,1,-1,0,-2,1,0
1528180514584124,1,3,0,1,-1,-2,-1,-1
1528180514600919,-3,-2,-3,2,0,0,1,0
1528180514600919,-3,1,-4,1,0,0,-1,-2
1528180514601935,-2,1,-3,1,-1,-1,-2,-1
1528180514601935,1,-1,0,-1,0,-3,-2,0
1528180514614030,-1,0,1,0,-1,-1,-1,-1
1528180514614030,-1,-1,2,-3,-1,1,-3,2
1528180514622973,0,1,0,-4,0,-2,-1,2
1528180514622973,-3,-1,0,-1,0,0,-1,1
1528180514637824,1,-1,0,2,-1,0,1,-4
1528180514637824,-1,-1,0,-2,0,1,3,-3
1528180514643945,1,-2,-1,1,0,-1,2,1
1528180514643945,0,0,-1,-1,1,-1,0,1
1528180514668742,0,4,-1,-2,2,-2,1,1
1528180514668742,-2,2,-1,-2,-2,1,-2,1
1528180514673881,-2,1,1,-1,0,0,-3,2
1528180514673881,1,-3,0,-2,-1,-2,-1,1
1528180514682701,-2,-3,-3,0,0,-1,-3,-2
1528180514682701,1,-1,0,3,-1,-1,-1,-2
1528180514684696,0,-2,-1,0,-3,-3,-1,-1
1528180514684696,-1,-2,1,0,-1,-2,2,-2
1528180514697661,-2,-2,0,-2,0,-3,2,1
1528180514697661,-4,0,-1,-1,1,0,2,3
1528180514703697,-1,0,0,-1,0,1,-2,0
1528180514703697,2,1,0,-2,-1,1,-1,-2
1528180514720808,1,0,-2,1,-2,0,-1,-4
1528180514720808,2,1,-2,2,-1,-1,-2,-2
1528180514721805,0,0,-2,2,0,-1,-1,-1
1528180514721805,-1,3,1,-2,-1,-2,0,1
1528180514742904,1,-1,-1,-2,-3,-2,1,4
1528180514742904,-1,-4,-2,-1,-3,-2,0,-1
1528180514748889,-1,-2,-2,0,2,2,1,-2
1528180514748889,-2,-3,1,-4,1,-1,-2,-3
1528180514756867,1,-2,0,-2,1,-1,-1,1
1528180514756867,-1,4,-1,-2,-1,-3,-2,-1
1528180514765702,-3,2,0,-1,-1,-1,1,-3
1528180514765702,0,1,-2,1,1,1,0,-1
1528180514780803,-1,-1,2,-2,-2,1,-3,-4
1528180514780803,-1,-2,1,0,0,1,-4,-3
1528180514781645,-3,-2,-1,3,1,-1,-1,-1
1528180514781645,-4,-1,-3,3,0,-1,0,0
1528180514810596,-2,1,-2,-1,0,-1,-1,2
1528180514810596,0,-3,0,-2,-1,0,1,-1
1528180514812591,-1,-1,0,-3,-1,-2,1,2
1528180514812591,-2,-1,-1,-1,-2,-2,0,2
1528180514816581,1,1,-1,1,-2,-3,0,-1
1528180514816581,3,-2,-1,2,-2,-3,1,0
1528180514825747,1,-1,-1,-1,-2,-1,-1,-2
1528180514825747,0,-2,-1,-2,-2,1,-1,0
1528180514840695,-2,0,-2,-1,2,3,-2,0
1528180514840695,-1,2,-1,-1,2,2,-4,0
1528180514841690,0,-1,-1,2,-1,1,-1,0
1528180514841690,4,-1,2,-2,-2,0,-1,-1
1528180514862796,-1,1,-2,0,0,-1,1,-1
1528180514862796,-3,1,-1,0,0,-1,-1,-1
1528180514864628,1,1,0,-4,-2,-1,0,1
1528180514864628,1,0,-1,0,-2,-1,1,0
1528180514876596,1,-3,-2,-1,0,-2,-1,-2
1528180514876596,1,-2,-1,-3,-2,-1,-3,-1
1528180514885572,0,-1,-1,-2,2,0,-1,-3
1528180514885572,-2,0,-3,0,0,-1,-1,-1
1528180514900535,-4,0,-1,-2,-4,1,-1,0
1528180514900535,-1,0,-1,0,-5,-1,0,-1
1528180514902530,0,0,1,0,-2,0,-2,-1
1528180514902530,1,-2,-2,1,0,-1,0,-2
1528180514923582,-2,-2,1,0,-2,-2,0,0
1528180514923582,-2,-2,0,-3,-1,-1,-2,1
1528180514924515,-1,-3,-1,-1,0,-2,0,0
1528180514924515,-3,1,-2,-2,1,-1,-1,-1
1528180514936436,-2,2,-2,-2,-3,-1,0,2
1528180514936436,-2,2,-1,0,-2,1,3,0
1528180514945432,0,2,-2,4,1,-2,-2,-2
1528180514945432,-4,0,1,1,0,0,-3,-1
1528180514960514,1,2,0,0,1,0,-4,-2
1528180514960514,-1,-1,-1,-2,0,-3,-1,0
1528180514962366,0,-2,-1,-3,-4,-2,2,3
1528180514962366,-2,-2,-2,-1,1,0,-1,-1
1528180514983318,1,-3,0,0,2,1,1,-1
1528180514983318,0,-3,-2,1,4,0,0,-2
1528180514984309,2,-1,-2,2,1,1,-1,-3
1528180514984309,-2,-2,1,-1,-1,0,-1,-1
1528180514996412,-1,-2,2,-1,-2,-2,1,2
1528180514996412,1,0,2,0,-3,-2,0,3
1528180515006262,-1,1,1,-3,-3,-3,-1,1
1528180515006262,0,3,2,-2,0,0,-2,0
1528180515020354,-2,1,0,-1,0,3,-3,0
1528180515020354,-1,-4,1,1,1,-1,0,-1
1528180515022207,-2,-2,-2,-4,1,0,0,-1
1528180515022207,1,0,-2,-1,0,-2,2,-5
1528180515043293,2,-3,-3,-1,-1,-3,0,-6
1528180515043293,1,-1,-2,1,-1,-1,-1,-2
1528180515044166,-3,-2,1,-2,-3,0,-2,0
1528180515044166,-1,0,-1,0,-1,1,-3,3
1528180515057114,0,-3,-2,-1,-2,1,0,0
1528180515057114,0,0,-1,-2,0,0,1,-1
1528180515066093,2,0,-3,0,0,-1,1,-3
1528180515066093,0,0,-1,3,0,-6,1,2
1528180515081115,0,4,0,0,-1,-3,-1,1
1528180515081115,-5,1,-3,-2,-1,0,0,-2
1528180515082047,-2,1,-1,-1,-1,-1,0,-3
1528180515082047,0,-1,-1,-3,-3,1,-1,1
1528180515102994,1,-3,2,0,1,0,2,0
1528180515102994,1,-2,2,1,1,4,3,2
1528180515104989,-1,-1,1,2,1,-1,-1,3
1528180515104989,1,-3,0,-3,2,-3,-2,1
1528180515117991,-3,0,0,1,-1,-3,-3,-3
1528180515117991,-2,-2,-1,-2,-1,-2,-3,-5
1528180515123934,-1,-4,-2,-1,0,0,-3,-2
1528180515123934,-1,-1,-1,-1,-3,1,1,-2
1528180515141047,1,-1,-2,-3,-1,-1,2,0
1528180515141047,0,3,-5,0,0,-5,0,-2
1528180515147030,-1,1,-4,-2,1,-2,2,1
1528180515147030,0,0,1,1,-3,-2,-1,-2
1528180515162987,-3,-1,2,0,-2,-2,1,0
1528180515162987,-5,-1,3,-1,-6,0,-4,2
1528180515164826,1,-3,3,0,-1,0,-1,1
1528180515164826,-2,-1,-2,-1,4,-2,2,-1
1528180515176813,2,-1,-4,-1,2,0,2,0
1528180515176813,2,-1,-1,0,-2,2,0,0
1528180515185769,1,0,0,0,-5,-2,-3,-4
1528180515185769,0,-5,0,0,-3,-2,-3,-3
1528180515200760,1,-1,-3,2,0,-2,-2,-4
1528180515200760,-1,3,-4,-2,2,-3,-2,0
1528180515201746,-2,-2,-3,-2,2,2,-2,2
1528180515201746,0,-2,0,-1,-1,2,-2,2
1528180515222812,-4,-2,0,-1,-3,1,1,2
1528180515222812,-3,-3,-1,0,-2,-2,0,2
1528180515224665,-3,2,-1,-2,0,-4,-2,1
1528180515224665,-1,0,0,-3,1,0,-3,-1
1528180515236792,1,1,0,0,1,1,-2,-3
1528180515236792,-1,1,-2,-1,-1,0,-1,-5
1528180515245611,-2,-3,2,-2,2,0,2,-3
1528180515245611,0,-2,-3,0,1,-2,2,-3
1528180515260711,2,-2,1,-1,0,-4,2,-1
1528180515260711,1,2,2,-1,-3,0,1,1
1528180515262564,2,-1,0,-1,-2,0,1,2
1528180515262564,1,-1,-4,0,-6,0,3,4
1528180515283511,0,0,-1,1,-2,-2,-1,1
1528180515283511,0,-3,-4,3,2,-1,-4,1
1528180515284506,-3,2,-1,-1,0,-2,-5,-2
1528180515284506,2,2,1,0,0,-2,-3,-1
1528180515305612,-1,0,-1,0,-4,-2,-2,-4
1528180515305612,-3,-3,0,-1,-3,0,-1,-2
1528180515307445,1,-1,1,2,0,0,-4,0
1528180515307445,1,-3,1,-1,-1,1,-1,-2
1528180515320412,-1,-2,-1,-3,-1,2,-1,2
1528180515320412,-3,-2,-1,-2,-2,3,2,0
1528180515322405,-3,0,-1,-1,-3,1,4,0
1528180515322405,-2,1,-1,0,-1,-1,1,0
1528180515343363,-3,1,-3,-1,2,-2,-3,-3
1528180515343363,0,1,-2,2,1,-4,1,-1
1528180515344361,3,0,-1,1,0,-3,2,-2
1528180515344361,0,3,0,0,1,0,0,-2
1528180515356454,-4,-1,0,-4,0,2,-1,-1
1528180515356454,-2,-4,-4,-2,2,-1,-4,-2
1528180515365522,1,-4,-2,-1,-2,-1,-2,-3
1528180515365522,2,-1,-4,-1,-2,-1,-3,-1
1528180515379874,2,2,-1,1,-4,0,-3,3
1528180515379874,0,2,3,0,-3,-1,1,3
1528180515380867,0,0,-3,0,0,-3,0,2
1528180515380867,0,0,1,-1,-1,0,-3,-1
1528180515402808,0,-3,1,0,2,-1,2,-5
1528180515402808,-4,-4,-1,2,2,2,0,1
1528180515402808,-6,-3,-2,4,-1,-1,0,3
1528180515402808,-4,-4,-2,0,-1,-2,-3,0
1528180515424784,-1,-2,-1,-3,1,-4,0,-3
1528180515424784,1,-1,2,-4,-3,-2,3,-2
1528180515424784,1,-1,2,-4,-3,-2,3,-2
1528180515424784,1,-1,2,-4,-3,-2,3,-2
1528180515424784,1,-1,2,-4,-3,-2,3,-2
1528180515424784,1,-1,2,-4,-3,-2,3,-2
1528180515424784,1,-1,2,-4,-3,-2,3,-2
1528180515424784,1,-1,2,-4,-3,-2,3,-2
1528180515424784,1,-1,2,-4,-3,-2,3,-2
1528180515424784,1,-1,2,-4,-3,-2,3,-2
1528180515424784,1,-1,2,-4,-3,-2,3,-2
1528180515424784,1,-1,2,-4,-3,-2,3,-2
1528180515424784,1,-1,2,-4,-3,-2,3,-2
1528180515424784,1,-1,2,-4,-3,-2,3,-2
1528180515424784,1,-1,2,-4,-3,-2,3,-2
1528180515424784,1,-1,2,-4,-3,-2,3,-2
1528180515424784,1,-1,2,-4,-3,-2,3,-2
1528180515424784,1,-1,2,-4,-3,-2,3,-2
1528180515424784,1,-1,2,-4,-3,-2,3,-2
1528180515424784,1,-1,2,-4,-3,-2,3,-2
1528180515424784,1,-1,2,-4,-3,-2,3,-2
1528180515424784,1,-1,2,-4,-3,-2,3,-2
1528180515424784,1,-1,2,-4,-3,-2,3,-2
1528180515424784,1,-1,2,-4,-3,-2,3,-2
1528180515424784,1,-1,2,-4,-3,-2,3,-2
1528180515424784,1,-1,2,-4,-3,-2,3,-2
1528180515424784,1,-1,2,-4,-3,-2,3,-2
1528180515424784,1,-1,2,-4,-3,-2,3,-2
1528180515424784,1,-1,2,-4,-3,-2,3,-2
1528180515424784,1,-1,2,-4,-3,-2,3,-2
1528180515424784,1,-1,2,-4,-3,-2,3,-2
1528180515424784,1,-1,2,-4,-3,-2,3,-2
