timestamp,emg1,emg2,emg3,emg4,emg5,emg6,emg7,emg8
1529306606837994,-5,-3,-2,-4,-9,-7,-5,-5
1529306606837994,-1,-7,-3,0,6,7,3,1
1529306606844982,3,1,0,3,7,-1,2,2
1529306606844982,-2,0,-2,-2,-1,0,-4,-5
1529306606845983,3,4,5,1,1,-2,-3,2
1529306606845983,-4,-4,-3,-6,-8,-8,-6,-4
1529306606846970,-3,-5,-7,-3,-3,-2,-3,-5
1529306606846970,2,1,1,0,5,5,4,4
1529306606853963,1,-2,2,2,-5,-7,0,-1
1529306606853963,-1,2,0,1,8,7,-2,-1
1529306606860933,1,1,0,1,-1,0,-1,4
1529306606860933,-1,-3,-6,-3,-10,-5,3,2
1529306606865919,2,1,-3,-3,7,6,0,0
1529306606865919,-1,1,-1,0,-4,-2,-3,-3
1529306606880879,-1,-2,1,-5,-1,0,-1,-4
1529306606880879,0,-3,0,1,-4,-1,-1,0
1529306606889854,4,5,3,7,11,6,3,5
1529306606889854,0,0,-2,3,-2,-9,1,0
1529306606895839,-3,-6,-1,3,5,9,4,0
1529306606895839,-3,-2,-5,-6,-4,-6,-6,-4
1529306606911797,-2,-5,-1,-1,-1,2,2,-1
1529306606911797,-3,-2,0,0,-4,-3,-4,-4
1529306606919774,3,6,5,-2,-3,-7,-2,0
1529306606919774,-2,-8,-4,1,8,7,7,2
1529306606960666,3,3,8,3,-2,-5,2,1
1529306606960666,-2,-2,-4,-2,-1,1,-1,-1
1529306606961663,-1,0,-1,0,0,1,-1,-1
1529306606961663,-1,6,15,7,-2,-3,-6,-3
1529306606963694,-2,-4,-5,-4,-4,-4,1,2
1529306606963694,-1,1,2,7,10,4,1,-3
1529306606964656,-1,3,6,3,2,-1,-3,-2
1529306606964656,-3,-10,-17,-6,-7,-8,-2,-2
1529306606971665,0,2,-1,4,8,8,-1,-2
1529306606971665,4,7,13,2,-2,0,2,4
1529306606977621,-2,-4,-7,-3,5,5,1,0
1529306606977621,0,7,12,2,2,2,0,-1
1529306606985600,-6,-8,-9,-5,-11,-8,-4,-1
1529306606985600,2,3,-4,-2,-1,1,1,1
1529306607000612,2,6,8,5,9,4,2,1
1529306607000612,0,-2,-4,-6,-10,-3,1,2
1529306607009574,-1,-2,-5,-1,6,4,-3,-1
1529306607009574,4,1,5,3,7,7,5,1
1529306607015559,-7,-10,-9,-8,-12,-11,-3,-4
1529306607015559,-5,-10,-7,-1,8,7,2,-3
1529306607031476,6,10,6,-1,-11,-5,0,1
1529306607031476,-6,-8,-3,-4,-4,-8,-9,-4
1529306607038458,-2,-3,-6,-1,-3,-2,-3,-3
1529306607038458,2,5,1,0,-3,3,3,0
1529306607045443,-2,-3,-6,2,1,1,-3,-2
1529306607045443,3,8,11,3,0,-7,1,2
1529306607062394,-2,-6,-7,-4,-5,-4,-2,-1
1529306607062394,1,1,0,-1,1,2,0,2
1529306607068378,-5,-5,-4,-8,-2,-3,-3,-5
1529306607068378,-5,-5,-8,-4,-4,0,0,-3
1529306607075360,4,2,0,7,8,5,5,3
1529306607075360,-1,-3,0,-1,-7,-12,-5,-2
1529306607091316,3,1,2,3,13,12,8,4
1529306607091316,-6,-12,-13,-6,-5,1,-5,-4
1529306607098298,1,3,4,-2,-3,-2,0,0
1529306607098298,-2,0,3,2,1,-1,0,-2
1529306607105300,1,0,-5,-4,-7,-4,1,0
1529306607105300,-2,-2,-3,-4,-6,-4,0,0
1529306607120239,-1,3,7,5,2,3,-2,-2
1529306607120239,-1,-1,0,0,2,-4,-6,0
1529306607128220,-7,-8,-3,-3,-5,0,-3,-4
1529306607128220,3,-6,-5,2,0,-2,0,-1
1529306607135218,4,11,11,0,-1,1,-2,-1
1529306607135218,1,-1,-2,2,-4,-6,-2,-1
1529306607151157,0,5,4,0,8,8,2,0
1529306607151157,-10,-13,-13,-7,-4,0,-3,-4
1529306607158138,3,1,7,1,2,-1,0,3
1529306607158138,-1,-1,-4,-5,-2,0,0,0
1529306607165119,2,1,0,-1,-1,-2,-1,1
1529306607165119,-1,3,4,5,2,1,1,-2
1529306607180080,0,4,1,-4,-17,-13,-4,-3
1529306607180080,0,-1,-8,2,12,8,-2,-5
1529306607189083,5,7,6,3,6,2,1,4
1529306607189083,1,5,4,-1,-4,-5,-2,2
1529306607195039,-1,-7,-11,-4,-7,-3,-1,0
1529306607195039,0,-1,-4,2,10,8,2,0
1529306607210997,-1,1,3,1,-4,-5,-5,-5
1529306607210997,-2,-5,-6,-6,-9,-4,-5,-3
1529306607218024,-1,-1,-6,-4,2,1,0,0
1529306607218024,-1,3,2,0,-2,-4,-1,-1
1529306607234933,-1,-1,8,8,0,0,1,1
1529306607234933,2,1,-2,-1,-1,-1,-1,0
1529306607248934,-3,-1,5,1,2,1,0,-2
1529306607248934,-4,-8,-6,-6,-3,1,-1,-1
1529306607250893,0,0,0,1,-3,-5,-2,-2
1529306607250893,-2,-2,-2,-6,-3,0,0,-1
1529306607262859,5,5,0,3,3,3,1,3
1529306607262859,1,-2,-2,0,-7,-8,-2,-1
1529306607271834,-1,-3,-1,0,7,3,0,-2
1529306607271834,1,6,6,2,1,-1,-5,-2
1529306607277822,-6,-12,-12,-4,12,7,4,-1
1529306607277822,1,1,-1,-6,-5,-5,-2,0
1529306607294778,2,1,-1,1,-3,1,0,0
1529306607294778,-2,-8,-3,0,-3,-6,-1,-2
1529306607300757,4,13,13,6,0,1,0,1
1529306607300757,0,0,1,-1,0,2,-1,-2
1529306607309734,-1,-4,-9,-4,-2,-3,0,2
1529306607309734,-4,-3,1,-3,0,-5,-4,-4
1529306607322724,-3,-2,-2,4,1,4,0,-2
1529306607322724,0,3,2,-1,-1,-1,-4,-2
1529306607331726,0,-2,-7,-8,5,6,5,2
1529306607331726,3,3,-1,8,5,2,1,1
1529306607337686,-2,-8,-8,-9,-8,-6,-2,0
1529306607337686,1,1,3,2,4,5,1,2
1529306607354614,-3,5,14,11,-6,-13,-8,-4
1529306607354614,-2,-1,-4,-7,4,6,4,1
1529306607360597,1,-5,-8,-1,-8,-5,-3,-2
1529306607360597,-4,-5,3,-2,11,9,6,1
1529306607369573,-3,-8,-5,-6,-9,-4,-4,-5
1529306607369573,3,4,0,4,1,1,1,1
1529306607382537,1,5,12,4,-1,-4,-2,1
1529306607382537,-3,-4,-7,-8,-9,-5,-1,-2
1529306607391519,-2,-1,1,0,1,1,-2,-2
1529306607391519,1,6,12,2,-6,-2,0,0
1529306607398495,-2,-8,-4,4,4,4,-3,-2
1529306607398495,10,16,12,8,11,9,9,6
1529306607414455,-3,-7,-11,-9,-5,1,2,0
1529306607414455,-3,-3,-3,-5,-7,-6,-5,-4
1529306607420463,-3,-6,-8,-7,-1,-6,-2,-3
1529306607420463,-3,-5,-1,4,-5,-2,-2,-2
1529306607429413,-1,-3,-2,1,-1,2,2,2
1529306607429413,5,8,5,-1,1,1,-1,2
1529306607443378,-1,-3,0,-7,-4,-6,-1,-1
1529306607443378,0,-2,-7,-1,5,6,-1,-1
1529306607452351,3,7,9,5,-4,-5,-5,-4
1529306607452351,-1,-4,-3,2,0,1,2,0
1529306607458336,2,4,4,0,-3,-6,0,0
1529306607458336,0,0,1,-4,2,0,-1,1
1529306607474293,1,-1,-4,-3,-9,-8,-2,0
1529306607474293,1,4,6,4,13,9,-1,-2
1529306607480277,-3,-2,-2,0,1,5,1,-1
1529306607480277,-5,-7,-7,-6,-11,-9,-4,-3
1529306607489252,-1,1,0,0,8,8,3,1
1529306607489252,1,3,2,2,-4,-2,2,4
1529306607503262,-2,-1,-3,-6,-1,1,0,0
1529306607503262,0,-3,-3,0,-4,-4,0,0
1529306607512192,0,4,4,4,13,10,1,0
1529306607512192,0,1,1,0,0,-1,-1,-1
1529306607518175,0,-1,-2,-2,-4,-3,-3,-2
1529306607518175,-1,-3,-1,-1,-3,-3,1,2
1529306607534134,1,-2,-9,-8,-7,-8,-3,0
1529306607534134,-2,-1,5,6,-5,-4,-2,-2
1529306607540118,0,2,2,1,5,2,3,-1
1529306607540118,-1,-2,0,3,5,4,-1,-3
1529306607549095,-3,-9,-11,-7,-5,-1,-1,0
1529306607549095,6,8,7,3,-5,-5,0,2
1529306607563107,-2,0,3,4,0,2,-1,-2
1529306607563107,-1,1,4,-1,-4,-2,-1,-2
1529306607572031,-1,-3,-8,-2,4,3,0,-2
1529306607572031,-5,-3,-1,4,-2,-3,-3,-4
1529306607586000,2,2,1,3,1,4,4,2
1529306607586000,-2,-1,-1,-2,-4,-5,-7,-4
1529306607594976,1,2,5,1,-7,-5,2,1
1529306607594976,-4,-8,-11,-6,2,1,1,-4
1529306607600954,-1,-1,-4,-4,-8,-6,-3,-2
1529306607600954,-1,-1,-1,-1,-1,-1,1,0
1529306607609984,-2,-1,3,-1,4,-3,-6,-4
1529306607609984,1,-4,-6,-9,-2,2,2,2
1529306607622895,0,-1,-1,1,-10,-5,1,1
1529306607622895,1,2,1,0,6,-1,-2,1
1529306607631871,2,4,4,8,4,2,-2,1
1529306607631871,0,2,5,1,1,1,3,1
1529306607637906,-1,-4,-4,-7,-6,-1,-4,-2
1529306607637906,-3,-2,-2,-3,-3,-9,-4,-2
1529306607654855,0,4,9,8,20,23,10,2
1529306607654855,-3,-8,-16,-11,-1,2,-2,-1
1529306607660817,1,2,3,3,6,-5,2,2
1529306607660817,2,0,-2,-5,-9,-3,-1,1
1529306607669770,0,-4,-8,-3,-6,-3,-3,-1
1529306607669770,-1,1,3,1,-2,-3,-1,-1
1529306607682735,2,3,2,8,7,7,1,1
1529306607682735,1,2,3,0,-1,-4,-3,-3
1529306607691747,-3,-5,0,-4,-6,-5,-1,-1
1529306607691747,-2,-7,-12,-10,-24,-16,-6,-3
1529306607697695,-1,2,3,2,10,7,-2,0
1529306607697695,-1,0,7,6,5,9,6,1
1529306607714664,-1,0,-1,-1,11,2,-3,-1
1529306607714664,-5,-8,-8,-4,0,-2,-3,-1
1529306607720857,0,0,2,-6,-8,-11,-4,-1
1529306607720857,-1,-3,-19,-7,-15,-8,-3,-2
1529306607729610,1,10,26,11,6,4,2,1
1529306607729610,3,2,7,17,24,3,3,2
1529306607742606,-1,2,9,10,19,13,2,0
1529306607742606,-3,-7,-9,-12,-9,-5,-2,-1
1529306607751583,-4,-8,-14,-14,-8,4,-1,-3
1529306607751583,0,-3,-8,-9,-2,11,2,-1
1529306607757782,0,5,11,9,2,-8,-1,1
1529306607757782,2,1,7,9,9,4,0,1
1529306607782469,-3,-5,-9,-8,-13,-11,-4,-2
1529306607782469,2,2,8,-4,-7,2,2,1
1529306607783467,-3,-11,-19,-16,-38,-23,-4,-5
1529306607783467,1,5,2,-5,13,23,6,3
1529306607789450,0,5,9,18,14,-4,-1,0
1529306607789450,2,5,6,4,3,-1,-2,0
1529306607803771,-3,-7,-11,-14,-4,5,2,-1
1529306607803771,-2,-6,-9,4,-4,-16,-7,-1
1529306607812390,-1,-1,-4,-13,-14,-1,-5,-2
1529306607812390,2,4,1,0,-12,-14,1,3
1529306607818422,-1,-2,-3,-5,6,1,-4,-4
1529306607818422,-5,-6,-1,-5,14,23,7,0
1529306607834656,2,1,-10,6,4,-11,-4,-2
1529306607834656,3,3,1,3,10,19,6,4
1529306607840818,-2,-2,1,2,13,3,-2,-1
1529306607840818,1,4,3,5,-14,-16,-5,-3
1529306607849546,2,2,6,3,2,3,4,1
1529306607849546,-3,-1,-4,-4,0,-3,-5,-3
1529306607862858,0,3,8,4,0,5,2,0
1529306607862858,-2,-2,-5,-4,-1,1,-4,-1
1529306607871999,-3,-3,-2,-6,-16,-13,-5,-2
1529306607871999,-3,0,3,2,-10,-15,-5,-2
1529306607877784,3,4,3,3,23,19,8,4
1529306607877784,-3,-1,-3,-6,-8,-7,0,1
1529306607894730,0,5,10,7,-3,-1,-1,2
1529306607894730,0,1,0,-2,-11,-12,-4,-2
1529306607900976,-4,-9,-10,0,30,39,2,-3
1529306607900976,1,3,7,5,8,3,-1,-3
1529306607910209,-1,-4,-3,-4,-1,0,2,1
1529306607910209,-3,-4,-7,-4,6,10,2,-2
1529306607922987,1,2,-1,-4,-23,-20,-3,1
1529306607922987,3,-1,1,-1,-2,2,-2,1
1529306607932195,-1,-2,-5,-5,7,7,-2,-1
1529306607932195,1,0,0,4,-1,-7,-3,0
1529306607945162,0,-1,-2,-2,-8,-7,-2,-1
1529306607945162,-1,1,3,3,3,-2,-5,-5
1529306607954143,2,-1,-1,-1,-4,-1,10,8
1529306607954143,-2,0,-1,-3,0,-2,-1,-1
1529306607969096,-2,-2,-3,-5,-6,-5,-1,-2
1529306607969096,2,3,10,10,5,2,0,2
1529306607971091,-2,-4,-7,-5,-3,-2,-3,-7
1529306607971091,0,0,9,6,5,8,3,-2
1529306607983059,-1,-2,-3,-1,0,-2,-2,0
1529306607983059,-2,1,1,-3,-9,-9,-2,-2
1529306608000016,-3,-3,-7,-6,-6,-4,-3,0
1529306608000016,1,3,7,7,13,10,5,2
1529306608005000,-2,-1,-2,-1,-5,-7,-5,-3
1529306608005000,-6,-3,0,-1,-2,-2,-8,-20
1529306608014973,9,4,1,-1,-2,-2,4,30
1529306608014973,-5,-5,-6,-4,-1,1,0,-4
1529306608030217,2,1,-1,-1,-7,-1,2,4
1529306608030217,-1,0,-2,-3,2,2,2,-1
1529306608030932,-4,-2,0,0,-1,-1,-2,-11
1529306608030932,-1,-1,-1,-2,0,-2,-12,-6
1529306608042898,-6,-2,0,2,-1,-3,-2,-7
1529306608042898,4,2,0,1,2,0,1,14
1529306608051875,0,0,-1,0,-4,-6,-2,-5
1529306608051875,-6,-8,-3,-1,-3,-9,-9,-13
1529306608066183,-9,-6,-2,1,0,-1,3,-15
1529306608066183,8,4,0,1,2,5,5,23
1529306608074814,7,3,1,-3,-3,-14,-17,3
1529306608074814,0,-5,-4,-3,0,13,-3,6
1529306608090109,2,1,2,-3,1,-1,-8,-10
1529306608090109,-14,-5,-3,1,1,-5,-4,-19
1529306608091864,1,0,2,-1,0,8,14,9
1529306608091864,1,2,-2,3,7,1,3,1
1529306608103811,-4,-3,-4,-4,-10,-11,-9,0
1529306608103811,2,2,-3,-1,-6,8,1,2
1529306608112026,-13,-15,-9,-8,-13,-17,-5,-14
1529306608112026,4,5,-4,-1,11,2,-8,-7
1529306608125939,8,6,5,2,5,9,8,18
1529306608125939,4,5,1,2,-4,-9,-5,-2
1529306608134654,-6,-2,0,4,-1,-7,-3,-12
1529306608134654,-4,-10,-8,-7,-1,19,18,11
1529306608149859,5,-6,-8,-5,-9,-14,-7,7
1529306608149859,12,12,7,5,9,15,15,8
1529306608150611,-4,7,2,0,-4,-12,-16,-22
1529306608150611,-8,-8,0,7,21,16,15,14
1529306608163732,-6,-3,-8,-5,-11,-7,-5,-11
1529306608163732,5,-14,-7,-11,-12,-11,-6,0
1529306608180290,1,6,6,7,5,5,10,8
1529306608180290,18,25,9,-1,-10,-15,-13,-14
1529306608194183,-11,-9,2,3,-1,0,8,9
1529306608194183,8,4,1,2,0,-3,-9,-3
1529306608196137,2,1,0,-5,5,14,13,4
1529306608196137,-17,-15,-5,-5,-8,-9,-21,-15
1529306608210234,19,17,12,4,6,7,14,20
1529306608210234,-8,-4,1,0,-2,0,11,8
1529306608211115,-5,3,6,6,11,8,-1,-12
1529306608211115,21,-5,-7,-12,-17,-6,28,47
1529306608223347,-16,2,-3,0,-3,-6,-6,-29
1529306608223347,1,-4,1,2,17,14,-11,-7
1529306608232082,-10,-8,-4,-4,-1,2,1,-7
1529306608232082,3,3,6,1,-8,1,33,25
1529306608246227,-5,0,-1,1,-5,-12,-40,-17
1529306608246227,-21,-6,-5,-4,4,2,1,-26
1529306608255165,1,-12,-9,-1,6,6,1,-9
1529306608255165,-4,8,-5,-6,-12,-5,15,-31
1529306608269985,32,6,7,9,11,1,-6,85
1529306608269985,-16,-1,3,0,-2,-9,-18,-7
1529306608270980,-13,-9,-10,-11,-11,-12,-30,-40
1529306608270980,-6,-15,-1,4,10,24,31,24
1529306608282987,-20,-10,-8,-4,-8,6,17,-24
1529306608282987,3,6,-3,-6,-13,-12,3,13
1529306608291923,15,6,9,9,12,15,8,34
1529306608291923,-27,-8,-3,-4,-7,-16,-37,-52
1529306608305886,14,5,2,-1,-4,-17,-48,-14
1529306608305886,2,-1,2,-1,3,2,18,39
1529306608314862,5,-3,-1,-4,-8,-1,16,21
1529306608314862,6,14,2,0,-6,-15,-28,-3
1529306608330047,-24,-18,-4,-8,-4,1,-9,-52
1529306608330047,21,11,1,2,-8,-7,12,16
1529306608330819,-12,-8,0,0,-6,2,-4,-12
1529306608330819,-6,5,2,4,14,8,-37,-35
1529306608342798,20,10,2,-1,1,3,29,51
1529306608342798,1,-6,-8,-5,-2,-9,-11,-16
1529306608351923,1,-6,2,1,-6,0,12,10
1529306608351923,6,2,4,6,8,2,-13,-7
1529306608365953,14,4,1,2,4,0,13,19
1529306608365953,-16,-4,1,0,-1,9,-1,-4
1529306608375207,5,7,-3,0,-1,-14,-31,-21
1529306608375207,-6,-7,-3,-4,-2,-3,17,24
1529306608389569,11,2,-5,-4,0,2,19,10
1529306608389569,-1,-1,-2,-2,-8,-12,-2,-13
1529306608391237,-3,7,-4,0,2,-4,-58,-32
1529306608391237,-3,-17,-11,-5,-5,1,17,14
1529306608403452,-5,-5,-4,-1,3,11,17,5
1529306608403452,7,2,-1,-2,-7,-3,-3,6
1529306608412167,-19,-5,-4,-1,7,4,1,-18
1529306608412167,19,12,11,8,7,8,19,36
1529306608426281,-6,1,-1,0,-4,-9,3,-16
1529306608426281,-2,-7,-2,2,-1,0,6,-3
1529306608435348,7,4,0,1,2,-2,27,25
1529306608435348,9,2,-2,-1,3,-2,-29,-8
1529306608449103,-4,13,9,4,-3,0,6,-19
1529306608449103,-15,-8,-4,0,12,15,1,-15
1529306608451063,10,1,1,-2,-8,-3,9,21
1529306608451063,-14,-10,-6,-5,-3,2,21,-8
1529306608463032,-1,0,0,1,-3,-4,-7,-3
1529306608463032,4,4,3,5,16,16,4,3
1529306608472008,-4,-6,-4,-6,-14,-12,-11,-9
1529306608472008,-1,7,5,1,-7,-3,-2,-5
1529306608486008,-9,-9,-8,-6,3,3,8,-3
1529306608486008,6,3,6,4,7,3,14,4
1529306608494948,19,6,0,0,0,1,15,37
1529306608494948,-22,-11,-4,-3,-2,-7,-9,-20
1529306608508908,-8,-8,-5,-5,-7,-8,-16,-12
1529306608508908,-5,14,5,3,-2,-6,-14,-24
1529306608515890,7,-7,1,6,6,7,18,16
1529306608515890,6,8,3,-1,-7,-6,-1,0
1529306608522873,0,-5,-3,-2,1,3,-5,-1
1529306608522873,-6,-5,-2,-2,-7,-9,-8,-13
1529306608531860,3,3,0,1,7,6,2,6
1529306608531860,-5,0,0,-1,-6,-15,-11,-6
1529306608545814,-5,-4,-1,-3,10,11,2,-9
1529306608545814,7,-4,-1,-2,-5,-6,9,24
1529306608554787,-6,-1,0,-1,6,6,10,-5
1529306608554787,3,-1,-1,-1,0,0,-13,-10
1529306608568770,1,-4,-4,0,1,3,4,2
1529306608568770,-4,-3,0,-2,-6,-8,-11,-8
1529306608575730,2,3,1,-1,1,-2,-1,6
1529306608575730,3,4,-1,2,5,7,4,4
1529306608583767,-1,2,0,0,-1,-2,-6,-5
1529306608583767,-1,-7,-4,-1,1,1,-2,7
1529306608591942,-6,-1,-2,-1,-5,0,8,-11
1529306608591942,6,3,3,2,1,0,-4,2
1529306608605893,0,-1,-1,2,0,1,4,2
1529306608605893,1,-3,-2,-3,-2,-4,-5,0
1529306608614186,-4,0,1,-1,-1,1,1,-2
1529306608614186,-2,-9,-4,-1,-3,1,-1,-2
1529306608629149,-1,4,3,0,0,1,0,4
1529306608629149,0,-3,-2,-1,0,2,2,-1
1529306608635704,2,6,5,0,0,-1,0,8
1529306608635704,2,-2,-1,-3,-2,-5,0,4
1529306608643417,0,-4,1,1,0,1,1,-2
1529306608643417,0,1,-2,-3,-3,-1,-7,-6
1529306608652397,-5,-5,-4,-2,-3,-3,-7,-28
1529306608652397,3,-1,0,1,1,0,7,7
1529306608665357,0,0,-1,-3,1,-2,-1,3
1529306608665357,-3,-3,-4,-2,-3,-2,1,4
1529306608674333,0,0,1,0,1,1,-4,-6
1529306608674333,3,4,0,-2,0,-1,1,2
1529306608688340,-3,-2,1,0,-2,-2,-4,-6
1529306608688340,-2,-2,-3,-1,0,-1,-3,-2
1529306608695296,-3,-2,-2,-2,-3,-2,0,1
1529306608695296,1,0,0,-1,-2,-3,-3,-2
1529306608712284,1,-1,-2,0,-2,0,1,7
1529306608712284,2,1,1,0,-2,-2,-2,-2
1529306608713283,-1,1,0,0,-1,-1,0,4
1529306608713283,1,0,-3,-1,0,3,0,4
1529306608725254,-3,-4,-3,-2,0,0,-4,-13
1529306608725254,0,0,2,0,-2,-2,4,15
1529306608734220,-3,-6,-3,-2,0,1,0,-1
1529306608734220,3,1,2,0,1,2,0,-3
1529306608749190,-2,0,-2,-2,-2,-5,-2,-3
1529306608749190,0,0,0,-1,1,0,-4,-3
1529306608755168,0,-2,-3,-2,-2,0,-1,2
1529306608755168,-1,-6,0,1,0,-4,1,2
1529306608772123,4,6,6,3,4,8,3,2
1529306608772123,-3,-2,-4,-3,-3,-3,-1,-1
1529306608773121,1,0,-3,-4,-1,-3,-2,-1
1529306608773121,-3,1,3,4,2,0,0,-3
1529306608786071,-2,0,-2,-2,-3,-3,0,1
1529306608786071,2,-1,0,2,1,2,0,-2
1529306608795021,-2,-2,-2,1,0,-1,0,-1
1529306608795021,-1,-2,-4,-3,-2,-2,0,-1
1529306608809027,-2,-5,-2,-1,0,0,-1,1
1529306608809027,1,5,4,9,11,5,0,2
1529306608816028,-2,-3,-4,-12,-13,-2,-3,0
1529306608816028,-2,0,-2,1,3,1,-1,1
1529306608831965,-1,-1,3,11,6,1,-1,0
1529306608831965,-3,-6,-7,-5,-5,-2,-2,-5
1529306608833906,4,8,8,5,1,1,2,3
1529306608833906,-1,-4,-11,-24,-23,-12,-6,-3
1529306608845928,0,-1,3,5,7,6,1,0
1529306608845928,-1,0,2,16,10,1,0,-2
1529306608854850,-3,-4,-2,0,7,4,1,1
1529306608854850,-2,-2,2,1,-3,-2,-1,0
1529306608868839,5,9,0,-7,-3,-1,1,1
1529306608868839,-4,-7,-7,-14,-15,-8,-5,-4
1529306608875845,-1,4,5,8,4,5,1,0
1529306608875845,2,8,5,0,1,3,1,1
1529306608891807,-2,-5,-5,-1,3,-2,0,-2
1529306608891807,0,-2,0,-5,-9,-5,-1,-1
1529306608893746,1,1,4,2,-2,-4,-1,-1
1529306608893746,-2,-8,-9,-2,2,0,-4,-3
1529306608905767,1,2,5,7,-1,-5,-3,-1
1529306608905767,-1,-5,-4,-5,3,7,4,-2
1529306608914690,-1,-2,-3,-8,-3,-3,-2,-1
1529306608914690,0,-1,-1,4,1,0,-1,-1
1529306608928707,-2,2,4,1,-2,-2,-3,-2
1529306608928707,-2,0,-5,-5,-1,-3,-4,-1
1529306608935687,-2,-3,-4,-3,-2,-3,-2,-1
1529306608935687,-1,-4,-4,-4,0,0,1,-2
1529306608951645,-1,-2,-1,2,-1,0,-2,0
1529306608951645,3,4,-1,-9,-2,0,0,1
1529306608953586,-1,1,2,7,2,-1,1,0
1529306608953586,0,3,3,7,6,3,2,2
1529306608965596,-3,-3,-10,-13,-11,-4,-3,0
1529306608965596,1,-1,7,13,8,1,2,1
1529306608974591,0,-2,-6,0,-1,-2,-1,-1
1529306608974591,-1,-4,-4,-3,-2,-3,0,-2
1529306608988494,0,-2,-2,1,-3,-4,1,0
1529306608988494,-1,2,3,-6,-4,-1,2,1
1529306608995474,-1,0,-2,-4,-3,0,-1,-2
1529306608995474,0,1,3,4,1,0,1,1
1529306609011431,-1,-2,0,-5,-4,-1,0,-2
1529306609011431,-1,0,-3,1,0,-1,0,0
1529306609013425,0,-2,-1,2,2,-2,-1,-2
1529306609013425,0,1,2,0,-2,-1,-2,0
1529306609025665,0,-2,-3,-2,2,0,-3,-2
1529306609025665,0,0,-1,-1,-1,0,-2,-2
1529306609034507,0,1,1,2,0,0,-1,-1
1529306609034507,0,1,2,0,0,2,-2,0
1529306609049505,-1,-3,-2,-3,-1,-2,-2,0
1529306609049505,0,0,0,1,-2,-1,-2,-2
1529306609056354,1,0,0,-2,0,0,-2,1
1529306609056354,1,-2,-1,-2,0,-1,-1,0
1529306609071802,-1,-3,-1,-1,-1,-2,0,0
1529306609071802,0,-1,1,1,-2,-1,-1,0
1529306609073799,0,-2,-1,-2,-1,-1,-2,-2
1529306609073799,0,0,1,1,1,0,-1,-2
1529306609085767,0,0,-1,-2,1,-1,-1,2
1529306609085767,-1,0,2,0,-1,0,1,1
1529306609095015,0,0,-1,-3,-2,0,0,0
1529306609095015,-1,-1,1,1,2,0,-1,-1
1529306609109244,-1,-1,-2,-2,-1,2,0,-2
1529306609109244,-1,-2,-1,-2,-1,-1,-2,-2
1529306609116271,0,-1,1,1,1,-2,-1,0
1529306609116271,-1,0,0,-1,0,-2,-1,-1
1529306609132673,0,0,0,-2,-2,-2,-1,-1
1529306609132673,0,1,-2,0,-1,-1,-2,0
1529306609133563,-2,1,0,1,-1,-1,0,1
1529306609133563,-1,0,0,0,-1,0,0,0
1529306609145730,-1,-2,0,0,-2,0,0,-1
1529306609145730,0,-1,-2,-2,0,-2,-2,-1
1529306609154467,0,0,-2,-1,-1,-1,-2,-2
1529306609154467,1,-1,1,0,-2,-1,-1,1
1529306609168451,-1,0,-3,0,0,0,-2,0
1529306609168451,-2,-2,-1,-1,0,0,1,-3
1529306609175452,-2,0,2,-1,-1,-1,0,-1
1529306609175452,0,-2,-2,0,-1,0,2,-1
1529306609192614,1,-2,-1,0,0,-1,-1,-1
1529306609192614,-1,0,-2,-3,-2,-1,-2,-1
1529306609193359,-1,0,0,0,1,-2,-1,-1
1529306609193359,-2,1,-1,-1,0,1,-1,-1
1529306609205591,-2,0,-1,-1,-3,-1,2,-2
1529306609205591,-1,-3,-1,-1,2,0,-1,0
1529306609214484,-1,-1,-3,0,-2,-1,0,-1
1529306609214484,-1,0,-1,-1,-1,-2,-1,0
1529306609229266,-1,-2,0,0,-2,0,-1,0
1529306609229266,0,-1,2,1,-2,0,0,-1
1529306609236270,0,-1,-1,-1,-1,1,0,-1
1529306609236270,0,-2,0,0,0,1,0,-2
1529306609252464,0,-1,0,-1,-2,0,0,-1
1529306609252464,-1,-1,0,0,-2,0,0,-1
1529306609254326,0,0,-1,2,1,0,0,0
1529306609254326,-1,0,1,-1,2,-1,-1,0
1529306609266277,2,0,-1,0,-1,-1,-3,-1
1529306609266277,-1,0,-1,-1,-2,-1,-2,0
1529306609275390,0,-1,-1,0,-1,-1,-1,0
1529306609275390,0,-1,-1,-1,-1,0,1,1
1529306609289392,1,-1,0,-1,-1,-1,1,-1
1529306609289392,2,-1,-1,-1,0,2,-2,0
1529306609295422,-2,-2,-3,-3,-1,1,-2,0
1529306609295422,-1,1,0,1,0,-2,-2,-2
1529306609312745,-1,0,-1,-2,-1,1,0,-2
1529306609312745,-1,0,-2,-1,-1,-2,0,-1
1529306609313381,-1,0,1,1,1,0,0,-1
1529306609313381,-2,-1,-1,-2,-2,-1,0,-1
1529306609325596,0,1,-2,1,0,0,-1,-1
1529306609325596,-1,-1,-1,0,-1,-1,-1,-2
1529306609334616,0,-2,-1,-2,-1,-1,-2,-1
1529306609334616,-1,0,-1,3,1,-2,0,1
1529306609348818,0,-1,-2,-2,0,-2,-1,0
1529306609348818,-1,0,0,-2,-2,-1,1,1
1529306609355799,0,-2,0,-1,-3,0,-1,-1
1529306609355799,0,-1,-2,-1,-1,-1,0,-1
1529306609371518,-3,0,0,2,-1,-1,-1,1
1529306609371518,1,-1,-1,0,0,-1,0,1
1529306609373512,-1,0,0,0,3,0,0,0
1529306609373512,-2,-4,-1,-5,-6,-2,-2,-2
1529306609385480,-2,-2,-2,-1,0,-3,0,-2
1529306609385480,0,-1,1,0,-2,-2,0,-1
1529306609394473,0,1,-1,-1,1,0,-1,0
1529306609394473,0,1,-1,0,-3,1,0,0
