timestamp,emg1,emg2,emg3,emg4,emg5,emg6,emg7,emg8
1528281928443651,0,0,-2,0,0,0,-1,0
1528281928443651,0,1,0,2,0,-1,-2,0
1528281928443651,-2,0,-1,-1,-1,1,-1,0
1528281928443651,-1,-2,-1,-1,-1,0,-1,-2
1528281928444648,0,-1,-2,0,-1,-1,-1,-1
1528281928444648,1,0,-2,0,1,-1,-1,-1
1528281928446643,-2,-2,-2,0,-1,0,-1,-1
1528281928446643,-1,2,-1,-1,-2,-1,-1,0
1528281928456616,-2,-1,0,-1,0,1,0,0
1528281928456616,-1,0,-1,-3,-2,0,0,1
1528281928466589,1,2,-1,-1,-1,-2,-1,-1
1528281928466589,0,0,0,-3,1,1,-2,-1
1528281928472574,-1,-1,-2,-2,0,-1,-2,0
1528281928472574,-2,-1,-1,0,0,0,-1,1
1528281928486536,-1,-2,0,0,0,-1,0,-2
1528281928486536,-2,-2,0,-1,-2,-3,0,-2
1528281928498504,-1,0,-1,-1,-1,-3,-2,0
1528281928498504,0,-1,-1,-1,-1,0,1,-1
1528281928501496,2,-1,-1,-1,0,0,0,0
1528281928501496,-1,1,0,1,2,0,-1,0
1528281928516456,0,0,-1,-2,-1,-2,0,-2
1528281928516456,-1,0,-1,0,-1,-2,-3,-3
1528281928525439,-4,-1,1,-1,0,-1,-2,-1
1528281928525439,0,-2,0,1,1,0,0,0
1528281928564328,0,-2,0,-1,0,-2,-2,0
1528281928564328,-1,1,-1,-1,0,0,2,1
1528281928566324,-1,1,0,-1,-1,1,0,-1
1528281928566324,0,1,-2,-1,-1,1,1,0
1528281928566324,-2,0,-1,0,-1,1,-3,-1
1528281928566324,1,0,0,0,-1,-3,-2,-1
1528281928569316,-2,-1,-1,-1,0,0,0,0
1528281928569316,0,-3,-1,0,-1,-1,0,0
1528281928576297,-1,-1,-1,0,-1,0,1,-3
1528281928576297,0,0,-1,-1,-3,-1,-2,-1
1528281928583278,1,-1,-2,-1,-1,-1,-1,1
1528281928583278,-1,1,0,-2,0,-2,-3,0
1528281928593251,0,1,0,-1,0,0,-2,0
1528281928593251,-1,-1,0,-1,0,1,-1,-1
1528281928606216,-1,-1,0,-1,-1,-2,-1,-4
1528281928606216,0,0,-1,-1,-1,1,0,0
1528281928615192,-1,-2,-1,0,-1,0,2,-1
1528281928615192,0,-1,-2,2,0,1,1,-2
1528281928621176,2,0,-2,-2,0,0,0,-1
1528281928621176,-2,1,-1,0,0,0,-1,-2
1528281928636138,0,0,-1,0,-1,0,1,0
1528281928636138,-2,0,1,0,0,-1,-2,1
1528281928644115,-1,0,1,0,0,-2,-1,0
1528281928644115,-2,1,1,-1,-1,1,-3,-1
1528281928653091,1,-1,-2,-3,-1,0,-2,-1
1528281928653091,-1,-2,-2,-2,0,0,1,-2
1528281928666056,-1,-2,-2,1,0,-1,-1,0
1528281928666056,1,-1,-2,1,-1,-4,0,-2
1528281928675032,0,-1,-1,-1,0,-2,0,0
1528281928675032,0,1,0,-1,0,1,1,0
1528281928681016,-3,-1,-1,0,-2,0,1,0
1528281928681016,-1,-2,-2,-1,-2,-1,1,-3
1528281928695976,-1,-2,0,1,-1,-1,0,1
1528281928695976,-1,-3,1,-1,1,-1,-2,1
1528281928703957,-1,0,1,0,0,0,0,1
1528281928703957,-1,0,1,1,-1,-1,0,1
1528281928712931,1,-1,0,-1,-1,0,-2,1
1528281928712931,0,-2,-2,1,0,1,-3,-1
1528281928725901,0,-1,0,1,0,-1,-3,0
1528281928725901,0,-1,-3,-2,-1,-4,2,1
1528281928734882,0,2,-3,-1,0,-1,0,-3
1528281928734882,1,2,1,0,-1,-1,0,-3
1528281928740856,-1,-1,0,-1,0,2,-2,-2
1528281928740856,0,0,0,0,0,1,0,3
1528281928755816,-1,0,0,0,0,-2,1,3
1528281928755816,-1,-1,0,-3,0,-2,0,0
1528281928763801,-1,-2,-1,0,-1,-2,0,-3
1528281928763801,0,-4,0,-2,0,1,-1,-1
1528281928772787,0,0,-1,-4,-1,0,0,0
1528281928772787,0,0,0,-1,-2,-2,0,-1
1528281928785736,0,-2,2,-1,-1,-1,0,1
1528281928785736,-2,2,-1,-1,-1,0,-3,0
1528281928795710,-2,0,-1,1,0,0,-1,-1
1528281928795710,0,1,-1,-1,-1,-1,-2,1
1528281928801693,-1,-1,-1,-1,-1,-1,1,-1
1528281928801693,1,-3,-1,1,1,-1,1,0
1528281928816654,0,-1,0,0,-2,-2,0,-2
1528281928816654,-1,1,-3,-1,-1,-1,0,1
1528281928823636,1,2,0,-1,2,-2,-2,0
1528281928823636,0,-1,0,-2,-1,-1,0,1
1528281928838595,-1,0,-1,0,-1,-1,-2,0
1528281928838595,-2,-1,0,0,0,-1,2,-1
1528281928846613,-1,1,-1,0,2,-1,0,-2
1528281928846613,-1,1,1,-2,0,-2,-1,-1
1528281928855549,0,0,1,-2,-2,-1,-1,-2
1528281928855549,-1,2,-1,-2,-3,0,0,-2
1528281928869552,1,-1,0,0,-1,-1,0,-1
1528281928869552,-3,0,-2,-2,-1,-2,-1,-2
1528281928876536,-2,-1,1,0,-2,1,-3,0
1528281928876536,1,-3,1,0,-1,0,-2,0
1528281928883476,-2,0,-2,-1,-2,1,-1,1
1528281928883476,0,-1,-1,1,-1,-2,0,0
1528281928892456,-1,0,-3,-1,0,-1,0,1
1528281928892456,-2,-1,-1,0,0,1,0,-1
1528281928906443,0,1,-1,-2,-1,1,0,-1
1528281928906443,1,1,1,-1,-1,0,0,-2
1528281928915391,0,-1,1,-1,0,1,3,2
1528281928915391,0,-2,-2,-1,-1,-1,-1,2
1528281928929407,0,-4,-1,0,-1,-2,0,0
1528281928929407,0,-1,-1,-1,-1,0,-3,-2
1528281928936336,-1,0,-2,-2,-1,-1,0,-1
1528281928936336,0,-1,-1,-2,2,-3,-1,-3
1528281928943316,-1,2,-1,-1,0,-1,0,-1
1528281928943316,1,0,-1,-1,1,1,0,-1
1528281928952341,1,-1,2,0,0,-1,-1,-2
1528281928952341,0,0,0,1,0,-2,-2,2
1528281928966254,-2,0,-1,-1,-2,-4,-3,-2
1528281928966254,-2,0,1,1,-2,-1,-1,0
1528281928990191,-2,0,-2,1,0,-4,0,-1
1528281928990191,-1,-1,-1,-2,0,0,0,-1
1528281928991189,0,1,-1,0,-1,-2,-1,1
1528281928991189,-1,-3,-1,0,-2,-1,-1,0
1528281928996229,0,0,-1,-1,-1,0,-2,0
1528281928996229,0,0,1,1,-3,0,0,0
1528281929004159,0,-1,-2,-1,-1,1,-2,0
1528281929004159,-2,-2,-3,-1,2,-2,1,-1
1528281929013160,-2,-1,-2,0,-1,0,1,-1
1528281929013160,0,-2,-1,1,-1,0,-1,0
1528281929026203,0,-2,0,-1,-2,-1,1,0
1528281929026203,1,0,2,0,0,-2,0,1
1528281929035070,-2,1,1,0,1,-1,0,-3
1528281929035070,-3,0,-1,-3,0,1,-1,-1
1528281929049034,0,-1,-3,0,-1,-1,-3,-4
1528281929049034,1,0,-2,1,-1,1,0,-3
1528281929056014,0,0,0,0,0,-1,-2,-1
1528281929056014,-1,-1,0,-2,-2,-1,-1,-1
1528281929064013,-3,0,-1,-2,0,2,0,1
1528281929064013,-1,-1,-1,0,-1,2,0,2
1528281929072981,-1,-1,0,-1,0,-2,1,0
1528281929072981,-1,-3,-1,1,0,-3,1,-1
1528281929085934,0,1,0,1,1,-3,-1,0
1528281929085934,-1,0,1,-2,-1,-2,-2,-4
1528281929094910,-1,1,0,-2,-1,-2,-2,0
1528281929094910,0,-2,-1,0,0,-1,-3,-1
1528281929109870,-2,-2,0,-1,-3,3,3,1
1528281929109870,-2,-2,-2,-1,-1,1,2,-3
1528281929116851,0,-2,-2,-2,-1,0,1,-1
1528281929116851,-2,0,0,-1,-1,-1,0,-2
1528281929123852,1,-2,1,1,1,-2,-3,1
1528281929123852,0,1,1,0,-2,0,-3,1
1528281929132809,-1,0,1,-2,-1,0,-1,-3
1528281929132809,2,2,0,0,0,-2,-2,-2
1528281929146884,0,1,-1,0,-1,0,-1,-2
1528281929146884,-2,-1,0,-1,1,-1,-1,1
1528281929154750,0,-3,-1,-2,0,-2,-1,0
1528281929154750,-1,2,-2,-3,-1,-2,1,1
1528281929170106,-1,-1,-1,0,0,-2,1,0
1528281929170106,-1,-1,-3,1,0,1,0,0
1528281929176009,1,-2,0,1,-1,1,0,-1
1528281929176009,-1,-1,1,-2,-3,2,-1,1
1528281929185137,-2,-2,0,0,1,-2,0,-2
1528281929185137,-1,0,-1,-1,-1,-1,-2,-2
1528281929199170,0,1,0,0,2,-1,-1,0
1528281929199170,1,-1,0,2,1,-1,1,0
1528281929215669,0,-1,-3,1,-2,1,-2,0
1528281929215669,-1,-4,2,-1,-2,0,0,0
1528281929216598,0,-2,-1,-3,-1,2,-3,1
1528281929216598,-3,-1,0,-1,0,0,-1,-2
1528281929229611,-1,1,-2,-2,-2,0,2,1
1528281929229611,0,1,-2,0,2,-2,-1,0
1528281929244347,-1,-2,-1,0,-2,-1,1,-1
1528281929244347,0,0,1,1,0,0,1,-2
1528281929245332,-1,-1,1,0,-1,-1,0,-2
1528281929245332,-1,-1,0,-2,-2,0,1,-2
1528281929259551,-1,1,-1,0,0,-1,0,-1
1528281929259551,-1,0,-1,-1,0,1,-2,1
1528281929266512,0,-2,2,2,0,0,-2,2
1528281929266512,0,-1,-2,-1,0,-1,-1,2
1528281929275247,-1,-1,-2,-1,-1,0,-1,1
1528281929275247,1,0,1,1,0,-1,0,0
1528281929289207,-1,1,3,-1,-1,3,-2,0
1528281929289207,0,-2,1,1,0,-2,-1,-1
1528281929296238,1,1,0,-1,-2,-1,-1,-2
1528281929296238,0,-3,-1,-2,-2,-2,-1,-1
1528281929304167,-2,0,1,-1,0,-1,0,-1
1528281929304167,-1,0,-4,-3,-1,-1,-2,-2
1528281929319124,-1,0,-1,2,-1,0,-1,0
1528281929319124,0,-2,-2,-1,-1,-2,-1,0
1528281929326560,1,1,-4,-1,0,-3,1,-2
1528281929326560,0,-1,2,-1,1,1,-1,0
1528281929335271,-1,-2,-2,-1,-1,0,0,-3
1528281929335271,-1,-1,0,0,-1,1,-1,-1
1528281929350082,0,-1,-1,-1,-2,0,0,-3
1528281929350082,0,-2,-1,0,-1,-3,1,0
1528281929356291,-1,1,0,-1,-1,0,1,2
1528281929356291,-1,-1,-1,-1,-1,1,-2,3
1528281929364277,-2,-1,-1,-1,1,-1,-2,1
1528281929364277,-1,0,1,0,-1,-1,-3,-1
1528281929378964,-1,0,0,-1,0,-1,-1,-1
1528281929378964,1,1,-1,-1,1,1,2,0
1528281929386312,-2,-1,0,-2,0,1,0,-3
1528281929386312,-1,-1,-2,0,-2,3,1,-4
1528281929395205,0,-1,-1,-1,0,0,-2,-3
1528281929395205,0,0,1,0,-1,-2,-1,6
1528281929408914,2,-1,-1,0,-2,-1,2,7
1528281929408914,0,1,-1,1,-2,1,1,1
1528281929417891,-2,0,1,-2,1,-2,1,0
1528281929417891,-2,-1,-1,-2,-1,0,0,-2
1528281929423875,0,-1,0,-2,0,-1,-2,-4
1528281929423875,0,-1,-1,0,2,-2,-2,0
1528281929446847,-2,-1,-2,0,-2,0,0,-1
1528281929446847,1,0,-2,-2,-2,-2,0,-3
1528281929447844,2,-1,-1,-1,-2,-1,-2,0
1528281929447844,1,2,0,-1,0,-1,0,-1
1528281929454792,0,0,0,-2,1,-1,0,0
1528281929454792,-1,-1,1,-1,0,1,-2,-3
1528281929469807,0,0,-2,-1,0,0,-1,-2
1528281929469807,-2,-1,-1,-1,0,0,-1,-1
1528281929475790,-2,0,-2,-2,1,1,0,2
1528281929475790,-2,0,-3,0,0,-1,1,-1
1528281929483771,0,-2,0,0,0,1,1,-2
1528281929483771,-3,1,0,0,-1,2,1,-1
1528281929498730,-1,-1,-1,-1,1,-2,0,1
1528281929498730,-1,1,-2,1,-1,0,-2,-2
1528281929506655,-2,1,-1,0,-2,-3,-4,0
1528281929506655,1,0,2,-1,0,1,-2,-1
1528281929521642,0,-3,-2,1,-1,0,-1,-2
1528281929521642,0,-2,0,1,0,-1,0,-2
1528281929529648,-1,1,-3,0,-1,2,0,-2
1528281929529648,-3,-1,0,-2,-3,1,0,-1
1528281929536573,0,1,1,1,-1,-2,1,-1
1528281929536573,0,-2,-1,-1,0,-2,-1,-1
1528281929551589,-1,-1,1,-2,0,-4,0,0
1528281929551589,-1,1,0,-1,-1,-1,-1,-1
1528281929558570,0,-1,0,1,0,-1,-1,0
1528281929558570,0,0,-1,-1,0,0,0,-1
1528281929575470,-1,-1,1,-2,1,-1,-1,-3
1528281929575470,-1,1,0,0,0,-3,-2,-2
1528281929576471,0,1,-1,0,-3,-3,-2,1
1528281929576471,-1,0,1,-1,-1,0,-2,1
1528281929589487,-1,-1,0,-1,0,2,-1,1
1528281929589487,-2,-1,-2,-1,1,1,1,0
1528281929597434,0,-1,-2,-2,0,1,0,-2
1528281929597434,-2,0,0,-2,-1,-1,1,-2
1528281929620360,0,-1,-1,0,0,-2,0,-2
1528281929620360,-1,-1,0,-2,-1,-3,1,2
1528281929621348,0,-1,-1,-2,-1,-1,-3,-1
1528281929621348,0,-2,0,-2,0,-1,-1,-3
1528281929635363,-1,-2,0,1,0,-1,-2,0
1528281929635363,-3,-2,-2,-2,-2,-1,-3,-1
1528281929636387,-1,-2,-1,-1,-2,0,0,1
1528281929636387,-1,-1,-1,-1,-1,-2,-2,0
1528281929649331,-1,-1,-1,-2,-1,-1,0,-1
1528281929649331,0,1,-1,-1,1,-1,-1,-2
1528281929656307,-1,0,0,0,0,2,0,0
1528281929656307,-1,0,0,1,0,-1,-1,0
1528281929672263,-2,-1,2,0,-1,-1,-1,-1
1528281929672263,1,-2,-3,1,0,0,1,-1
1528281929679202,0,1,-1,0,-1,2,2,-2
1528281929679202,-4,0,0,0,0,-1,-1,-2
1528281929695205,-1,0,-2,-2,-1,1,-1,0
1528281929695205,-1,0,1,-1,-3,0,0,0
1528281929697171,-2,-2,0,0,0,-1,-1,-2
1528281929697171,1,1,-1,-1,-3,1,-2,3
1528281929709186,0,0,-3,-2,-2,-8,-2,-1
1528281929709186,-2,0,0,1,0,-2,-1,-8
1528281929724073,-3,-2,-1,-3,-3,-5,2,2
1528281929724073,-1,-2,-1,-1,-1,1,4,-1
1528281929732606,-1,-2,0,-1,0,3,-1,0
1528281929732606,1,0,0,2,1,1,-1,3
1528281929746894,0,0,-2,-1,0,-2,0,1
1528281929746894,2,-2,1,0,-1,0,0,-1
1528281929755898,-1,-1,0,-1,-1,0,0,-2
1528281929755898,-1,-1,0,-1,-2,-1,-1,-1
1528281929770024,-2,0,-1,-1,0,-1,-3,-3
1528281929770024,-2,1,-2,0,1,-2,-4,-1
1528281929770859,0,0,-3,0,0,1,1,1
1528281929770859,1,-2,-3,-2,-3,2,0,0
1528281929776842,0,0,0,0,-1,0,-1,1
1528281929776842,-1,-1,0,0,0,-3,0,-3
1528281929791805,-1,1,-1,0,-1,-1,0,0
1528281929791805,0,-1,-1,-1,0,1,-1,1
1528281929800073,-1,-1,-1,0,0,2,-2,-3
1528281929800073,-1,-2,-1,-2,-2,1,-1,-2
1528281929814744,0,0,2,0,-1,-3,1,-3
1528281929814744,0,0,0,-2,0,-4,-1,0
1528281929816735,2,0,-1,-2,0,-1,0,1
1528281929816735,-1,2,-2,-1,-1,-1,-1,1
1528281929829707,-1,0,-1,-1,-2,2,1,4
1528281929829707,-1,0,0,0,-1,-1,-1,0
1528281929836681,-2,-3,-1,-1,-2,-2,-2,0
1528281929836681,0,0,-2,-1,-2,-2,-1,1
1528281929852638,2,1,-2,-2,-1,0,0,-2
1528281929852638,-1,0,-1,1,-1,0,0,-1
1528281929858885,0,1,1,0,1,-1,2,1
1528281929858885,-1,-2,0,-1,1,-1,0,0
1528281929875754,-2,-2,1,0,-2,-2,0,0
1528281929875754,-1,-2,1,-1,0,-2,0,-2
1528281929876575,0,-4,-1,-3,0,-2,-1,-2
1528281929876575,-1,0,-3,0,-1,-1,-1,-2
1528281929889291,-1,0,-2,-1,-1,-1,-2,-3
1528281929889291,0,1,-1,0,-2,-2,1,-2
1528281929897835,-1,1,-1,1,-2,1,-2,-1
1528281929897835,1,1,0,0,0,-2,-1,-1
1528281929912207,-1,0,-3,-1,0,3,4,1
1528281929912207,-2,-1,0,0,2,1,-4,2
1528281929919422,-3,-2,0,-2,-1,-3,0,0
1528281929919422,-1,0,0,-2,-1,-1,-2,1
1528281929935149,0,1,1,0,-1,-2,-2,0
1528281929935149,0,2,-2,1,0,0,2,0
1528281929937160,-1,-1,0,-1,0,1,0,-1
1528281929937160,0,-3,-1,-2,-3,-1,-1,-2
1528281929949428,0,-1,-1,-1,0,-1,0,-3
1528281929949428,0,0,0,-2,-2,0,-3,-2
1528281929957722,0,0,-1,1,0,1,-3,-1
1528281929957722,0,-2,0,1,-1,0,0,0
1528281929971655,-1,-3,-3,-2,-2,-1,0,2
1528281929971655,1,-2,-1,-1,0,-1,1,1
1528281929978636,-1,1,-2,1,-1,-2,-1,-1
1528281929978636,0,2,-1,-1,0,1,-1,-2
1528281929994853,-1,0,1,0,0,2,-3,-1
1528281929994853,-2,0,-2,-2,-1,0,0,-3
1528281930001905,0,0,-1,-2,-2,-1,2,-3
1528281930001905,2,-3,0,0,-2,-1,-1,-1
1528281930009092,-2,0,-1,0,0,-2,-3,-2
1528281930009092,-1,-3,-2,1,-3,-3,0,0
1528281930018147,1,-1,0,1,-1,0,0,2
1528281930018147,1,1,-1,0,-1,1,-1,1
1528281930032647,-1,0,-1,-2,0,-2,0,-1
1528281930032647,0,0,-1,-2,0,-1,0,0
1528281930038897,2,-2,0,-2,0,-1,0,-1
1528281930038897,-1,0,0,-1,1,-2,1,0
1528281930054591,-1,-2,-1,0,-1,-1,0,0
1528281930054591,0,1,-2,0,-1,1,1,0
1528281930056586,0,-1,-2,0,0,1,0,0
1528281930056586,-1,-1,-1,-1,0,0,-2,1
1528281930078028,-2,1,1,-1,0,-1,-2,-1
1528281930078028,-2,-1,3,0,1,-2,-3,-1
1528281930079257,-2,-1,0,-1,-1,-1,-1,-2
1528281930079257,0,0,-1,0,0,0,1,1
1528281930092106,0,-2,1,-2,-2,0,1,-2
1528281930092106,0,-1,-2,-2,-1,0,-2,1
1528281930099111,1,-1,-2,0,-1,-1,-1,1
1528281930099111,-2,0,0,0,-1,-1,-2,-1
1528281930115510,2,-2,-1,-1,-1,-1,0,1
1528281930115510,1,0,0,-2,-1,-2,1,0
1528281930117387,-1,2,-1,-1,0,-1,3,0
1528281930117387,-2,-2,-2,1,-1,0,0,0
1528281930128844,-3,2,0,0,2,1,1,-1
1528281930128844,-2,-3,1,-1,-1,0,0,-3
1528281930137443,-1,0,-1,-1,-2,-1,-2,0
1528281930137443,0,1,-1,-1,-1,0,-2,-2
1528281930152587,1,0,-2,1,-1,-1,-1,0
1528281930152587,1,0,0,0,-2,-2,0,1
1528281930158628,0,-3,-1,0,0,1,0,0
1528281930158628,-2,-1,0,-2,0,2,-1,-1
1528281930174343,-1,-1,-1,0,-1,0,-2,-3
1528281930174343,0,0,-1,0,-1,-1,0,-3
1528281930181324,0,-2,2,-1,-1,1,0,-3
1528281930181324,0,0,0,-1,-2,-1,0,0
1528281930188719,0,1,-1,-2,0,-1,0,0
1528281930188719,-2,0,-3,0,-1,-1,1,1
1528281930197283,-1,1,-2,1,0,-4,-2,2
1528281930197283,0,-1,0,0,-1,-2,-1,0
1528281930211827,-1,-1,-3,-2,0,1,-1,-1
1528281930211827,-1,0,0,-1,-1,-1,-3,-1
1528281930218789,-1,-1,-1,1,-1,-1,-2,-1
1528281930218789,0,0,0,1,0,0,0,-1
1528281930234835,0,-1,0,1,-3,0,0,-2
1528281930234835,-2,-2,-2,-2,-1,1,-1,-3
1528281930249511,0,1,-3,-1,-1,0,0,-4
1528281930249511,-1,0,-4,-2,0,0,0,-2
1528281930250774,-3,-1,-2,1,1,0,1,-1
1528281930250774,-2,1,3,-1,-1,-2,-1,1
1528281930257436,0,-2,0,0,-2,-2,-1,1
1528281930257436,1,-1,0,-1,1,-2,-1,-1
1528281930272669,2,1,-1,-1,-1,-3,0,0
1528281930272669,-1,0,0,-1,-1,1,0,0
1528281930279524,-1,1,1,0,-2,0,1,1
1528281930279524,-2,-1,0,0,-2,0,1,0
1528281930302317,0,-2,0,0,-1,-2,-1,-1
1528281930302317,0,0,0,0,0,-2,-2,1
1528281930304324,-1,-1,1,-2,0,-1,-1,-1
1528281930304324,-3,-3,0,-1,-2,-1,-2,1
1528281930325463,-2,-2,2,-1,-2,0,1,-3
1528281930325463,1,-1,-2,0,0,1,-2,-2
1528281930327316,-1,1,-2,0,1,0,-1,-2
1528281930327316,1,2,0,-2,0,0,-1,-1
1528281930332238,-1,-2,-1,1,1,-1,-2,-1
1528281930332238,1,-1,-1,0,-1,-2,-1,0
1528281930339385,-2,-3,-2,-1,0,-2,0,-1
1528281930339385,0,-1,-1,-1,-1,-1,1,1
1528281930354674,2,2,-1,-2,-1,-1,-2,1
1528281930354674,-1,-2,-3,0,-1,0,0,-1
1528281930361925,-2,1,0,1,-1,1,0,-2
1528281930361925,-3,-1,-1,0,-2,-2,0,-4
1528281930377613,-1,0,-1,-1,0,1,-1,0
1528281930377613,-1,0,0,0,0,-1,-2,1
1528281930379607,0,-3,0,0,0,0,0,0
1528281930379607,0,-2,1,2,0,-2,-1,-2
1528281930391824,-2,-1,-1,-1,1,0,-1,0
1528281930391824,-2,-2,-2,-2,-1,2,-1,-1
1528281930398800,-1,-3,-1,-2,0,-1,-2,0
1528281930398800,0,-1,-1,0,-2,-1,0,-2
1528281930414515,0,-2,-1,1,0,-2,1,0
1528281930414515,-1,1,0,0,1,1,-2,-1
1528281930421499,1,1,-1,0,-1,-1,1,-2
1528281930421499,-1,-1,0,0,-1,-3,0,0
1528281930438501,0,0,-2,-1,-1,-2,-3,0
1528281930438501,1,0,0,-2,0,-2,0,-1
1528281930439448,0,1,-1,-3,-2,-1,0,-2
1528281930439448,-1,-1,-1,-1,0,0,-3,-1
1528281930452681,0,-3,0,-1,-2,0,-1,1
1528281930452681,-2,-2,0,0,-1,0,-1,0
1528281930459526,-1,-1,1,0,0,0,-1,-2
1528281930459526,-1,0,-1,-1,-1,2,-2,0
1528281930474353,-1,0,0,0,1,1,0,0
1528281930474353,0,-1,-2,-1,-2,-1,-1,-2
1528281930481339,1,-1,-2,-1,-1,-3,-1,-1
1528281930481339,0,-1,0,-2,-2,-1,0,0
1528281930497363,-1,-1,0,1,-1,-1,2,-2
1528281930497363,0,0,1,1,-2,3,0,0
1528281930505604,0,0,-3,0,1,2,0,-1
1528281930505604,1,-1,-1,0,2,-2,0,-3
1528281930511868,-2,0,-2,-2,-1,-2,0,-1
1528281930511868,0,1,0,-1,0,-2,1,-1
1528281930518872,-1,-2,-1,-1,-1,1,-1,-1
1528281930518872,0,-3,-1,0,0,0,-2,1
1528281930534829,-1,0,0,-1,-2,1,-1,0
1528281930534829,-1,-1,0,-1,0,1,1,-1
1528281930540814,1,2,0,0,0,-2,0,0
1528281930540814,1,-3,0,0,0,-1,0,0
1528281930557812,0,1,0,-1,-1,-2,0,0
1528281930557812,-2,-1,-1,0,-1,-3,0,-1
1528281930558817,1,1,-2,-1,1,0,-2,1
1528281930558817,0,0,-2,0,-1,0,1,1
1528281930571782,0,-1,0,-1,-1,2,-1,-2
1528281930571782,0,-1,-2,0,-1,1,-1,-1
1528281930578950,-2,-2,-1,0,-2,-1,0,0
1528281930578950,1,-1,-1,-2,-2,0,-1,-2
1528281930602928,0,-1,2,0,-1,-1,-1,-1
1528281930602928,-3,1,-1,-2,-3,-1,-3,-1
1528281930603925,-3,-2,0,0,-1,2,-1,-1
1528281930603925,-1,1,-1,0,-2,1,-1,1
1528281930617887,0,-2,-1,-1,-1,-1,-2,0
1528281930617887,1,-2,-1,-1,2,-2,-2,-2
1528281930618889,-2,-1,1,-1,-2,0,0,-1
1528281930618889,-1,0,0,-1,1,0,1,2
1528281930631853,-1,-2,-1,1,-1,-1,0,1
1528281930631853,0,-1,-1,-2,0,-1,1,-1
1528281930639234,0,-1,-1,-1,-1,-2,0,-2
1528281930639234,-1,0,0,-1,0,-2,0,-3
1528281930655044,2,-2,0,-1,-2,-3,-1,-2
1528281930655044,-1,1,-1,-2,-2,0,1,0
1528281930661403,-1,-1,-1,0,-2,1,-2,-1
1528281930661403,-2,0,-2,-1,-2,1,-2,-1
1528281930677362,0,-2,0,0,2,-1,1,-2
1528281930677362,0,0,0,1,1,0,0,0
1528281930679357,0,0,-2,-2,-1,-1,-1,1
1528281930679357,-1,-1,0,1,-3,-2,-2,-1
1528281930692322,-3,-2,-2,-1,0,1,0,-1
1528281930692322,-1,-2,-1,0,-2,-1,-1,-1
1528281930698311,-2,1,0,-1,1,0,0,1
1528281930698311,0,-2,-2,-1,0,1,-1,-1
1528281930714275,-1,0,0,0,0,0,0,-1
1528281930714275,0,0,0,-1,1,-1,-1,-1
1528281930721265,1,1,-1,0,-1,0,0,1
1528281930721265,-3,-1,-1,0,-1,-1,0,-1
1528281930737203,0,0,-1,1,-3,-1,-2,-2
1528281930737203,2,-1,-1,0,-2,-3,-2,1
1528281930739197,-1,-1,0,-1,0,-2,-2,-1
1528281930739197,-2,2,0,-2,0,-1,0,-1
1528281930752163,-1,-2,-3,-2,0,1,0,1
1528281930752163,-1,0,-2,-2,-1,-1,1,-1
1528281930759143,-1,-1,1,-1,-2,-2,1,-2
1528281930759143,0,0,-1,-1,-1,0,0,1
1528281930774104,0,-1,-1,0,-2,-2,-2,0
1528281930774104,-1,-2,-2,-1,0,1,-2,0
1528281930781084,-2,0,-2,0,0,1,-1,-1
1528281930781084,0,-2,-2,-2,2,0,-2,1
1528281930797309,-1,1,1,-1,-1,-1,0,-1
1528281930797309,0,-4,-1,0,0,0,0,-2
1528281930806019,1,-2,-1,0,-1,-3,-1,1
1528281930806019,1,2,0,-2,-2,-1,0,2
1528281930811575,-2,0,-1,-3,0,-1,-1,1
1528281930811575,0,0,2,-1,-1,0,0,1
1528281930820298,-1,-1,1,0,-3,0,0,-1
1528281930820298,0,1,-2,1,-1,-1,-2,-1
1528281930834318,1,0,-1,0,0,-1,1,-2
1528281930834318,-1,-1,-3,-2,-2,2,0,-1
1528281930841551,0,-2,0,-1,-1,-2,0,0
1528281930841551,1,-4,1,-1,0,-3,-1,0
1528281930858330,-1,-1,-1,-1,0,-1,-2,0
1528281930858330,-1,1,0,-2,1,0,0,-1
1528281930859251,-1,-1,0,-2,1,-1,-3,-1
1528281930859251,-1,-2,0,1,0,-1,0,-2
1528281930881180,1,0,-1,1,-1,-1,0,1
1528281930881180,-2,-2,0,0,-1,-2,-2,-1
1528281930882332,-1,1,0,-1,-1,0,0,0
1528281930882332,1,1,0,-1,-1,-3,0,0
1528281930895150,1,0,-3,-1,-1,-2,2,0
1528281930895150,0,0,-3,0,-2,-3,-1,-1
1528281930901130,0,0,1,0,0,-2,-3,1
1528281930901130,-3,-1,-1,-1,-1,0,-2,-1
1528281930917387,3,-3,0,-1,-1,-2,-1,0
1528281930917387,-1,-1,-2,0,-1,-3,0,-2
1528281930918083,-2,-2,-1,2,-1,-1,0,-1
1528281930918083,-2,1,0,-2,0,-1,-1,-1
1528281930939805,-3,0,1,-2,3,0,0,-2
1528281930939805,1,-2,1,0,-1,0,0,0
1528281930940329,0,-1,-2,0,0,3,1,-1
1528281930940329,-1,-1,0,0,-2,3,1,1
1528281930955289,-1,1,-2,2,-2,1,-4,0
1528281930955289,-1,0,1,-2,0,0,-2,1
1528281930961519,0,0,-1,-2,-1,-3,2,-3
1528281930961519,1,0,-1,0,-2,-2,2,-4
1528281930984473,1,0,-1,-1,0,-2,-1,-1
1528281930984473,-1,-1,2,2,0,-2,-1,2
1528281930985208,1,-1,3,0,1,-3,0,2
1528281930985208,-2,-1,0,-1,-1,-1,0,-2
1528281931007488,-1,-2,-2,1,-1,1,0,-2
1528281931007488,-1,-1,-1,0,-1,-2,1,-1
1528281931007488,-1,0,-1,0,-2,-1,-3,-1
1528281931007488,-1,0,-1,1,1,-1,-3,-3
1528281931015137,-1,-2,1,0,0,0,-2,-1
1528281931015137,-2,0,0,0,1,2,-2,-1
1528281931021433,-2,1,-3,-1,-1,-1,0,0
1528281931021433,-1,-1,0,0,1,1,-1,1
1528281931036563,0,-2,-1,0,0,-1,0,-2
1528281931036563,1,-1,-1,0,-1,0,1,-3
1528281931038410,1,-3,1,-1,0,1,-1,0
1528281931038410,1,-2,2,-2,-2,0,-3,0
