timestamp,emg1,emg2,emg3,emg4,emg5,emg6,emg7,emg8
1528445932292366,0,-2,-1,-1,0,0,-1,-4
1528445932292366,0,-2,-1,1,2,-2,-2,-4
1528445932306329,1,-1,-1,-2,-5,-2,0,2
1528445932306329,-1,-2,0,-1,1,-1,0,-4
1528445932323297,-2,-1,-1,-2,-2,-2,-3,-1
1528445932323297,0,2,0,0,-2,0,-1,3
1528445932324280,-1,1,-1,1,0,-1,0,-5
1528445932324280,0,-1,-2,-1,-2,0,1,-1
1528445932370159,-1,-2,-1,-2,0,-1,1,-2
1528445932370159,-1,-2,0,-1,0,-1,-1,-1
1528445932371154,-1,-1,-2,-3,-1,-2,-2,-3
1528445932371154,-1,-1,-2,1,-1,0,-1,-2
1528445932383122,-1,-2,0,0,-2,0,0,-1
1528445932383122,-3,0,0,1,-1,-1,-1,-1
1528445932383122,-2,0,-1,-1,-1,-2,-2,0
1528445932383122,0,-1,1,-3,0,0,0,0
1528445932386114,-3,-1,-1,-1,-4,-1,-2,-2
1528445932386114,-1,-1,-1,-1,1,-1,0,-2
1528445932388109,-1,-1,-1,-1,-3,0,-1,-1
1528445932388109,-2,-2,-1,-2,-1,-2,-1,-1
1528445932403107,-2,0,0,0,1,-2,-2,-5
1528445932403107,4,0,0,-1,-2,-2,1,2
1528445932411057,-2,-1,0,1,-2,0,-2,-1
1528445932411057,0,-2,-2,-2,-3,-3,-2,0
1528445932420025,0,0,-2,-2,-1,-1,-3,-2
1528445932420025,-2,-2,-2,-3,-2,-2,-3,-3
1528445932442964,-2,-2,0,1,0,-2,0,-1
1528445932442964,-3,-1,1,0,0,-1,0,-2
1528445932443961,-1,-2,-1,-1,-1,-1,-1,2
1528445932443961,0,1,-1,0,-3,0,-1,-1
1528445932456935,0,-1,-3,-1,-1,-1,-1,-1
1528445932456935,-2,-2,-2,-1,-3,-2,-1,-3
1528445932464904,0,0,-1,2,0,0,-1,0
1528445932464904,-2,-1,-3,-1,-1,-2,-2,0
1528445932479865,-1,0,1,0,-2,-1,-1,-2
1528445932479865,-1,-2,-2,-1,-1,-1,-3,-1
1528445932480863,0,-2,0,-1,-1,-2,0,2
1528445932480863,0,0,1,-1,0,0,0,-4
1528445932501841,-1,-1,-3,-4,-1,0,-1,-1
1528445932501841,-1,0,-2,0,0,-2,0,0
1528445932503801,-2,-1,-2,-3,-1,0,0,-2
1528445932503801,-2,-2,-1,-1,-1,-2,-3,-1
1528445932515795,-1,0,0,0,0,-1,0,-1
1528445932515795,1,-1,-1,0,-1,-1,-1,-2
1528445932524745,0,0,0,2,-2,-2,0,0
1528445932524745,1,0,-2,-2,-1,0,-1,0
1528445932539757,0,-3,-2,-2,-1,-2,0,-1
1528445932539757,1,1,0,-1,-2,-2,-2,0
1528445932541700,-2,-2,-1,1,0,-2,-1,0
1528445932541700,-1,-1,-1,2,0,-1,0,0
1528445932561701,-1,-3,0,-2,-4,0,0,0
1528445932561701,-2,-1,-1,-2,0,-1,-1,-1
1528445932563641,2,-1,-2,-2,-1,0,0,1
1528445932563641,0,0,0,-1,-1,0,-3,-1
1528445932575612,-1,-2,-1,-1,-3,0,0,-2
1528445932575612,-1,-2,0,0,1,-1,-1,-1
1528445932584656,-1,0,-1,-2,-2,-1,-2,-3
1528445932584656,-2,-2,-2,1,-1,-1,-1,-2
1528445932599594,0,-1,0,0,0,0,-2,-1
1528445932599594,-1,-2,-3,0,-1,-1,-3,-1
1528445932601594,0,1,-1,0,0,0,-1,-7
1528445932601594,-1,-2,-1,-2,-2,-2,-1,5
1528445932622483,-2,-1,-5,-5,-1,0,-1,-2
1528445932622483,-4,0,0,-1,-2,-1,0,-1
1528445932623481,0,-1,-1,-1,0,0,0,3
1528445932623481,-1,-1,-1,1,-1,-1,-1,-5
1528445932635448,-1,-1,-1,-3,-1,-2,-1,0
1528445932635448,-1,-1,-1,-1,1,0,0,0
1528445932644424,0,-1,-1,-2,0,-2,-2,1
1528445932644424,-2,-1,-1,-1,1,0,1,0
1528445932659437,1,0,-1,1,2,-2,-2,0
1528445932659437,-1,0,-2,-3,-4,-2,0,-3
1528445932661380,-2,-2,0,-1,-2,-2,-1,0
1528445932661380,0,-1,-3,-3,-3,-2,-2,-1
1528445932682350,-1,0,0,2,1,1,-1,-3
1528445932682350,-1,-2,-2,1,1,-1,-1,0
1528445932683359,-2,-1,0,-3,-1,-1,0,-3
1528445932683359,-1,-3,-1,0,0,0,-2,-2
1528445932695289,-1,-2,-1,-1,-2,-3,0,-1
1528445932695289,-1,0,-1,-1,1,-1,0,0
1528445932704298,-1,0,-3,-1,-1,0,-1,0
1528445932704298,-1,-1,-1,-1,0,-2,0,-3
1528445932719275,0,0,2,0,0,-2,-1,-4
1528445932719275,0,-1,0,1,-2,-2,-4,8
1528445932726249,0,-2,0,-1,1,-1,-2,-1
1528445932726249,-2,0,1,0,-1,-2,-1,-4
1528445932742164,-1,-1,-6,-2,-1,0,1,1
1528445932742164,0,-1,-2,-4,-3,0,-1,-2
1528445932744158,-2,-1,0,-1,-1,0,0,0
1528445932744158,0,-1,-2,-1,-2,-3,0,0
1528445932756125,1,-2,0,-1,0,-2,0,1
1528445932756125,-1,-3,0,-1,0,-1,-1,-2
1528445932772085,-2,0,-2,-3,-2,-2,-1,0
1528445932772085,-2,0,-1,0,-2,0,-2,1
1528445932780063,-3,1,-2,0,-2,-1,-1,-3
1528445932780063,-4,0,0,1,0,0,-1,-4
1528445932781061,2,-2,1,-3,-4,-2,-2,2
1528445932781061,-2,-2,-1,0,1,1,-3,-1
1528445932802035,-1,-3,-2,-4,-4,-2,0,-2
1528445932802035,1,1,-2,0,0,0,2,3
1528445932804028,-3,-2,-1,1,1,-1,-1,-3
1528445932804028,4,-1,-2,-2,-2,0,1,2
1528445932815966,-1,-1,-1,0,1,-1,-2,1
1528445932815966,-2,1,1,1,0,1,-1,-2
1528445932824942,-1,0,-5,-7,-2,-2,-2,-1
1528445932824942,-1,0,0,2,0,-1,-1,-1
1528445932839939,-2,-2,-1,-1,-1,-1,-1,-3
1528445932839939,0,-2,-1,-2,-3,-1,0,-1
1528445932852904,-3,-1,-1,6,0,-1,0,-1
1528445932852904,-2,-2,-1,-4,-4,-2,-3,-2
1528445932861844,1,0,1,1,-1,0,-1,0
1528445932861844,-1,0,1,-1,0,-2,-3,-3
1528445932863839,-1,-1,-2,-3,-2,-1,-1,-5
1528445932863839,-2,-3,-3,-5,-3,-1,-1,6
1528445932875807,-1,0,-2,0,-1,0,0,-2
1528445932875807,1,-1,-1,0,0,0,-3,0
1528445932890767,-3,-3,-7,-8,-2,-2,-1,-2
1528445932890767,0,0,-1,2,-1,-2,0,-3
1528445932898746,1,-1,-1,-4,-2,-1,-2,0
1528445932898746,-1,-2,-3,1,-2,-1,0,-2
1528445932905727,0,-1,0,2,0,0,-1,-1
1528445932905727,-2,-1,-1,0,1,-3,0,-1
1528445932922680,-1,-1,-1,-1,0,-1,-3,-5
1528445932922680,-1,0,0,0,-1,1,1,0
1528445932923677,0,-2,-5,-4,-3,-1,-3,-1
1528445932923677,-1,0,0,-1,-2,-1,0,0
1528445932944624,-1,-1,1,4,0,-2,-1,0
1528445932944624,-1,-2,0,-2,-1,-3,0,2
1528445932946619,-2,-2,-3,-5,-1,-1,0,-1
1528445932946619,-1,-1,-1,-1,-1,1,0,0
1528445932958587,-1,0,-2,-1,-2,0,-2,1
1528445932958587,-1,0,-2,-2,-2,1,-2,-2
1528445932965566,-1,0,3,2,-2,0,0,2
1528445932965566,0,-1,-1,2,2,0,-3,-3
1528445932982520,-1,0,-3,-3,-3,0,-1,2
1528445932982520,0,-2,-3,-2,-1,-2,-1,-1
1528445932983683,1,0,3,3,0,0,1,0
1528445932983683,-4,-3,-6,-6,-1,0,-2,-2
1528445933004465,-2,0,1,0,-1,-1,0,-1
1528445933004465,-2,-3,0,-2,-2,-3,-1,-1
1528445933006457,0,0,-2,-2,-1,-3,-2,-2
1528445933006457,-1,-1,-1,-3,-1,-3,-1,-1
1528445933019667,-1,-1,-1,-1,1,-1,0,0
1528445933019667,-1,0,-4,-5,-2,-1,1,2
1528445933025412,-1,0,3,7,2,-1,-1,-2
1528445933025412,-2,-1,-1,1,-1,0,-1,-3
1528445933042361,-4,0,0,-1,-1,-1,0,-1
1528445933042361,-1,-1,0,1,0,-1,-2,-2
1528445933043384,0,-2,0,-1,-2,-1,0,2
1528445933043384,-1,-2,-2,-5,0,-2,-2,-1
1528445933064862,-1,-1,0,-1,-2,-2,0,1
1528445933064862,0,-1,-1,-2,-3,-1,0,-2
1528445933066195,0,-1,0,-2,-2,0,0,-1
1528445933066195,-2,0,-1,-2,-4,-2,-1,-1
1528445933078174,1,-1,0,1,2,0,0,-1
1528445933078174,-2,-1,0,-1,0,-2,-2,0
1528445933087322,-3,-1,-4,-1,-2,0,-1,-2
1528445933087322,0,0,-1,-2,0,0,0,-3
1528445933102420,0,-2,0,-1,1,-1,-2,-2
1528445933102420,-1,-3,-3,-1,0,-1,-1,0
1528445933104104,-1,0,1,0,1,0,-2,-1
1528445933104104,0,0,-1,0,-1,0,-1,-1
1528445933125040,-2,-1,-2,-2,-2,-2,-2,0
1528445933125040,0,0,-2,1,-1,-3,-1,0
1528445933126037,-2,-1,2,-2,-1,-3,0,-2
1528445933126037,0,-1,-5,-8,-2,-1,1,0
1528445933139109,0,-1,-1,1,1,0,-1,-1
1528445933139109,-2,-1,1,-1,-2,-2,-2,-2
1528445933147267,0,-2,-6,-3,-3,-2,-3,-1
1528445933147267,-1,-1,1,2,2,0,0,0
1528445933162486,-1,0,-1,-3,0,-1,-1,-1
1528445933162486,-1,-2,-2,-1,-1,-1,0,-2
1528445933164548,1,0,-1,-1,1,-1,0,0
1528445933164548,-1,-2,1,2,-3,-1,-1,-2
1528445933184173,-3,-2,-5,-5,-2,-2,-1,-2
1528445933184173,-1,-1,0,-2,1,-1,-1,-1
1528445933186168,0,0,0,-1,-2,1,-2,0
1528445933186168,-1,1,-1,-1,-2,-1,-1,1
1528445933198136,-1,0,1,1,-2,0,-2,-4
1528445933198136,-3,0,-1,-2,-2,-1,-1,-2
1528445933213097,-2,-2,-2,0,1,-1,-1,-1
1528445933213097,-1,-1,0,-1,-2,0,-2,0
1528445933222386,0,-2,-3,1,-2,0,-1,1
1528445933222386,0,-3,-2,-3,-1,0,-2,-3
1528445933224091,-1,0,-1,-1,-2,-1,-1,-4
1528445933224091,-1,1,0,3,1,-1,0,-2
1528445933245348,-1,-1,0,-2,-4,-2,-1,-1
1528445933245348,-1,-2,-2,0,-1,0,-2,-1
1528445933246319,0,0,-2,-5,0,-1,1,2
1528445933246319,-2,-1,-2,0,-3,-2,-2,-3
1528445933258433,1,-1,2,-3,-1,-2,0,5
1528445933258433,0,-1,-1,2,0,0,0,1
1528445933267409,0,-2,0,1,-1,-1,0,-1
1528445933267409,-1,0,-1,-2,1,0,-1,-1
1528445933281665,-1,0,-1,0,2,1,0,-3
1528445933281665,-4,-1,0,1,0,-1,0,-6
1528445933288648,2,-2,-1,-2,1,-1,0,8
1528445933288648,1,-1,-1,-1,0,1,0,-2
1528445933304604,-1,0,-1,0,-2,-2,-1,-1
1528445933304604,0,-3,0,-2,-1,-3,-1,-1
1528445933306599,-4,1,0,1,0,-1,-2,-3
1528445933306599,-1,-3,-2,-1,-1,-2,-1,1
1528445933318566,-1,-3,-1,0,0,-1,0,-1
1528445933318566,-1,-2,-1,-2,-1,0,-1,0
1528445933327542,-1,0,-1,0,-2,-1,-1,-3
1528445933327542,0,-1,0,0,-2,-1,-1,0
1528445933340508,0,-2,-1,-1,-1,0,0,0
1528445933340508,0,-3,-3,-3,-1,-2,-1,-1
1528445933349484,-3,-1,-2,-3,-1,1,-1,-2
1528445933349484,-3,0,-1,0,2,-1,-2,-4
1528445933363446,1,0,1,0,-2,-2,-1,3
1528445933363446,0,0,0,-1,-1,0,-1,0
1528445933370428,-1,-1,0,-1,-2,-1,-1,0
1528445933370428,-2,-1,0,0,0,-1,-1,-3
1528445933387383,-2,0,-2,-3,1,-2,-1,-2
1528445933387383,2,0,-2,-3,0,-2,-2,1
1528445933388380,-1,0,-2,-2,-1,-2,-2,-3
1528445933388380,-1,-1,-1,0,-2,-1,-1,1
1528445933409324,-2,-3,-2,-2,0,-1,-1,-1
1528445933409324,-2,0,0,-2,-2,-1,-2,-3
1528445933411319,1,-1,2,2,0,0,1,-2
1528445933411319,1,-3,-1,-1,-3,-3,-1,1
1528445933439305,-2,-1,-2,-2,-1,-1,0,0
1528445933439305,-2,-1,-2,1,-1,-2,-1,-2
1528445933441249,-1,-2,-3,-1,-1,-2,-2,-4
1528445933441249,1,0,1,-2,0,1,-1,-1
1528445933447278,0,0,0,4,0,-1,-2,-3
1528445933447278,0,-2,-1,-3,-1,-1,-2,0
1528445933449231,-2,-2,-1,-2,0,-1,0,-1
1528445933449231,-1,-1,-1,-2,-3,-1,-1,-2
1528445933469220,-1,0,-1,0,-1,-1,-2,-1
1528445933469220,-1,-1,1,2,-1,-1,-1,-1
1528445933471160,0,-2,-1,-1,-1,0,-1,-1
1528445933471160,-1,-2,-2,-1,0,-1,0,0
1528445933484181,0,-1,-1,-2,-1,-1,0,-4
1528445933484181,-3,0,-1,-1,-2,-1,-2,0
1528445933492105,-1,-1,1,2,-2,-1,-2,0
1528445933492105,-1,-2,1,0,-1,-1,-1,-2
1528445933507118,-1,-4,-6,-6,-4,-2,-2,-2
1528445933507118,0,-1,-1,0,0,0,-1,-1
1528445933509117,-2,-2,-2,0,-2,-2,-2,-1
1528445933509117,-1,0,0,2,-2,1,0,0
1528445933530063,-1,1,-2,0,-1,-1,-1,-1
1528445933530063,-1,-1,-2,-2,0,0,-1,0
1528445933531000,-2,-1,-1,-2,0,-1,0,2
1528445933531000,-1,0,-3,-2,-1,-1,-2,-4
1528445933543022,-1,-1,0,-1,-3,-3,0,-2
1528445933543022,0,-1,-3,-1,-1,0,-1,-2
1528445933552002,0,0,-1,-1,-1,0,2,0
1528445933552002,-1,1,-1,-1,-1,-2,1,1
1528445933566958,0,0,-1,-3,-1,1,-1,0
1528445933566958,1,0,2,1,-3,-1,-2,-1
1528445933568899,-2,-2,-2,-1,-2,-2,-1,-2
1528445933568899,-3,-2,-3,-3,0,-2,-2,-1
1528445933596824,-1,-1,0,-1,-3,-1,-1,-1
1528445933596824,-1,-2,-2,-2,-1,-2,-2,-1
1528445933598818,0,-1,0,0,-1,-1,-2,-2
1528445933598818,0,-2,-2,-1,-1,-1,-1,1
1528445933604064,-2,-2,0,1,-1,-1,-1,-2
1528445933604064,-1,-1,-1,-1,-2,-2,0,-1
1528445933611783,-2,-1,-1,0,0,-2,-2,-2
1528445933611783,-1,-1,-1,-1,1,0,-2,-1
1528445933626743,-2,-1,-2,-1,1,-1,-2,-1
1528445933626743,-2,-1,-1,1,-2,-2,0,0
1528445933626743,0,-2,-2,-2,-1,-1,-2,-2
1528445933626743,-1,-1,2,2,0,0,0,0
1528445933649721,-1,-1,-1,-2,-2,-2,0,-1
1528445933649721,-1,1,0,0,-1,-1,0,0
1528445933649721,-1,-2,-2,-2,-1,0,-1,0
1528445933649721,-2,1,-2,-2,0,-2,0,-2
1528445933663885,-2,-2,-2,0,-2,0,0,-4
1528445933663885,-1,0,1,-2,0,-1,-2,-1
1528445933671863,-1,0,1,0,0,0,0,-1
1528445933671863,0,-2,0,3,-1,1,-1,0
1528445933687138,-4,-3,-2,-4,-2,-2,-2,-1
1528445933687138,-1,0,-2,-1,-1,-1,0,0
1528445933687138,-2,0,-1,0,-2,-2,-1,-3
1528445933687138,0,-1,-2,-2,-3,-2,-1,-1
1528445933709647,0,0,0,-2,0,0,-2,-1
1528445933709647,-1,-2,0,0,-3,-3,-2,-2
1528445933709647,0,-1,-2,-1,-1,-3,0,-2
1528445933709647,-2,-1,0,0,-1,0,0,0
1528445933723945,0,0,0,0,1,-1,2,1
1528445933723945,2,-2,-3,-4,-2,1,-1,-1
1528445933731648,-2,0,-1,1,-2,-1,-1,-2
1528445933731648,-2,-1,-1,-4,-3,-2,-1,-2
1528445933746907,-1,-1,0,0,0,0,-1,0
1528445933746907,-1,-1,0,2,1,0,0,1
1528445933746907,0,-2,-2,-4,0,-2,-3,-1
1528445933746907,-2,-2,-1,-2,0,-2,0,-3
1528445933769286,-2,-1,-1,0,-2,-1,0,-1
1528445933769286,-2,-2,-1,-2,1,0,0,-2
1528445933770493,0,-1,-1,0,-2,-1,0,-1
1528445933770493,0,-2,-1,-3,0,-1,-1,0
1528445933784626,0,-1,1,0,1,0,-2,1
1528445933784626,-4,-1,-1,0,-3,-2,0,-2
1528445933784626,-1,-1,1,0,-2,1,1,1
1528445933784626,-1,0,-2,-1,-1,-1,-2,0
1528445933806444,-1,0,-1,0,-1,0,-1,-1
1528445933806444,-1,0,-2,0,-1,0,-1,0
1528445933807218,-3,-2,-1,-1,-1,-1,-3,-1
1528445933807218,0,-1,0,0,-2,-2,0,0
1528445933829402,1,-1,-1,0,-2,-1,-1,0
1528445933829402,0,-4,0,-1,1,-1,-1,-1
1528445933830391,0,-1,-4,-4,-1,0,-1,-2
1528445933830391,-1,-1,0,-2,-3,-1,-1,-1
1528445933843866,0,0,-1,0,0,-1,-1,-1
1528445933843866,-2,-1,-1,-3,-1,-1,-1,1
1528445933844620,0,-1,1,-1,-2,-1,-1,-1
1528445933844620,-2,-1,-2,-2,0,-2,-2,-2
1528445933866801,-2,-1,0,-1,-1,-2,-2,1
1528445933866801,0,-1,-1,-1,0,0,-1,0
1528445933867803,1,-1,-1,0,-1,0,0,-2
1528445933867803,0,-3,-3,-1,-1,-2,-2,0
1528445933889628,0,-3,-1,-1,-1,-1,-1,-1
1528445933889628,-2,-1,0,-1,-1,-1,-1,-1
1528445933889628,-2,-1,0,-1,-1,0,-1,0
1528445933889628,-1,1,0,0,-1,-2,0,0
1528445933904828,-1,-2,-2,-3,1,-1,-1,-2
1528445933904828,-2,-3,-1,1,-1,-1,-1,-2
1528445933904828,-2,1,0,1,0,-2,-2,1
1528445933904828,-1,-1,-1,0,-2,1,-1,0
1528445933927132,-2,-2,-1,0,-2,-1,-2,0
1528445933927132,-1,0,-1,0,-3,-1,-2,-1
1528445933927707,-1,-2,-3,-3,-1,-1,-1,-1
1528445933927707,-2,-2,-2,-2,0,0,-1,-1
1528445933949699,0,1,-1,-1,-2,-1,0,-1
1528445933949699,-2,-1,-1,-3,-1,-1,0,-2
1528445933949699,-1,0,0,-1,-3,-1,-1,-1
1528445933949699,0,-1,-1,-2,0,-1,-1,-3
1528445933963890,-1,-1,-3,0,-1,-1,-2,-1
1528445933963890,0,0,-2,-2,-1,-2,-1,-2
1528445933964887,-2,-2,-1,-2,-1,0,-1,-1
1528445933964887,-1,-1,-1,-2,-3,1,-1,0
1528445933987489,-2,0,0,0,0,-1,-1,0
1528445933987489,1,-2,-2,0,0,-1,-1,-1
1528445933988130,-1,-2,1,-1,1,0,-1,-1
1528445933988130,0,-1,-2,-1,0,-3,-1,-2
1528445934009074,-1,-1,-1,-1,-3,-2,0,-1
1528445934009074,-3,0,-1,0,0,0,-1,-1
1528445934010072,-1,0,-1,-1,-2,-2,-2,-1
1528445934010072,-1,-1,0,-1,-1,1,-1,-2
1528445934023285,2,-1,-2,-1,-1,-2,-1,-1
1528445934023285,-1,0,-1,0,-1,-1,-2,-1
1528445934032229,-1,-1,-2,0,-2,-1,-2,1
1528445934032229,0,-2,0,-1,-1,-1,0,-1
1528445934047222,0,-1,0,-1,0,-2,-2,0
1528445934047222,-1,0,-1,-1,-2,-1,-1,-1
1528445934048231,-1,-1,-1,-1,-1,-2,0,-1
1528445934048231,-3,-1,-2,0,-1,-2,0,-1
1528445934069567,-1,-1,-2,-1,1,0,0,-2
1528445934069567,-1,-1,-1,-1,-3,-3,0,0
1528445934069567,-2,-2,-1,-3,2,0,-1,-1
1528445934069567,0,0,1,-1,-2,0,0,0
1528445934083552,-1,-2,-1,-2,-1,-2,-1,-1
1528445934083552,-2,-1,-1,1,-1,-1,-2,0
1528445934091445,-2,-1,-2,-1,-2,-3,-2,-1
1528445934091445,0,-2,-1,-1,-1,-3,0,0
1528445934106665,-2,0,0,0,-2,1,0,-1
1528445934106665,0,-2,-1,-1,0,0,-1,0
1528445934107401,0,-1,-3,1,0,0,0,-2
1528445934107401,-2,-1,0,-1,-1,-2,-1,-1
1528445934129611,0,0,-3,-1,-1,-1,1,-2
1528445934129611,-1,-1,0,-2,-1,-1,0,-1
1528445934130486,-1,-2,-2,-2,-2,-2,-1,-2
1528445934130486,0,0,-3,-2,-2,-1,-2,-1
1528445934143571,1,-1,-2,-3,-1,-1,-2,0
1528445934143571,-1,-1,-2,0,-1,-2,-1,-2
1528445934151548,-2,0,-1,-1,-2,0,-1,0
1528445934151548,-3,0,-1,-1,1,-2,-1,0
1528445934166926,-1,-1,-1,-1,1,-1,-1,1
1528445934166926,1,-2,0,-1,0,1,-3,-1
1528445934167589,-3,-1,0,0,0,0,-1,0
1528445934167589,0,0,0,0,-1,0,0,-3
1528445934189493,-3,-1,0,-2,-2,-2,0,-1
1528445934189493,-2,-2,-1,-3,-1,-2,-2,-2
1528445934190133,-2,-2,-1,-1,-1,-1,-1,1
1528445934190133,0,1,-2,-1,-2,0,-4,-1
1528445934203362,0,-1,-2,-1,-2,-2,-3,-2
1528445934203362,0,-1,0,-1,-1,0,2,1
1528445934212176,0,-1,0,0,-1,-1,-1,-1
1528445934212176,-1,-1,-1,-1,2,0,1,0
1528445934227314,-2,0,-1,0,0,0,-2,-1
1528445934227314,-1,0,-2,-3,0,0,-3,0
1528445934227314,1,-1,0,0,-2,0,-2,-2
1528445934227314,1,0,-1,-2,0,-2,-1,-1
1528445934249243,-2,-3,-1,-2,-2,-1,0,0
1528445934249243,-1,-2,-1,0,1,1,1,1
1528445934249973,0,0,-1,-2,-1,1,-1,-1
1528445934249973,-3,-2,-2,-2,-1,-1,-1,-1
1528445934263200,0,-1,-1,-3,-2,-1,-2,-3
1528445934263200,-2,-1,-1,-2,-3,-2,-3,-1
1528445934272181,0,1,1,-1,1,-1,-1,1
1528445934272181,-1,0,-1,0,-2,-2,0,-1
1528445934287273,-1,-2,-1,-1,-3,0,0,0
1528445934287273,0,-1,-1,0,-1,0,1,-2
1528445934287273,-1,-1,-1,0,0,-1,-1,0
1528445934287273,-3,0,-1,-2,0,0,-2,-1
1528445934309213,-2,-1,-1,1,0,0,0,-1
1528445934309213,-1,0,-1,0,-1,-1,-1,-2
1528445934310181,-2,-2,-1,-2,-1,-1,-2,-1
1528445934310181,-1,-2,0,0,-2,-1,-1,0
1528445934325319,-2,-2,-3,-1,-2,-1,-1,0
1528445934325319,-1,-2,0,0,-1,-1,-1,-1
1528445934332309,1,-2,-1,-2,-2,-1,0,-2
1528445934332309,1,0,0,-2,-1,0,-1,0
1528445934346631,0,0,0,-2,0,0,-1,-1
1528445934346631,0,-2,0,0,-1,-2,-1,-1
1528445934354603,-2,0,-1,-2,-1,-1,-1,-1
1528445934354603,-1,-1,-1,-1,-3,-2,0,-1
1528445934369465,-1,-1,0,-1,0,-2,-2,-1
1528445934369465,-1,0,-2,-1,-2,1,-1,0
1528445934370434,0,-1,-2,0,0,1,0,-2
1528445934370434,-2,-2,1,-1,-1,-1,0,1
1528445934392646,-2,0,1,-1,0,1,-1,-1
1528445934392646,0,0,0,-1,-2,-2,0,-1
1528445934393643,-1,0,-1,-1,-1,-2,-3,-1
1528445934393643,0,-1,-1,1,0,-1,-2,-2
1528445934406603,-1,-2,-2,-1,-2,-2,-1,0
1528445934406603,-1,-3,0,-2,-1,0,-2,0
1528445934407338,-2,-1,-2,-1,-4,-1,-1,0
1528445934407338,-2,-2,-2,-1,-3,-1,-1,0
1528445934429143,0,2,-1,0,0,-1,2,-1
1528445934429143,-1,-1,-1,-1,0,0,-2,-3
1528445934429879,-1,-1,0,0,-2,-1,-1,-1
1528445934429879,-2,-2,0,-3,-1,-1,-2,-1
1528445934452127,-2,0,-2,0,0,-1,-1,-1
1528445934452127,-1,0,-3,0,-1,-2,0,-1
1528445934453118,-1,-2,0,-3,-1,-2,-2,-2
1528445934453118,0,-1,-2,-1,0,0,0,-1
1528445934466111,0,-2,0,-3,0,-1,0,0
1528445934466111,0,-1,-1,-2,-1,-2,-2,-2
1528445934467092,-2,-1,-1,-1,0,-2,0,0
