timestamp,emg1,emg2,emg3,emg4,emg5,emg6,emg7,emg8
1528451258367081,1,-2,-3,1,1,0,-2,-1
1528451258367081,-1,-1,1,-2,2,-1,-2,0
1528451258378051,0,0,1,0,-1,1,1,-1
1528451258378051,-2,1,-2,0,-1,-1,-1,0
1528451258386079,0,0,-1,0,-2,-2,0,-1
1528451258386079,0,-1,-1,5,2,1,1,-1
1528451258400991,0,-1,-1,2,0,1,-1,-1
1528451258400991,0,0,-1,-1,0,-2,0,0
1528451258407973,0,0,0,0,-1,-1,-2,-1
1528451258407973,-2,-2,-1,2,-1,-1,0,-1
1528451258423930,-2,0,-3,1,-1,-1,-1,0
1528451258423930,0,-1,-1,-2,-1,0,1,0
1528451258430910,-1,0,-1,-3,-3,-1,-1,-1
1528451258430910,1,1,-1,0,0,0,-1,-2
1528451258437892,-3,-2,-1,-1,2,-3,1,-1
1528451258437892,-2,1,0,-2,-2,1,-1,0
1528451258445870,-1,-1,-1,0,0,-1,0,-1
1528451258445870,0,-1,-3,-2,-1,-1,-1,1
1528451258460830,1,-1,1,2,1,2,-3,0
1528451258460830,-1,0,-1,-3,-3,-1,-2,-2
1528451258471802,0,0,-1,7,2,-1,0,-2
1528451258471802,-1,0,-2,6,0,0,0,-1
1528451258490751,0,1,-1,-8,-2,-2,-1,0
1528451258490751,-1,0,0,2,0,-1,0,0
1528451258498729,0,-3,0,-2,1,0,0,-1
1528451258498729,-1,0,-1,2,2,0,-2,-2
1528451258505710,0,-1,-1,-2,-1,0,-1,0
1528451258505710,1,-1,-1,1,-1,1,-1,-1
1528451258513689,0,-4,-1,-1,-1,0,-1,-1
1528451258513689,-1,-1,2,-4,-1,-1,-1,-1
1528451258531641,1,-1,-2,-2,-2,1,0,-1
1528451258531641,0,0,-2,-5,-2,-1,0,-1
1528451258543610,-1,-1,-2,1,-2,-1,0,-2
1528451258543610,1,-2,-1,9,3,-2,-2,0
1528451258550591,-2,1,-2,-8,-2,1,-1,-1
1528451258550591,-1,0,0,-6,-4,0,-1,-1
1528451258565550,0,0,0,1,3,0,-2,0
1528451258565550,-2,-2,-1,1,-2,-1,0,-1
1528451258573569,1,0,-2,-2,-2,0,0,-3
1528451258573569,-1,-2,-2,4,0,-1,-1,-2
1528451258595503,-1,-2,-3,6,-1,-1,-2,-1
1528451258595503,-1,0,0,2,-1,-1,-2,0
1528451258603449,0,0,-4,-11,0,1,0,1
1528451258603449,1,-3,-3,-1,-2,0,-1,1
1528451258610430,1,-1,-1,-4,-2,-2,0,-1
1528451258610430,-1,-1,3,5,3,-1,-1,0
1528451258618450,-1,1,0,3,0,-1,-1,0
1528451258618450,1,-1,-5,-7,-4,-1,-2,0
1528451258625416,-2,1,2,1,0,-1,-2,-2
1528451258625416,0,-2,-2,-2,0,1,0,-1
1528451258640364,-1,-1,-3,1,0,-1,0,-2
1528451258640364,-1,0,2,2,1,-1,-1,0
1528451258648330,-1,1,2,0,1,0,-1,1
1528451258648330,1,-1,-3,-3,-2,-1,1,-1
1528451258663340,-1,0,-1,1,0,-2,-2,0
1528451258663340,-1,0,0,-1,-1,-1,-1,-1
1528451258671269,-2,-2,-5,-11,-1,-1,-1,0
1528451258671269,-2,-1,-2,2,-2,0,0,1
1528451258686247,0,0,-2,-1,0,0,-2,-1
1528451258686247,-2,0,0,-3,-2,0,-1,-2
1528451258701219,-1,0,0,0,0,-1,0,-2
1528451258701219,-2,0,0,3,2,0,-1,-1
1528451258708188,1,0,-1,0,1,1,2,-1
1528451258708188,0,-1,-3,-11,-7,-2,-2,-1
1528451258723129,1,-1,1,6,0,0,-1,-1
1528451258723129,0,-1,1,0,0,-1,0,-1
1528451258731107,-1,-2,0,3,1,-2,0,0
1528451258731107,-1,0,-2,0,1,-2,-1,-1
1528451258746069,1,-1,-2,0,-1,-1,0,0
1528451258746069,1,0,1,-2,0,-1,-1,0
1528451258761031,-1,-1,1,0,0,0,0,0
1528451258761031,-1,-1,-2,2,0,0,0,0
1528451258768009,0,0,-1,-1,-2,0,-1,-1
1528451258768009,-1,0,-3,-1,0,1,-1,-2
1528451258782969,0,0,-1,0,0,1,1,-1
1528451258782969,0,-1,0,-3,-1,-1,-1,-1
1528451258790952,0,-1,-3,2,-1,-1,1,-1
1528451258790952,0,-1,0,0,3,-2,-1,0
1528451258805908,1,1,0,1,-1,1,1,0
1528451258805908,-2,0,1,-3,-4,0,-1,-1
1528451258820868,3,-1,-1,0,-2,-2,0,0
1528451258820868,0,-1,0,-2,0,-1,-2,0
1528451258827849,-2,0,3,4,3,0,-2,1
1528451258827849,0,0,-1,2,0,0,0,1
1528451258842809,1,-2,-3,-3,-1,-1,0,0
1528451258842809,0,0,-2,-3,-2,0,0,0
1528451258850788,0,0,3,4,0,-1,0,-1
1528451258850788,1,-2,-2,0,-1,-2,1,-2
1528451258865749,-1,-1,-4,-5,-3,-1,-2,-1
1528451258865749,-2,0,0,1,0,-2,0,-1
1528451258880707,-1,0,0,0,1,0,-1,1
1528451258880707,-1,-1,-1,0,0,-1,-1,-1
1528451258888687,0,-3,-1,-9,-3,0,-2,0
1528451258888687,0,-2,1,9,4,0,0,0
1528451258903646,-1,0,-1,-5,-2,-1,-1,-1
1528451258903646,0,-1,0,2,0,-1,0,-2
1528451258910628,-1,0,-1,-2,-1,1,1,-2
1528451258910628,-1,-1,-1,-12,-3,-1,-3,-2
1528451258925588,0,-1,0,0,1,-2,-1,1
1528451258925588,1,0,-1,2,0,0,1,0
1528451258940549,-2,1,-1,-1,-1,1,-2,-1
1528451258940549,0,-1,-1,-3,-2,-1,0,-2
1528451258948527,-3,0,-1,1,0,0,0,0
1528451258948527,0,0,0,2,0,0,-1,0
1528451258963487,-1,-1,0,-4,-2,-2,-2,2
1528451258963487,-3,0,-2,3,1,1,-1,-2
1528451258970468,0,-1,0,4,1,-1,-1,-1
1528451258970468,0,-1,1,-8,-5,-1,-2,-2
1528451258985428,2,-1,0,-2,-1,-2,-2,-1
1528451258985428,0,0,-2,2,1,-1,0,0
1528451259000388,-1,-1,0,-1,-1,-3,-2,0
1528451259000388,0,0,-1,-1,-2,-2,0,1
1528451259008367,1,0,-1,-1,-1,1,0,-2
1528451259008367,0,0,-1,1,1,1,0,-1
1528451259023326,-2,-2,1,1,-1,0,-2,-2
1528451259023326,-1,0,-1,-1,2,-3,-2,-1
1528451259031305,-1,-1,0,0,-1,-1,-1,-1
1528451259031305,-2,-2,-1,1,0,0,0,1
1528451259046267,-2,0,-1,-2,0,0,0,-1
1528451259046267,0,0,-3,0,-1,-2,-1,-2
1528451259061225,2,1,1,2,-1,-1,0,0
1528451259061225,0,-2,-1,-1,-1,-1,-1,0
1528451259068444,0,-1,0,-3,-1,0,0,-2
1528451259068444,-2,1,-1,2,0,0,-1,0
1528451259083728,0,-1,-3,-1,1,2,0,0
1528451259083728,-1,-2,-2,-1,0,-2,0,-1
1528451259090440,-2,0,-1,0,-2,-2,-1,-2
1528451259090440,-1,-1,0,1,0,1,1,-2
1528451259106605,-2,-2,-2,0,1,-1,0,1
1528451259106605,0,-1,0,0,-2,-1,-1,-1
1528451259121515,0,0,-2,1,-1,-1,1,0
1528451259121515,-3,0,1,-3,-1,0,-1,-1
1528451259128370,1,-2,-1,-1,-2,-1,-1,-1
1528451259128370,0,-1,1,-1,-3,0,0,0
1528451259143319,1,1,0,-1,0,0,0,0
1528451259143319,0,0,-3,0,-1,-3,-1,-2
1528451259158258,1,0,0,-2,-1,1,0,-2
1528451259158258,-1,-1,-2,-2,-1,-2,1,-1
1528451259166255,-1,-1,-1,-2,-1,-1,-2,0
1528451259166255,-1,-1,-2,-2,-1,-1,-2,0
1528451259173218,-1,0,-1,-2,1,-1,-2,-1
1528451259173218,1,-2,-1,0,4,1,-2,-1
1528451259188451,-2,2,-2,1,-1,0,0,-1
1528451259188451,0,0,0,1,-2,-2,0,-1
1528451259195463,0,-2,-2,-1,-1,0,0,0
1528451259195463,-1,0,0,0,-1,-2,-1,-2
1528451259203443,0,-1,0,0,1,-1,-2,-2
1528451259203443,0,0,-1,-1,0,0,-1,-1
1528451259211523,-1,-1,1,-1,-3,0,-1,-2
1528451259211523,0,-2,1,-2,-1,0,-1,0
1528451259218371,-1,-1,-3,0,0,-2,0,-1
1528451259218371,0,0,0,-1,0,-1,1,0
1528451259225354,0,0,-1,3,0,-1,-1,0
1528451259225354,0,-2,-1,-2,-1,0,-1,1
1528451259241321,-1,-2,-2,-1,-3,1,-1,0
1528451259241321,0,1,-2,-1,-2,-1,0,0
1528451259248322,-1,0,-2,0,0,-2,0,-1
1528451259248322,0,-2,-3,-1,-1,0,0,0
1528451259263492,-1,-2,2,1,-1,0,0,-1
1528451259263492,-2,-1,1,-1,0,1,0,-2
1528451259271233,-1,-1,-2,-1,-1,0,-2,0
1528451259271233,0,1,-1,0,0,-1,-1,-1
1528451259278215,-1,-1,-1,-1,-1,-1,0,0
1528451259278215,-1,0,0,0,0,0,-1,-1
1528451259285474,-1,-1,0,-1,-3,-2,-1,-2
1528451259285474,0,-1,0,0,-1,0,0,-1
1528451259301639,0,-1,1,0,0,1,1,-3
1528451259301639,1,-2,-4,-1,-1,-1,-1,1
1528451259308412,0,1,-2,0,1,-1,-1,1
1528451259308412,1,0,-1,-1,-1,0,0,0
1528451259323703,0,-1,0,-1,0,-2,-2,-1
1528451259323703,-2,-1,0,0,-1,-1,0,2
1528451259331019,1,0,-1,-2,0,-1,0,-1
1528451259331019,-1,-2,-3,1,0,-1,1,-1
1528451259339036,0,-2,-1,-2,-2,-1,1,-2
1528451259339036,0,0,-1,1,0,0,-1,-1
1528451259345969,-2,-1,-2,-1,-1,-1,-1,0
1528451259345969,0,1,2,-1,0,-1,-1,-2
1528451259360960,-1,-2,-1,0,-1,-1,-1,0
1528451259360960,-1,0,-2,-1,0,-1,0,-1
1528451259368357,0,0,2,0,1,-2,0,-1
1528451259368357,1,2,-3,-2,0,1,-2,-1
1528451259383639,0,-2,0,-1,0,0,-2,-2
1528451259383639,-1,-3,0,-1,0,0,-2,0
1528451259391297,-2,0,0,1,2,-1,-2,-1
1528451259391297,-1,-2,0,-3,0,-2,-1,-1
1528451259398734,1,0,-2,0,-1,-1,-1,-1
1528451259398734,-1,0,-1,0,0,-1,-1,-1
1528451259406694,-1,-1,0,-1,-1,1,0,-2
1528451259406694,-1,-2,1,0,-2,-1,0,-3
1528451259421683,-2,0,-2,-1,0,0,-2,-3
1528451259421683,2,-2,-1,0,1,0,0,6
1528451259428770,-1,0,-1,0,0,1,-1,-1
1528451259428770,-1,0,-4,0,-1,0,0,2
1528451259444089,-1,0,0,-1,-1,-1,-1,-3
1528451259444089,0,0,-3,0,-1,0,0,-4
1528451259451137,0,0,-1,0,0,0,1,0
1528451259451137,-1,-2,0,-1,1,1,1,-2
1528451259466101,-2,0,-1,-1,1,-1,-2,0
1528451259466101,-1,0,-1,-1,-1,-1,-1,-4
1528451259473351,1,-3,-1,-1,-1,0,-2,-2
1528451259473351,-2,-3,-1,1,-4,-2,0,-1
1528451259488047,0,0,-1,-1,-1,-2,-1,1
1528451259488047,0,-1,1,1,0,-1,1,0
1528451259496028,0,1,-1,1,1,-2,-1,-1
1528451259496028,0,1,-1,-1,-1,0,-1,-1
1528451259511025,0,0,-1,-1,1,0,1,0
1528451259511025,-1,0,0,2,-2,0,-1,-1
1528451259519034,0,0,-2,-2,-2,-1,-2,0
1528451259519034,-1,-2,0,-1,-1,0,-2,0
1528451259526226,0,0,-2,-1,0,1,-1,0
1528451259526226,0,-3,0,-1,1,-1,-1,0
1528451259540468,1,-2,0,0,0,0,0,-2
1528451259540468,0,2,1,-1,-2,3,-1,0
1528451259556546,-3,0,-1,-2,-2,0,-1,2
1528451259556546,0,1,-1,0,-2,-1,-2,0
1528451259563406,-1,0,0,0,1,-1,-1,0
1528451259563406,-1,-1,-1,0,1,-2,0,-2
1528451259578369,-1,1,-1,0,-3,0,0,0
1528451259578369,0,0,-2,0,0,-3,0,-2
1528451259593327,1,-2,0,0,-1,-1,-2,1
1528451259593327,-2,-1,-2,-2,-1,-1,-1,-2
1528451259601333,0,-1,0,0,0,1,0,0
1528451259601333,1,-1,-1,-2,0,0,-1,-1
1528451259616320,0,-3,-2,-2,-1,-1,-1,0
1528451259616320,-1,0,2,-1,-1,0,1,1
1528451259631280,-1,-1,-1,0,-1,-1,0,0
1528451259631280,-2,-1,-1,0,-2,-1,-2,0
1528451259646240,0,0,-1,0,-1,0,-1,-1
1528451259646240,0,-1,1,0,-2,0,0,0
1528451259661200,1,0,-1,-1,-1,-1,-1,-2
1528451259661200,-2,0,-1,-1,-1,0,-1,0
1528451259668181,0,1,-1,0,0,-2,-1,2
1528451259668181,-1,0,-1,-2,-1,-1,-2,-1
1528451259683142,2,-1,-1,-1,-1,-1,0,-1
1528451259683142,-1,-2,0,-2,-1,-2,0,-1
1528451259698106,-2,-1,-1,-1,0,-1,0,-2
1528451259698106,-2,1,-1,0,-1,-1,-1,0
1528451259713062,0,1,0,0,0,0,1,-2
1528451259713062,0,-1,1,0,1,-1,2,0
1528451259721039,-1,0,0,0,0,0,-2,0
1528451259721039,0,-2,-3,0,0,-2,-1,-1
1528451259735959,-2,-1,0,-1,-1,1,-1,0
1528451259735959,0,-1,-1,0,-1,-2,1,-2
1528451259742962,-3,-1,-1,-1,1,0,-1,-1
1528451259742962,-1,0,-1,0,0,0,1,-1
1528451259757887,0,-1,-1,-1,-1,0,-1,-2
1528451259757887,2,-1,-1,-2,0,-2,0,9
1528451259772881,-1,-1,-2,-1,1,-1,-1,1
1528451259772881,-2,0,0,0,-1,0,1,-5
1528451259780827,-1,-2,0,0,1,-2,-2,-1
1528451259780827,0,-1,-3,-3,0,-2,-1,2
1528451259795836,1,0,-1,-1,-1,-1,-1,-1
1528451259795836,-1,-1,1,-3,-1,-1,-2,-3
1528451259803819,0,-1,-1,0,-1,-2,1,2
1528451259803819,-1,-2,0,2,0,-1,-1,-4
1528451259818779,2,0,-1,-1,-1,0,0,1
1528451259818779,1,-1,-1,-2,1,0,-2,-2
1528451259833742,-2,1,-2,-1,0,0,1,0
1528451259833742,0,0,-1,0,0,1,-1,-2
1528451259840666,-1,-1,-1,-2,-4,-2,-1,-1
1528451259840666,-3,-4,-3,0,-1,-2,0,0
1528451259855656,0,-2,2,0,0,-1,-2,3
1528451259855656,-1,-1,-3,1,0,-1,-1,-2
1528451259863605,-1,-1,0,2,2,-1,1,-1
1528451259863605,0,2,-1,-2,-1,-1,0,-3
1528451259886544,-1,-3,-1,-2,-1,1,0,-1
1528451259886544,-3,0,0,1,1,0,-1,1
1528451259901599,-1,-1,0,-3,1,-1,0,-2
1528451259901599,-1,0,0,-1,-1,1,-1,-2
1528451259908888,-1,-1,-1,-2,-1,0,0,-1
1528451259908888,-2,-1,-1,0,0,1,0,-3
1528451259923848,-1,1,0,1,1,-2,1,1
1528451259923848,-1,0,-2,0,1,-2,-1,-2
1528451259931025,0,0,-1,0,-2,0,-1,0
1528451259931025,-2,1,-1,-1,-1,-1,-1,-2
1528451259939109,0,0,0,0,-1,-1,1,0
1528451259939109,0,-1,-2,0,-3,0,-1,-2
1528451259954133,-1,-1,0,-2,-1,1,-1,0
1528451259954133,-2,-1,-2,-3,-2,-1,0,0
1528451259961281,-1,1,-2,-2,0,0,-1,1
1528451259961281,1,0,-1,-1,0,-1,1,0
1528451259975978,0,-1,-3,-1,-3,0,-1,-2
1528451259975978,-1,-2,0,-2,0,-1,0,-1
1528451259990943,-1,0,-1,0,1,0,-2,0
1528451259990943,-2,-1,-1,1,0,-2,0,-1
1528451260014073,-1,-1,0,-2,1,-1,1,-1
1528451260014073,0,-1,0,0,0,0,-2,-1
1528451260029215,0,0,-3,-1,-1,-1,-1,1
1528451260029215,-1,-1,-1,-1,0,-1,-1,-1
1528451260036082,-2,0,-2,-1,1,-1,-2,-1
1528451260036082,0,-2,-1,0,-2,-2,0,0
1528451260059026,1,-1,-1,-2,-1,1,0,0
1528451260059026,-1,0,0,-3,-1,-1,-2,-1
1528451260081572,-1,0,-1,0,-2,0,-3,-2
1528451260081572,-1,-1,1,-1,-1,1,0,0
1528451260096669,-2,-1,-3,-3,1,0,-1,-1
1528451260096669,-2,1,-1,1,0,0,-1,-2
1528451260111685,1,-1,1,2,0,-1,0,-2
1528451260111685,1,-2,-2,-15,-4,-1,-1,-1
1528451260126666,1,0,-1,2,-2,-1,-2,0
1528451260126666,-1,-2,3,6,3,0,0,0
1528451260141272,0,0,-1,0,-1,-1,-1,-1
1528451260141272,0,0,-3,0,-1,-1,2,-1
1528451260156533,0,-1,-1,-2,0,0,-1,-2
1528451260156533,0,-1,-1,4,-1,1,-1,0
1528451260163496,0,-1,-2,-3,0,1,-1,0
1528451260163496,1,-2,-2,5,0,-1,-2,-2
1528451260178466,-1,-1,0,2,-2,-1,0,0
1528451260178466,1,0,-3,-2,-2,0,1,1
1528451260201393,2,-2,1,4,0,-2,0,0
1528451260201393,-2,0,-2,1,0,-1,1,-2
1528451260208373,-2,0,-1,0,2,-1,-1,-1
1528451260208373,0,-2,1,9,2,0,0,-1
1528451260223597,-1,1,-1,-7,-3,0,-3,-1
1528451260223597,0,-1,1,3,-1,-2,0,-1
1528451260231310,1,-2,-2,-2,-3,0,-1,-1
1528451260231310,-2,0,1,1,0,0,-1,-2
1528451260238551,-2,-1,1,-1,-1,-1,0,-1
1528451260238551,-1,-1,0,-3,0,-1,0,0
1528451260253604,0,-1,-2,-3,0,0,-1,-1
1528451260253604,2,0,1,1,-1,-1,-2,0
1528451260261589,1,0,0,1,1,-1,-1,-1
1528451260261589,-1,-1,-1,-2,-1,-1,-1,-2
1528451260276511,-1,0,1,-3,-1,-1,-1,0
1528451260276511,-1,0,1,0,0,0,-2,-1
1528451260283260,-1,0,-2,-1,-1,1,1,-1
1528451260283260,-1,-2,-1,-2,-4,-1,-2,1
1528451260306473,-2,0,-2,-8,-5,0,0,1
1528451260306473,-1,-1,-1,0,-1,-2,-1,-1
1528451260320980,0,-1,-3,1,-1,-1,0,-1
1528451260320980,0,-1,0,1,-1,2,-1,-1
1528451260329204,-1,-1,1,-1,1,-1,-1,-1
1528451260329204,0,-1,-1,-6,0,0,-1,0
1528451260343666,-1,2,-2,3,0,-3,0,-1
1528451260343666,0,-1,-1,-4,-3,-1,0,-1
1528451260358312,2,0,-2,-1,-1,-1,-1,0
1528451260358312,0,0,-1,3,1,1,-1,0
1528451260373764,-2,2,-2,1,-2,-1,0,1
1528451260373764,0,-1,1,-3,-4,0,-2,-1
1528451260381743,-1,-1,0,2,1,1,-1,0
1528451260381743,0,-2,-2,0,0,-1,-1,-1
1528451260396435,0,-1,0,1,1,-2,-1,0
1528451260396435,0,-1,-1,0,1,-1,0,0
1528451260403049,-1,-1,0,-2,-1,-1,-1,0
1528451260403049,0,0,-3,-6,-2,0,0,-3
1528451260418062,-1,0,-1,1,-1,0,0,0
1528451260418062,-1,-1,-1,4,3,0,1,0
1528451260426040,-1,-1,0,-1,-3,0,0,0
1528451260426040,-2,-2,-2,9,4,-2,-1,1
1528451260440989,-1,0,-2,8,2,-2,-1,-1
1528451260440989,0,0,-1,-6,-3,0,0,0
1528451260456565,-2,0,-3,-1,1,0,0,-1
1528451260456565,-2,-2,-1,1,-1,-1,-1,-2
1528451260463615,-2,0,-2,-4,1,-1,1,-1
1528451260463615,1,-1,1,3,-1,1,0,-1
1528451260478619,-1,1,1,3,0,-1,-1,0
1528451260478619,-1,0,-3,-3,-2,-1,0,2
1528451260486719,0,-3,-2,-2,0,0,-2,1
1528451260486719,0,-1,-2,7,1,-1,0,1
1528451260500773,0,0,-1,-1,-4,0,0,-1
1528451260500773,0,1,1,-1,-1,-1,-3,-1
1528451260516349,-2,-1,-1,-1,1,1,-1,-2
1528451260516349,-1,-2,-1,0,-1,-2,1,-2
1528451260523554,1,-2,-2,-2,1,-1,-1,-1
1528451260523554,1,0,-3,-4,-1,-1,-1,-2
1528451260538446,0,-1,-1,0,0,-1,-1,-1
1528451260538446,1,-1,-2,-2,-3,-2,-2,-1
1528451260553720,-1,2,1,2,-2,0,-1,1
1528451260553720,0,-1,2,-1,0,-1,1,0
1528451260568391,-1,-2,-1,0,-1,-1,-2,-1
1528451260568391,-1,0,-3,-3,0,0,-2,1
1528451260583561,-1,-2,-1,-2,-4,0,0,0
1528451260583561,0,1,-2,1,0,1,0,1
1528451260591301,1,1,-2,-2,1,-1,1,1
1528451260591301,0,0,-2,2,2,-1,2,-1
1528451260598527,0,-1,-1,-1,-1,-1,0,0
1528451260598527,0,-1,0,-1,-1,-1,-2,-1
1528451260606293,-2,-4,0,0,0,0,0,0
1528451260606293,-1,0,-1,1,-4,-3,-1,0
1528451260621222,0,0,-1,-4,0,0,0,-1
1528451260621222,0,-1,2,0,1,1,0,0
1528451260636183,0,-1,0,3,0,0,0,-1
1528451260636183,-1,1,-1,-7,-2,-2,-3,0
1528451260643677,0,0,-1,0,1,-1,0,0
1528451260643677,-1,-2,0,-2,-1,-1,0,-1
1528451260658411,-2,-3,-1,-1,-1,0,-1,-1
1528451260658411,0,-3,-1,0,1,0,-1,-1
