timestamp,emg1,emg2,emg3,emg4,emg5,emg6,emg7,emg8
1529313529882605,0,2,-2,2,3,1,1,1
1529313529882605,-2,-1,-3,-3,-3,0,-1,-2
1529313529905542,1,-3,-5,-2,-1,-2,-2,-2
1529313529905542,-2,-1,-1,1,1,1,2,-2
1529313529934465,4,6,11,0,0,4,4,3
1529313529934465,0,-6,0,6,1,-2,-1,4
1529313529942443,-2,-1,5,13,11,-3,-3,-2
1529313529942443,-2,-1,1,25,22,18,5,0
1529313529943441,-6,-10,-16,-76,-75,-30,-16,-7
1529313529943441,2,30,-7,-10,-6,-8,-12,-8
1529313529945437,3,1,-2,-1,-1,7,16,7
1529313529945437,-2,-14,15,15,28,10,3,-2
1529313529956408,-3,-6,42,31,20,8,4,1
1529313529956408,-2,-8,-14,-19,-18,-10,-6,-4
1529313529965385,-5,-11,-2,-6,0,-4,-15,-11
1529313529965385,4,7,2,5,-8,-13,6,8
1529313529972366,4,13,-12,11,20,12,11,5
1529313529972366,-5,-8,4,-12,-31,-10,-2,9
1529313529987325,1,4,-2,-1,-26,-25,-17,-10
1529313529987325,0,-2,-8,2,37,35,4,3
1529313529993309,1,4,5,18,25,23,21,1
1529313529993309,4,0,6,31,38,-2,19,5
1529313530016248,-2,-6,-13,-27,-11,27,12,4
1529313530016248,-1,0,-7,-26,-67,-43,-37,-12
1529313530017246,-1,-5,-8,9,17,0,2,2
1529313530017246,0,1,1,6,21,14,5,0
1529313530031209,-2,0,-1,4,0,-29,-6,-1
1529313530031209,-5,-6,-5,-19,-27,-4,-1,-4
1529313530032214,1,0,-7,-5,-12,-4,-8,6
1529313530032214,-5,-6,-1,-1,2,3,-2,-13
1529313530054146,-4,-1,8,4,9,13,-2,-3
1529313530054146,-5,-4,-5,-9,-9,-20,0,1
1529313530055144,3,-2,-5,-1,-12,-9,-2,-2
1529313530055144,0,-3,-3,-9,-20,-6,-8,20
1529313530077086,1,0,-3,4,13,-2,-9,-14
1529313530077086,3,4,-7,8,35,24,7,-3
1529313530077086,-3,0,-8,-1,13,33,0,-3
1529313530077086,6,1,-2,14,-3,3,1,-4
1529313530092044,0,3,-9,0,-12,-3,8,7
1529313530092044,-6,-9,-23,-46,-75,-45,-9,-4
1529313530092044,1,-7,-21,25,56,-7,-2,-1
1529313530092044,-1,-1,4,29,67,47,15,-3
1529313530113987,-1,-1,9,8,-15,-24,-1,4
1529313530113987,2,4,8,-14,-31,-33,-15,-4
1529313530114984,-3,2,10,-20,-28,-22,-18,-7
1529313530114984,-2,1,8,35,31,34,10,-1
1529313530136925,-2,-2,-11,-13,15,24,7,5
1529313530136925,0,2,15,-10,-23,-1,-1,-2
1529313530136925,-6,-7,-1,-18,-40,-19,-18,-12
1529313530136925,0,6,12,-13,-3,-14,7,1
1529313530151885,3,4,14,21,17,10,3,3
1529313530151885,-5,-2,-2,11,22,29,10,6
1529313530151885,-4,-3,1,1,-5,1,-7,-8
1529313530151885,1,-1,2,-16,-41,-47,-14,-4
1529313530173826,-3,-4,-3,-7,-13,-15,-14,-7
1529313530173826,0,0,4,11,50,45,21,5
1529313530174824,3,5,12,30,28,23,12,7
1529313530174824,-3,-13,-11,-39,-41,-31,-19,-7
1529313530196766,-6,-13,-7,8,-24,-16,-9,-5
1529313530196766,-9,-13,-16,16,24,1,6,-3
1529313530197762,-4,-7,-9,-22,-4,-5,4,0
1529313530197762,-2,-2,18,14,0,2,-8,-4
1529313530211726,5,11,19,-12,-8,-16,-4,2
1529313530211726,1,14,6,18,-5,0,-4,-5
1529313530212739,1,12,-8,20,4,4,3,-1
1529313530212739,-4,6,-21,-57,-22,-16,-9,-4
1529313530233667,2,7,-13,4,11,7,2,1
1529313530233667,4,7,-2,14,9,12,3,3
1529313530234664,-1,-3,-4,19,2,-10,-4,-3
1529313530234664,-7,-13,-38,-20,-29,-12,-8,-6
1529313530256604,0,-4,-14,-32,-12,-2,-9,-8
1529313530256604,3,3,-3,-29,33,8,17,9
1529313530257601,-5,-21,-41,7,-13,-10,-4,-1
1529313530257601,-1,-6,-13,10,-4,6,-1,-2
1529313530271566,-3,-6,-5,-35,-31,-20,-16,-5
1529313530271566,-8,-7,-16,4,5,7,12,2
1529313530272564,6,27,28,22,34,15,9,5
1529313530272564,1,14,15,7,21,23,14,1
1529313530294504,0,-3,11,21,4,1,0,1
1529313530294504,4,-4,19,-3,-30,-27,-12,-4
1529313530294504,-4,-14,3,-3,-12,-15,-7,-4
1529313530294504,-4,-11,-27,-13,23,16,7,-2
1529313530316444,-2,4,-7,44,53,19,7,1
1529313530316444,2,-2,-24,-38,-83,-20,-12,-4
1529313530317443,-7,-9,-51,-57,-23,-8,-4,-3
1529313530317443,-2,-10,-53,-21,-36,-22,-12,-5
1529313530331412,-2,-3,-11,3,23,13,7,0
1529313530331412,4,-1,13,41,36,1,-7,-2
1529313530332404,4,4,18,42,3,3,6,3
1529313530332404,-1,-2,14,1,7,6,2,2
1529313530354343,0,-1,-4,-5,-23,-6,-2,-2
1529313530354343,-3,-3,10,18,28,7,3,0
1529313530354343,-2,-4,15,-17,-12,2,1,0
1529313530354343,1,-1,34,20,21,2,-1,2
1529313530376300,-3,-13,-33,-18,-14,-3,3,1
1529313530376300,-2,-6,-25,-50,-28,-16,-17,-8
1529313530377283,3,8,6,20,24,14,14,8
1529313530377283,-3,-12,-28,-4,3,6,-1,-10
1529313530391244,2,-2,-4,-6,-4,5,2,-1
1529313530391244,4,-3,17,53,17,1,-1,0
1529313530392242,-2,-8,-2,-66,-20,-17,-16,-5
1529313530392242,-5,0,30,55,-8,-6,4,-1
1529313530415180,-1,9,48,-13,-2,3,2,0
1529313530415180,5,1,-13,-6,28,12,5,0
1529313530416178,-2,-1,55,34,-16,-8,-7,-6
1529313530416178,3,10,34,-24,-14,-3,-6,-1
1529313530436126,0,3,47,4,20,12,10,7
1529313530436126,-9,-23,-12,33,2,5,5,1
1529313530437139,-3,0,3,-15,13,11,2,-2
1529313530437139,4,4,11,10,-9,-6,-3,2
1529313530459064,0,-7,9,-47,-11,-8,-12,-6
1529313530459064,0,-3,-9,-14,-34,-6,-3,-1
1529313530460061,-9,-40,-26,-16,13,6,13,2
1529313530460061,1,-31,8,12,3,-4,-2,0
1529313530474023,3,-30,15,21,6,4,6,3
1529313530474023,-5,-54,-12,-7,-21,-13,-14,-7
1529313530475022,1,-48,-14,-8,-9,-5,-8,-4
1529313530475022,2,-68,27,-4,6,-2,0,1
1529313530496963,0,-31,11,27,2,4,3,2
1529313530496963,8,-3,30,-53,2,0,-4,-2
1529313530496963,2,13,-29,19,-3,-1,-2,1
1529313530496963,0,0,9,18,19,8,1,3
1529313530511922,3,-33,-45,-46,13,7,7,4
1529313530511922,-7,-25,37,24,18,0,-1,-4
1529313530511922,3,-37,34,-20,-31,-22,-12,-3
1529313530511922,-2,-97,6,-17,-9,9,6,0
1529313530533863,-8,-26,61,90,35,8,1,-6
1529313530533863,-2,26,-54,-48,-20,-11,-9,-3
1529313530534861,-1,42,-5,-63,-16,14,17,5
1529313530534861,2,96,-39,-2,1,-10,-5,1
1529313530556803,-2,61,-32,-1,-19,-10,-3,1
1529313530556803,1,52,17,54,37,5,1,0
1529313530556803,-6,52,-58,0,-13,-17,-15,-10
1529313530556803,-4,46,-106,-81,-23,-7,-3,-6
1529313530570764,-12,36,20,0,-6,-15,-2,-4
1529313530570764,6,25,-2,29,-3,7,2,1
1529313530578742,-6,18,-12,34,-10,-6,-5,-3
1529313530578742,-3,22,21,-19,-4,-4,-4,-4
1529313530593717,-4,9,-12,3,-4,2,-6,-3
1529313530593717,3,12,-14,-17,-17,-6,-5,-2
1529313530594700,-1,-2,2,29,33,29,22,7
1529313530594700,-2,9,32,53,44,9,-2,-1
1529313530616642,-2,9,-90,-50,-73,-18,-6,-2
1529313530616642,-2,-2,-27,-58,-18,-11,-1,2
1529313530617640,3,-1,50,46,19,-7,-9,-6
1529313530617640,-2,6,-13,-20,-22,-3,-3,-1
1529313530630604,10,3,-3,66,70,22,9,3
1529313530630604,6,-1,-16,27,5,8,4,2
1529313530638582,-10,-4,6,-93,-57,-26,-12,-7
1529313530638582,-2,6,-32,-7,2,2,2,1
1529313530654547,-5,-1,-7,13,-12,-9,-7,-5
1529313530654547,0,-2,9,29,16,7,2,-1
1529313530654547,9,0,-7,69,47,14,2,4
1529313530654547,-5,1,-16,-65,-20,-3,-3,-4
1529313530676482,1,0,5,-23,-19,-11,-10,-3
1529313530676482,-8,-1,-2,17,15,4,9,0
1529313530677479,1,-1,-18,-4,5,1,0,2
1529313530677479,-2,1,0,36,6,5,3,2
1529313530690444,3,-1,-9,40,31,2,-3,-2
1529313530690444,-14,-3,-67,-100,-86,-10,-7,-14
1529313530698423,-4,-4,97,-10,-32,-24,-29,4
1529313530698423,28,27,-9,18,19,42,103,64
1529313530722358,-10,16,33,24,21,-11,-36,-35
1529313530722358,-12,0,30,104,102,7,-26,-37
1529313530723356,-11,-41,-128,-87,-86,-17,-18,-25
1529313530723356,-15,41,96,26,17,-27,-48,-4
1529313530736322,74,21,-3,12,28,67,118,119
1529313530736322,2,-13,-21,-16,-15,-23,-32,-6
1529313530737319,-45,43,17,33,32,-16,-72,-92
1529313530737319,-17,-33,-8,11,3,3,-6,-9
1529313530751281,-32,6,-45,-65,-49,-33,-28,14
1529313530751281,71,98,52,35,26,43,55,54
1529313530758263,13,-45,-49,8,23,7,-1,1
1529313530758263,-17,-27,-23,18,2,-17,-41,-40
1529313530777225,-15,-31,-43,-36,-23,-2,-20,-22
1529313530777225,-1,46,-7,-9,-32,-6,24,25
1529313530778211,12,-16,23,-1,-5,6,16,28
1529313530778211,10,28,59,95,86,15,-1,-11
1529313530796161,-9,-21,-92,-76,-86,-20,-5,-10
1529313530796161,-22,-58,-17,-100,-69,-24,-23,-17
1529313530797158,-2,-2,43,-20,-18,-8,7,2
1529313530797158,4,21,6,32,5,2,-1,1
1529313530811124,2,0,56,45,51,5,2,-12
1529313530811124,-14,-38,-39,39,58,3,-8,-13
1529313530818102,6,1,-29,1,-25,3,10,15
1529313530818102,11,-7,-40,-92,-75,-12,3,7
1529313530834062,-13,-17,38,-4,-4,-10,-23,-25
1529313530834062,-9,-33,-2,3,5,2,-3,-5
1529313530835060,15,32,21,46,59,16,23,24
1529313530835060,-2,-17,-4,4,-6,-1,-9,-5
1529313530857021,-7,-24,-30,-30,-17,-2,-6,-13
1529313530857021,-10,-8,4,15,7,-9,-7,1
1529313530857021,5,-12,-23,8,11,11,14,8
1529313530857021,-1,-10,-12,-20,-17,-2,-6,-6
1529313530870986,0,8,-23,23,26,6,-4,-5
1529313530870986,-1,17,64,35,31,0,1,3
1529313530877944,1,-9,-33,-32,-38,7,1,1
1529313530877944,1,-11,-20,-53,-35,-17,-13,-8
1529313530893901,-3,12,23,-30,9,0,7,2
1529313530893901,2,12,32,22,47,10,3,1
1529313530894899,2,-13,-46,35,-9,-5,5,5
1529313530894899,-14,-13,3,-79,-35,-18,-11,-9
1529313530917045,3,12,26,23,7,1,-2,-2
1529313530917045,-4,-20,-15,-15,-5,2,-3,-6
1529313530917957,3,19,21,39,45,6,2,3
1529313530917957,4,-1,14,35,13,7,4,4
1529313530939023,2,19,25,7,9,-1,-6,-5
1529313530939023,0,2,9,5,-5,4,1,-1
1529313530939778,5,13,55,-1,6,-3,4,5
1529313530939778,-3,-7,-29,-10,-6,-2,-5,-2
1529313530962951,-6,-17,-19,-26,-4,2,-1,-3
1529313530962951,0,12,0,41,8,-7,-6,-1
1529313530962951,5,2,8,44,25,9,5,5
1529313530962951,-6,-34,-63,-69,-21,3,3,-1
1529313530975922,0,-9,1,-22,-31,-15,-7,-1
1529313530975922,1,-13,28,40,-1,3,4,2
1529313530984232,-3,-6,-46,-53,7,-2,2,-3
1529313530984232,8,13,3,64,45,11,7,3
1529313531000302,-1,3,-24,13,8,4,-3,-7
1529313531000302,-4,-23,-25,-80,-51,-10,-6,-4
1529313531000918,-11,-34,-1,-28,-18,-15,-8,-8
1529313531000918,6,13,10,93,11,0,0,2
1529313531023013,0,-1,-6,-32,9,3,0,-1
1529313531023013,1,45,42,57,32,-7,-5,0
1529313531023013,-2,0,-1,-40,58,30,11,4
1529313531023013,-9,-43,-20,-115,-86,-45,-11,-5
1529313531036997,5,11,14,95,49,1,1,-1
1529313531036997,-3,-22,-38,-10,-7,-5,-3,0
1529313531043963,11,28,20,76,48,16,5,5
1529313531043963,4,-6,-16,-18,-1,8,2,2
1529313531059633,-16,-25,0,4,-43,-17,-15,-12
1529313531059633,-5,-14,-13,-8,-2,-1,0,-1
1529313531060210,-1,-7,-38,-62,-30,-17,-9,-4
1529313531060210,9,9,21,92,46,25,9,6
1529313531083006,4,1,-24,-8,-14,4,3,2
1529313531083006,-7,-22,-34,-53,-14,-5,-2,-2
1529313531083006,3,9,-31,34,27,10,3,4
1529313531083006,-13,-35,-5,-46,-57,-23,-13,-9
1529313531097354,0,7,26,-19,-5,1,-1,2
1529313531097354,-3,-7,-43,-6,-15,7,4,-3
1529313531097354,0,-4,7,-9,10,-1,-1,0
1529313531097354,1,14,31,48,27,8,0,-1
1529313531127199,-4,-25,-29,19,14,12,9,-1
1529313531127199,-5,-9,-10,-26,-17,-12,-7,-5
1529313531128209,-2,-8,-14,-21,-27,-9,-3,-1
1529313531128209,-2,-6,-31,2,25,10,4,0
1529313531142419,7,11,30,38,8,2,0,4
1529313531142419,0,1,28,37,-7,-2,-1,0
1529313531143157,-2,8,-42,4,11,-3,0,-2
1529313531143157,-2,11,-22,-33,-25,-10,-7,-4
1529313531156121,-1,-50,-56,-26,-4,-6,7,7
1529313531156121,-1,5,7,-4,12,8,2,2
1529313531164100,-1,-9,22,43,-11,-7,-3,-1
1529313531164100,4,4,-6,24,34,8,2,3
1529313531179436,-2,15,-28,15,5,1,-5,-6
1529313531179436,-3,-21,-6,-70,-44,-15,-8,-4
1529313531180058,-7,-24,0,14,-10,-4,-1,-1
1529313531180058,5,29,31,7,15,8,4,0
1529313531209453,-4,-23,0,15,-3,-5,-4,-6
1529313531209453,-2,-4,-22,-21,2,6,2,-1
1529313531217459,-2,0,-6,19,-9,-1,0,0
1529313531217459,-3,11,15,-31,-5,-10,-4,-1
1529313531218429,0,-25,-48,1,20,10,2,-1
1529313531218429,3,-5,-5,8,5,4,3,0
1529313531224414,0,9,13,-5,-9,-9,-2,-4
1529313531224414,-5,-21,14,49,13,1,0,-3
1529313531240463,1,3,-8,-30,-14,-1,-4,1
1529313531240463,1,37,26,18,1,-2,-2,-1
1529313531240463,-1,0,3,-28,-3,-4,-6,-3
1529313531240463,-7,-72,-67,9,-4,-3,-4,-2
1529313531262313,0,32,39,3,10,-3,-2,-1
1529313531262313,-1,-19,-9,0,-3,4,2,1
1529313531263561,-2,-3,14,8,-5,-2,-2,-1
1529313531263561,2,17,19,5,-2,-3,-2,-3
1529313531275563,-7,11,8,-26,-13,-5,-11,-23
1529313531275563,3,-55,-77,-16,0,0,13,16
1529313531284729,-7,-28,-22,-9,-21,-6,-6,3
1529313531284729,-12,17,-2,-12,3,-1,-10,-15
1529313531299705,-13,3,-2,-7,-7,-9,-25,-82
1529313531299705,31,36,38,34,15,18,11,47
1529313531301699,24,34,87,-28,-28,-10,58,52
1529313531301699,-31,47,10,1,6,-25,-86,-58
1529313531322909,40,-60,-55,16,10,32,85,83
1529313531322909,0,-47,-30,4,2,-9,-49,-33
1529313531323802,-44,-19,28,-31,-21,-22,-58,-60
1529313531323802,-2,16,8,8,3,-1,0,-30
1529313531336656,-40,40,40,-5,-4,-18,-27,-38
1529313531336656,4,-21,0,-2,1,8,12,28
1529313531344626,9,-47,-42,49,28,16,11,4
1529313531344626,14,36,2,68,62,24,18,17
1529313531358589,-9,-48,7,-80,-58,2,-3,24
1529313531358589,-8,32,35,-31,-24,-20,18,5
1529313531367565,-5,22,-37,4,4,-5,-17,-21
1529313531367565,10,8,15,49,50,16,27,21
1529313531382828,7,-46,33,37,35,12,9,31
1529313531382828,-5,13,-10,26,-6,-7,-6,-24
1529313531383523,-5,-17,-41,-87,-86,-10,-7,-7
1529313531383523,10,4,12,12,-23,-4,6,-10
1529313531395929,0,38,-1,-31,16,3,18,46
1529313531395929,-6,12,-14,17,13,-3,-11,-15
1529313531404891,3,127,69,43,62,16,2,3
1529313531404891,2,43,-19,-60,-34,0,14,21
1529313531419180,-4,-38,-13,-33,-66,-24,-24,-29
1529313531419180,-5,-68,28,20,19,5,3,-11
1529313531426450,9,-128,-41,23,18,7,8,18
1529313531426450,4,-128,1,22,41,9,6,3
1529313531442626,1,-69,-39,-26,-50,-23,-14,-8
1529313531442626,-5,-103,-3,-10,-16,-6,-4,0
1529313531443559,2,-128,10,21,8,1,-6,-22
1529313531443559,-2,-128,-42,-44,-30,-2,11,13
1529313531464501,6,-94,25,87,56,9,3,2
1529313531464501,1,-114,-19,3,25,11,7,2
1529313531466496,-16,-103,-49,-92,-80,-30,-21,-16
1529313531466496,3,-88,2,-4,-21,-9,-1,9
1529313531479804,0,26,-36,-39,1,6,-7,-11
1529313531479804,1,105,11,42,10,-8,-3,-9
1529313531486710,11,103,17,64,65,26,24,17
1529313531486710,0,85,-17,-46,-31,-6,0,9
1529313531503030,-1,106,21,-54,-23,-14,-9,-8
1529313531503030,-10,99,28,1,-6,-11,-13,-14
1529313531503772,5,75,-26,75,28,13,6,7
1529313531503772,-18,39,-22,-84,-63,-29,-14,-10
1529313531525042,3,72,42,66,39,10,-1,-3
1529313531525042,0,29,20,-27,9,7,5,1
1529313531526711,5,34,-4,14,14,12,7,12
1529313531526711,2,16,37,61,-4,-2,0,-1
1529313531540090,-8,-7,-38,-78,-41,-18,-12,-7
1529313531540090,-3,17,-13,38,-9,0,-2,-1
1529313531541148,0,-11,-20,11,13,8,1,0
1529313531541148,12,8,25,9,39,13,6,10
1529313531563053,-7,-14,-83,-30,-5,-2,-5,-6
1529313531563053,-5,-11,31,14,7,1,2,-2
1529313531563789,2,18,-44,-17,-19,-7,-6,-6
1529313531563789,-3,-27,-9,4,6,8,3,2
1529313531585132,3,20,48,25,9,0,0,6
1529313531585132,-8,-7,-46,-11,-18,-11,-4,-6
1529313531586727,-7,-6,19,-31,-3,-7,-10,-6
1529313531586727,3,18,-14,-20,-8,2,-1,3
1529313531599020,3,-11,0,22,2,7,2,0
1529313531599020,2,2,10,20,17,2,0,1
1529313531606462,1,5,5,-5,16,2,0,3
1529313531606462,-10,-36,-82,-6,-71,-21,-7,-4
1529313531623093,-4,-3,44,14,6,-5,-6,-3
1529313531623093,1,-1,0,-12,-3,1,0,-2
1529313531623935,0,1,-13,17,-3,-1,0,0
1529313531623935,6,20,33,29,44,19,10,6
1529313531645120,-1,7,10,-3,-2,0,-4,0
1529313531645120,-7,-29,-7,-51,-24,-16,-11,-7
1529313531646125,2,8,12,-1,9,4,6,4
1529313531646125,-6,1,-2,-7,3,1,-3,-3
1529313531659092,11,30,1,78,50,12,6,6
1529313531659092,-5,-9,-15,-90,-27,-3,-2,-4
1529313531666073,-6,-16,-2,-51,-39,-16,-9,-7
1529313531666073,-9,-6,12,10,-20,-7,-4,-5
1529313531682970,1,8,16,48,24,-2,1,3
1529313531682970,8,7,-12,34,25,21,13,6
1529313531683773,-7,-21,-6,-46,-21,-12,-8,-6
1529313531683773,3,14,14,-12,12,3,4,3
1529313531705279,1,12,20,53,15,7,1,0
1529313531705279,-2,-6,-4,-32,-12,-1,-2,-1
1529313531706312,-2,-3,17,28,-10,-1,-1,0
1529313531706312,1,11,5,10,18,-10,-1,1
1529313531719244,-3,1,10,15,1,2,1,-2
1529313531719244,-2,7,-19,-76,-41,-16,-6,-3
1529313531726487,5,14,-3,49,27,10,7,6
1529313531726487,-6,-27,12,19,-23,-10,-9,-8
1529313531743057,-4,-12,-2,-12,-13,-5,-3,-4
1529313531743057,0,2,-10,26,-4,-6,-3,0
1529313531743732,-1,-2,-18,-3,5,2,0,1
1529313531743732,7,5,-7,-9,24,10,8,6
1529313531765094,-10,-19,2,-60,-24,-10,-7,-7
1529313531765094,0,3,-24,25,6,3,-2,0
1529313531766359,-1,0,10,-4,-12,-9,-3,-3
1529313531766359,4,12,-17,24,9,2,1,1
1529313531779060,-5,-10,-10,-14,-7,1,-1,-4
1529313531779060,3,-9,-18,-2,9,7,1,-11
1529313531786780,2,5,25,9,5,-1,6,12
1529313531786780,-16,7,-17,-17,-9,-11,-27,-24
1529313531802455,-13,23,-18,-7,-10,9,10,-28
1529313531802455,11,-58,-36,1,-1,-3,-54,30
1529313531803673,-3,-31,-34,9,13,-2,-47,-30
1529313531803673,23,-42,-33,-15,-9,10,92,13
1529313531824758,-9,8,35,21,15,6,-3,4
1529313531824758,-11,-30,-25,20,1,8,68,30
1529313531826744,6,-34,2,13,-1,10,38,5
1529313531826744,31,27,9,-34,-6,-5,-51,-38
1529313531838725,-80,-45,-3,-2,-9,-40,-105,-109
1529313531838725,-40,-1,36,3,-5,-11,-5,-52
1529313531847688,-35,18,-9,22,32,-8,-28,-27
1529313531847688,4,1,-3,-35,-27,8,25,24
1529313531862683,52,70,-49,14,0,23,34,62
1529313531862683,4,-96,-56,-54,-83,-7,20,42
1529313531863645,-3,24,28,-9,-8,-8,5,5
1529313531863645,-1,14,-3,-47,14,-4,-38,5
1529313531884643,12,-4,13,3,7,1,20,11
1529313531884643,-10,49,39,40,29,10,-6,-17
1529313531886584,34,34,-6,-3,-2,3,9,28
1529313531886584,-31,10,44,21,17,7,6,-67
1529313531898607,33,5,-14,-16,-3,-7,4,118
1529313531898607,-1,127,45,23,8,2,-19,-56
1529313531907526,-19,113,44,-25,-16,-2,-2,-3
1529313531907526,22,106,7,19,14,4,18,81
1529313531922514,-34,-21,20,-17,-8,-5,3,-56
1529313531922514,29,-77,28,31,23,0,-7,16
1529313531923488,-5,-128,-36,-8,13,4,9,-35
1529313531923488,-11,-128,-35,23,-7,-7,5,89
1529313531944486,8,-104,19,-53,-52,-12,-3,-29
1529313531944486,8,-128,-18,5,22,1,11,53
1529313531946424,6,-120,-38,-7,-18,-1,6,27
1529313531946424,0,-114,14,31,47,10,-5,-35
1529313531958445,10,-128,-55,-30,-44,-14,3,15
1529313531958445,-4,-90,-5,2,8,1,-2,-12
1529313531967385,-4,-41,-27,-25,-13,-4,-7,-14
1529313531967385,-4,32,15,61,14,1,-14,-10
1529313531982380,6,98,37,10,31,19,18,20
1529313531982380,-7,127,-12,-28,-18,-15,-16,-30
1529313531984358,7,83,-22,17,-3,5,10,9
1529313531984358,-12,93,22,2,-9,-2,-9,-23
1529313532004269,4,73,7,40,18,2,11,15
1529313532004269,7,66,8,13,2,3,2,-2
1529313532006264,-2,87,60,-44,-7,-6,-4,5
1529313532006264,-4,54,-55,-9,-12,-7,-12,-23
1529313532018232,6,29,-3,24,16,5,3,-5
1529313532018232,-2,28,23,26,14,-6,-3,2
1529313532027208,-11,30,-16,-28,-26,-8,-6,-3
1529313532027208,-7,4,4,-9,-5,0,-1,-9
1529313532043166,1,17,12,-5,-8,0,1,-6
1529313532043166,3,38,-22,-1,3,1,4,7
1529313532048152,3,-3,-12,-1,4,-1,-2,-8
1529313532048152,-3,6,14,3,1,-2,2,-1
1529313532072145,-2,10,-6,-6,5,-1,-3,-3
1529313532072145,2,15,-12,-6,3,6,-3,-17
1529313532074082,1,127,18,-6,-6,-2,7,9
1529313532074082,1,114,27,6,2,-5,-1,3
1529313532078072,-2,79,-14,-6,3,-5,-6,-7
1529313532078072,-4,52,6,-5,3,1,1,-6
1529313532087086,2,2,20,44,28,2,-3,-2
1529313532087086,-2,84,-33,-29,-31,1,-1,4
1529313532102007,-2,-9,2,-25,-24,-7,-2,-8
1529313532102007,-2,-34,-1,-8,7,-1,0,3
1529313532104001,2,-123,4,43,30,5,1,3
1529313532104001,0,-128,-25,-30,24,15,3,-3
1529313532124945,-6,-105,-35,-38,-55,-26,-11,-10
1529313532124945,1,-83,-21,-4,3,-5,-2,2
1529313532125943,-3,-97,9,1,-5,3,0,3
1529313532125943,1,-96,17,57,27,6,4,-2
1529313532138910,5,-42,-14,-7,25,6,3,3
1529313532138910,3,-62,-5,22,-8,-12,-6,-1
1529313532147926,-7,-32,-17,-47,-24,7,0,-6
1529313532147926,-7,-28,-27,-20,-30,-16,-3,-2
1529313532161867,5,-36,1,28,26,9,4,2
1529313532161867,5,-17,17,42,21,8,5,3
1529313532163842,6,3,16,79,56,13,0,2
1529313532163842,-13,-16,-20,-85,-101,-27,-12,-8
1529313532184889,-5,-19,-9,25,6,-8,-8,-6
1529313532184889,-4,-1,-19,-24,-3,2,1,-3
1529313532186657,2,11,-21,8,-2,-2,1,2
1529313532186657,5,-23,14,20,31,5,3,3
1529313532199121,1,-7,12,11,12,7,4,1
1529313532199121,-4,8,2,-10,-8,2,-1,-2
1529313532207479,2,-4,-17,2,-6,-4,-3,0
1529313532207479,7,-12,16,49,26,9,5,5
1529313532221693,-18,1,-28,-59,-44,-13,-14,-15
1529313532221693,1,3,1,-19,-10,0,1,3
1529313532229000,-3,-3,-42,-48,-27,-11,-6,0
1529313532229000,9,-6,6,80,25,10,5,4
1529313532245965,3,3,3,6,25,6,4,0
1529313532245965,-11,-4,18,-2,-9,-7,-6,-7
1529313532248952,0,0,1,-5,-26,-11,-4,-4
1529313532248952,-6,-41,-7,-58,-22,-13,-7,-6
1529313532274856,9,-31,-8,50,28,12,9,7
1529313532274856,-1,-47,-13,-15,-6,1,0,-1
1529313532276605,0,-42,18,35,58,11,1,1
1529313532276605,-8,-63,-77,-66,-90,-22,-5,-3
1529313532281592,1,-22,5,-23,0,0,0,1
1529313532281592,1,-27,-4,-2,4,-2,0,1
1529313532288624,-4,-21,-5,-10,-11,-9,-4,-4
1529313532288624,-1,12,23,25,32,8,0,-2
1529313532304581,-2,-10,7,11,2,2,0,0
1529313532304581,-3,-13,-27,-20,-12,-1,-1,1
1529313532306523,-2,7,-8,1,-7,2,1,2
1529313532306523,-3,-1,2,-4,9,-1,-2,-4
1529313532319053,-1,-12,-9,-6,-2,3,1,-2
1529313532319053,2,18,27,21,12,2,1,0
1529313532327814,1,0,-13,-24,-20,-5,-1,-2
1529313532327814,-1,-8,6,-1,8,1,-1,-1
1529313532342320,-1,-6,2,8,5,0,-1,1
1529313532342320,0,20,-10,-1,-1,2,0,-1
1529313532349080,-4,2,-12,-18,-22,-9,-7,-13
1529313532349080,0,6,-6,-6,8,1,2,4
1529313532365284,0,10,-1,15,8,3,1,1
1529313532365284,-3,1,-2,-7,-8,-4,-2,-2
1529313532366328,-1,1,-14,-14,-10,-4,-1,0
1529313532366328,-3,20,15,17,22,12,5,1
1529313532378311,-2,16,10,-1,-3,-3,-2,-3
1529313532378311,0,10,-4,-8,-4,-5,-2,0
1529313532387806,-4,40,3,-9,-12,-11,-5,-3
1529313532387806,0,35,1,5,5,-1,-1,-2
1529313532402499,0,36,4,2,1,-2,-2,1
1529313532402499,0,62,16,26,20,5,0,-1
1529313532408548,-2,45,-23,-42,-26,0,-1,1
1529313532408548,-1,114,19,-23,-24,-14,-5,-3
1529313532432382,-2,127,8,-1,8,4,0,-2
1529313532432382,-1,123,6,-2,-4,-3,0,-2
1529313532434379,2,64,43,24,16,4,1,-1
1529313532434379,-1,-26,13,-1,-2,-5,-9,-6
1529313532447656,-4,-77,1,11,18,8,19,7
1529313532447656,-1,-116,8,5,8,0,-2,-1
1529313532448342,0,-91,4,2,0,-1,2,2
1529313532448342,0,-72,8,-10,-17,-9,-8,-4
1529313532461666,0,-82,1,-3,0,-2,-6,-4
1529313532461666,0,-61,-14,-3,2,8,7,2
1529313532468593,-1,-39,-13,-8,-5,-3,-2,0
1529313532468593,1,-39,2,5,4,0,-1,-1
1529313532484552,-1,-27,-12,-3,-3,-4,-4,-2
1529313532484552,0,-16,-19,-6,-7,-1,1,2
1529313532486546,0,-10,7,-4,-9,-5,-3,1
1529313532486546,1,-15,-15,7,7,2,1,1
1529313532508102,2,-4,-7,-1,-2,4,-1,-1
1529313532508102,-1,-2,-9,-10,-8,-5,-4,-1
1529313532508914,-1,-10,-12,2,-4,-4,-4,-2
1529313532508914,-1,-2,-7,5,8,1,0,0
1529313532522114,-3,2,-7,5,6,6,7,3
1529313532522114,0,-6,-18,-4,-3,0,1,0
1529313532529057,-1,-3,-25,5,6,3,1,1
1529313532529057,-1,-5,-34,-4,-3,-5,-3,0
1529313532544900,-2,-52,-21,-8,-13,-5,-11,-4
1529313532544900,-2,-42,-19,-4,-7,-5,-5,-2
1529313532546639,-1,-23,20,6,15,10,10,5
1529313532546639,1,-38,19,1,4,2,0,-2
1529313532567825,4,-35,-1,1,-2,-4,-1,-1
1529313532567825,5,-31,33,1,-3,-5,-2,-1
1529313532568639,-5,-19,42,4,-2,-3,-4,-3
1529313532568639,-4,-8,6,-1,5,4,2,-1
1529313532581640,-2,7,9,-5,-8,-5,-4,-2
1529313532581640,3,4,13,-7,-8,-7,-6,-1
1529313532589829,-1,1,3,2,4,2,0,-3
1529313532589829,-1,0,6,6,11,6,7,4
1529313532605407,0,-12,14,2,0,1,0,-2
1529313532605407,-4,-16,32,-4,-2,1,-1,0
1529313532606071,1,-19,36,-3,-12,-9,-1,0
1529313532606071,7,-15,55,-3,-6,-16,-9,10
1529313532627271,-9,-10,39,0,14,22,-6,-14
1529313532627271,0,1,-1,1,6,10,15,10
1529313532629009,-7,-26,19,-3,-4,-4,-15,-12
1529313532629009,-7,-9,21,1,4,6,1,-11
1529313532641521,-1,14,-7,-4,-15,-15,-7,-1
1529313532641521,-3,32,-50,-3,0,-1,-4,-5
1529313532649855,-3,40,-51,0,2,5,6,4
1529313532649855,-3,21,-33,2,-1,-2,-3,-2
1529313532665031,0,34,-24,9,-2,-8,-5,-1
1529313532665031,-5,6,-38,-8,-3,4,3,-5
1529313532666761,-5,17,-28,9,0,-9,-5,-1
1529313532666761,-5,1,-66,-23,-13,-3,-2,-3
1529313532686706,2,2,86,3,-2,-2,1,-1
1529313532686706,2,0,126,6,9,6,4,4
1529313532688702,2,-2,127,-2,-1,1,-2,1
1529313532688702,-2,2,51,8,7,2,0,0
1529313532700922,-1,10,-23,-16,-14,-7,-1,0
1529313532700922,-2,10,-64,-2,-5,-8,-6,-4
1529313532709646,3,6,-104,-4,0,1,0,0
1529313532709646,-6,-1,-94,-5,-3,-3,0,-5
1529313532725466,-1,-3,-82,-4,-1,-3,0,1
1529313532725466,-2,-5,-52,1,0,-1,-4,-5
1529313532726082,0,-7,-62,2,1,-2,0,0
1529313532726082,9,17,-3,13,6,-1,3,2
1529313532747266,1,10,-16,-2,-2,-3,1,3
1529313532747266,-3,-3,-36,2,0,0,0,-2
1529313532749005,5,5,-3,13,6,1,1,1
1529313532749005,-10,-15,-40,-21,-12,-3,-5,-6
1529313532761615,-1,-3,-28,-2,-2,7,3,1
1529313532761615,-1,3,-1,3,0,4,-3,-3
1529313532769776,0,0,-8,-3,-3,4,0,1
1529313532769776,-1,1,-8,7,3,4,0,0
1529313532785496,-3,-2,-23,2,1,3,0,2
1529313532785496,-2,1,-30,-9,-6,1,1,0
1529313532786458,-3,0,0,-8,-4,-1,1,-3
1529313532786458,2,5,26,-1,3,-2,-1,0
1529313532807642,1,5,20,4,3,-1,0,1
1529313532807642,2,8,36,-4,-4,0,-10,-2
1529313532808639,-1,6,-3,-1,1,4,-10,-2
1529313532808639,-1,3,0,2,-1,7,-3,-2
1529313532821176,1,4,4,7,3,6,-1,0
1529313532821176,-5,-3,11,-1,-6,-3,0,-3
1529313532830490,0,2,22,3,1,-3,5,-1
1529313532830490,-5,-3,-14,-19,-12,-19,-1,-2
1529313532845454,0,1,11,4,4,-19,3,-1
1529313532845454,-2,-6,-1,2,-2,-10,1,-2
1529313532846440,-4,-5,6,-10,-6,-7,0,0
1529313532846440,4,7,30,9,2,-8,3,0
1529313532866869,-2,0,-2,0,-1,-10,1,-1
1529313532866869,0,5,3,2,2,-18,-3,0
1529313532868866,-1,-1,6,-1,0,-10,1,0
1529313532868866,2,0,10,7,2,-3,1,-2
1529313532881357,0,-4,-8,-6,-4,-7,-2,-2
1529313532881357,0,-1,0,-1,-1,-1,-2,-1
1529313532890106,2,-1,-10,-5,-3,0,-2,-2
1529313532890106,-1,3,-4,1,0,-1,-2,-1
1529313532905295,-4,-3,-14,-4,-3,-4,-2,-3
1529313532905295,-1,-3,-3,-5,0,-1,-4,-2
1529313532906230,-2,-3,-7,-3,-1,2,-1,-1
1529313532906230,-1,1,30,1,0,12,1,0
1529313532927040,0,2,61,-1,-2,11,1,2
1529313532927040,-1,0,41,-3,-2,4,-3,-2
1529313532929014,-1,2,73,0,-2,4,-2,0
1529313532929014,1,2,9,2,1,7,-1,2
1529313532941194,1,0,-60,-3,0,4,0,-2
1529313532941194,0,3,-108,1,-1,4,-2,-1
1529313532949959,0,0,-128,-1,-2,3,0,-2
