timestamp,emg1,emg2,emg3,emg4,emg5,emg6,emg7,emg8
1529304518950081,-1,1,-4,-2,1,0,0,0
1529304518950081,-1,-1,-2,-1,0,-1,0,0
1529304518957063,1,-1,0,-2,-1,-1,-1,1
1529304518957063,-1,-2,1,-2,1,0,-1,0
1529304518964044,1,-2,0,-1,0,-1,-1,0
1529304518964044,1,1,-1,0,1,-1,-3,-2
1529304518972022,-1,1,-4,2,4,1,0,-2
1529304518972022,-2,1,-2,-1,-1,0,0,-1
1529304518986982,-1,1,-1,-3,-5,-2,-1,-1
1529304518986982,-1,0,-1,0,-2,-1,1,-2
1529304518993964,1,1,0,-1,-4,-2,1,0
1529304518993964,0,-1,3,5,2,1,-2,0
1529304519008923,-1,-2,-5,-5,-4,-3,-1,-1
1529304519008923,-1,-4,-11,-6,-4,0,-2,1
1529304519016902,-1,-3,11,1,0,-2,-2,-2
1529304519016902,1,6,9,4,3,1,4,5
1529304519034855,2,4,3,2,-1,-1,-9,-6
1529304519034855,1,0,0,-1,-4,0,0,-5
1529304519039840,-2,0,-8,-3,-2,-1,-3,-2
1529304519039840,-1,-2,-5,-2,-1,-1,-3,0
1529304519054800,-2,0,8,3,4,2,-1,0
1529304519054800,1,-2,-1,0,2,1,0,3
1529304519061782,-1,-6,-3,-1,-1,1,-2,-2
1529304519061782,-1,-2,-1,4,7,0,0,-3
1529304519069761,0,-4,-5,-4,-3,-1,2,2
1529304519069761,-3,0,-2,-8,-7,0,-2,-3
1529304519080737,0,0,0,1,-2,-1,3,2
1529304519080737,0,-2,-5,-5,-5,-1,-2,0
1529304519091703,1,2,2,2,3,0,1,1
1529304519091703,0,-2,2,2,4,-2,0,1
1529304519099681,2,4,-4,-3,3,0,-1,0
1529304519099681,0,-3,0,-1,0,0,-1,-1
1529304519114641,-1,-1,8,10,8,0,1,-2
1529304519114641,0,1,6,-2,-4,-1,0,0
1529304519121621,0,0,-7,-13,-10,0,1,6
1529304519121621,-1,-1,-1,-5,-4,-3,-10,-8
1529304519132592,-1,-2,0,-1,-3,0,2,1
1529304519132592,0,-2,2,4,3,-1,0,0
1529304519136581,0,-3,-2,6,5,1,3,1
1529304519136581,1,2,1,-5,1,-1,-2,-2
1529304519151543,-1,-3,-6,-3,-1,-2,-1,1
1529304519151543,-2,2,1,1,4,0,-2,1
1529304519159521,-1,-3,-6,-3,-3,-2,-3,-3
1529304519159521,-3,-4,-7,-2,-4,-2,2,1
1529304519181462,1,5,6,1,0,0,0,-1
1529304519181462,1,-3,-7,0,0,-1,0,0
1529304519198416,-1,-1,4,2,-2,0,-1,-2
1529304519198416,0,1,-2,1,-3,-1,0,-2
1529304519204420,1,-2,-4,-3,-3,-1,1,1
1529304519204420,1,1,1,-1,-3,-1,-2,-1
1529304519212379,2,-2,-7,-1,-3,-2,-3,2
1529304519212379,-1,-1,2,0,1,-1,3,-2
1529304519227341,-3,1,3,-1,3,0,-4,-3
1529304519227341,0,-1,-1,-3,-3,0,0,2
1529304519242326,0,-1,1,4,0,1,-2,-1
1529304519242326,-1,-1,-1,-1,-1,2,4,2
1529304519264241,1,0,2,0,0,-2,0,0
1529304519264241,0,-2,2,0,-1,-3,0,-2
1529304519272247,0,1,0,1,1,0,-2,-2
1529304519272247,-2,-1,-2,2,0,-1,0,1
1529304519279203,-6,-3,-3,2,-2,-2,-3,-24
1529304519279203,0,-2,-2,0,-2,-2,9,24
1529304519287205,5,-2,1,-1,-3,-1,-3,3
1529304519287205,-2,-1,0,1,-2,0,1,-1
1529304519294193,3,2,0,1,0,0,1,3
1529304519294193,-1,-3,-1,1,0,0,-5,-9
1529304519309120,-2,-3,-2,1,0,-1,1,-3
1529304519309120,0,0,1,0,0,-1,-4,0
1529304519317100,-3,-2,-1,-3,0,1,1,2
1529304519317100,2,0,-6,-4,-2,1,-3,-4
1529304519332099,1,1,-4,-3,0,-1,3,9
1529304519332099,1,-1,2,-2,1,0,-7,-7
1529304519347019,-2,1,1,1,1,-1,1,5
1529304519347019,0,1,2,-3,1,-1,-2,-3
1529304519362032,-2,-2,-1,2,0,0,-3,-2
1529304519362032,-1,1,0,3,0,-1,0,-3
1529304519376942,0,1,-2,0,0,0,-1,-5
1529304519376942,1,0,-1,-4,-2,-1,-1,1
1529304519383941,-1,0,-1,-1,1,0,2,7
1529304519383941,-1,0,0,2,-2,0,-5,-5
1529304519398881,0,-1,-2,-2,-2,-2,-18,-14
1529304519398881,-1,0,-4,-1,-1,-2,2,-1
1529304519414839,1,-3,-7,-4,-1,0,2,2
1529304519414839,-2,1,6,2,2,0,-2,-5
1529304519429837,0,1,4,2,-1,-1,-6,-4
1529304519429837,1,2,2,4,-1,-1,-2,-5
1529304519436780,1,1,-2,-3,-4,-2,1,3
1529304519436780,-1,-4,-5,-2,0,0,-2,1
1529304519451749,-2,-1,-2,0,2,2,0,1
1529304519451749,-1,-1,-3,1,2,0,-3,-1
1529304519459718,-1,0,-2,-1,-1,-1,-1,3
1529304519459718,-1,1,-2,-1,-4,0,15,2
1529304519474705,-1,0,1,2,-1,0,1,0
1529304519474705,-3,-1,1,-4,3,-2,-5,-5
1529304519489679,-2,-5,-4,-3,2,0,0,0
1529304519489679,1,1,2,2,0,-3,-3,-5
1529304519496650,-2,-2,-2,1,0,-1,1,-2
1529304519496650,1,0,-2,2,1,-1,-4,2
1529304519511580,-1,-1,-3,-3,0,-1,0,-3
1529304519511580,0,-2,-1,-4,-2,0,-2,-2
1529304519519561,-2,-2,4,1,1,0,0,1
1529304519519561,1,2,1,1,-2,-1,-2,-4
1529304519541500,3,0,-3,-2,-2,0,3,3
1529304519541500,-1,0,-2,-4,-1,-1,-2,-1
1529304519556467,0,2,-1,-1,1,-2,-1,1
1529304519556467,-2,-2,1,0,2,-3,-2,-2
1529304519564438,1,-1,2,2,0,0,-2,-3
1529304519564438,0,0,1,2,-1,-2,-2,-1
1529304519579399,-1,0,1,1,-1,0,-1,-1
1529304519579399,-2,-1,0,0,0,1,0,-3
1529304519594359,0,3,1,-3,-2,-3,3,2
1529304519594359,-3,-2,-1,-2,-2,-2,-6,-2
1529304519609318,0,0,0,-1,0,1,-1,1
1529304519609318,0,-1,0,1,3,3,-2,0
1529304519617345,1,0,-1,-1,-1,-3,0,-2
1529304519617345,-1,-1,-1,0,-1,2,1,-1
1529304519632257,-1,-3,-2,0,-1,-2,0,3
1529304519632257,0,0,1,0,-2,-2,-2,-4
1529304519639257,0,-1,1,0,-2,-1,-1,0
1529304519639257,-1,0,-2,-2,2,-2,-1,-2
1529304519654199,-3,0,-1,2,1,0,-1,-1
1529304519654199,-1,0,1,0,1,1,0,-1
1529304519669368,5,-2,-1,-3,-3,0,2,2
1529304519669368,1,-1,0,-3,1,0,0,1
1529304519677136,0,0,0,1,1,0,-2,-1
1529304519677136,-3,0,0,4,-1,-1,-1,-2
1529304519692100,0,1,1,4,1,1,1,1
1529304519692100,0,0,2,0,-3,-1,-2,-1
1529304519700110,-1,-1,1,-2,-1,0,-1,-1
1529304519700110,-4,-2,1,0,0,0,3,2
1529304519714065,0,1,-1,-3,2,-1,1,0
1529304519714065,1,0,-4,-6,-1,0,0,3
1529304519729044,-3,-1,-1,-4,0,1,-1,2
1529304519729044,-1,0,-2,0,-1,-1,1,0
1529304519736977,-2,-1,-1,4,-1,-1,-2,0
1529304519736977,1,2,-3,5,-2,-3,-2,-1
1529304519751972,-3,1,2,2,2,-1,0,1
1529304519751972,-5,-2,1,0,0,1,0,-1
1529304519760114,2,-1,-1,-7,-4,-2,-3,-1
1529304519760114,-2,-2,-2,-2,-1,1,0,-2
1529304519775131,-1,-3,-2,1,0,0,0,-1
1529304519775131,0,-1,0,-3,-2,-1,-3,0
1529304519789870,-2,-1,-1,-5,-3,-1,1,-2
1529304519789870,-1,-2,0,-3,-1,-4,0,-3
1529304519796817,-1,-1,1,0,0,0,0,-1
1529304519796817,1,0,1,2,0,2,-2,-2
1529304519811778,-2,-2,0,4,1,1,-1,1
1529304519811778,-1,0,-3,0,-1,-1,-1,-2
1529304519820030,0,1,-2,1,1,1,-1,-1
1529304519820030,0,-2,1,0,-1,0,-2,0
1529304519835130,-2,-1,-1,-2,-2,-3,0,-1
1529304519835130,-4,0,-1,-4,0,-2,4,1
1529304519849675,1,3,1,0,0,-1,-12,-12
1529304519849675,2,4,3,1,-2,1,0,0
1529304519856693,-3,-4,-2,1,-4,-1,0,0
1529304519856693,-1,0,0,2,-1,-1,-5,0
1529304519872097,0,-3,-4,-1,-1,0,11,3
1529304519872097,-3,-2,2,-1,3,-1,-1,-3
1529304519879042,1,2,3,-2,1,0,-2,-4
1529304519879042,1,-2,-1,-4,0,0,-1,1
1529304519894311,-1,0,2,-1,-2,1,-1,3
1529304519894311,1,-2,-3,1,-3,-3,-3,-2
1529304519902613,2,1,-1,0,-1,0,-1,3
1529304519902613,-5,-3,0,-1,-1,-2,0,-5
1529304519910066,1,0,0,-2,-1,0,2,1
1529304519910066,-3,1,0,2,0,-2,0,0
1529304519916715,-4,2,-3,0,-2,-3,-3,-4
1529304519916715,2,2,-1,0,-1,0,0,-1
1529304519931722,1,-1,1,0,0,0,-3,3
1529304519931722,-1,-4,2,-1,-3,0,0,-1
1529304519939654,0,-3,0,-1,0,1,0,0
1529304519939654,1,1,-1,-1,1,1,0,0
1529304519954866,-2,-3,-11,-4,-3,-3,1,-2
1529304519954866,5,-4,-4,-2,-3,-2,-2,-1
1529304519962623,-4,8,13,2,0,1,-1,-4
1529304519962623,-2,-2,4,4,2,-2,-3,0
1529304519969840,-1,-10,-25,-12,-3,-1,-1,3
1529304519969840,-1,7,10,14,0,1,0,0
1529304519976833,-2,-3,2,-6,4,-2,-1,-4
1529304519976833,1,-1,4,-1,-5,1,0,-1
1529304519999494,1,4,15,4,0,0,-3,-3
1529304519999494,-2,-8,-20,-7,2,0,2,2
1529304520006508,-3,-1,-4,3,2,2,3,3
1529304520006508,0,7,8,0,1,-1,-3,-3
1529304520022029,-4,-3,10,-4,-4,0,-1,-2
1529304520022029,2,10,10,-7,-2,-2,-2,-4
1529304520029758,6,-1,5,7,-1,0,-2,0
1529304520029758,1,-7,-7,4,3,-2,0,1
1529304520036737,-5,-17,-30,-9,-5,-3,2,-2
1529304520036737,-6,-23,-34,-13,-3,-2,-3,-4
1529304520051696,6,35,37,21,9,4,0,2
1529304520051696,6,32,28,4,4,0,2,2
1529304520059722,2,-10,-25,-11,-6,1,-1,-1
1529304520059722,-8,-22,-24,-11,-5,-3,-1,-2
1529304520074671,-9,-19,-22,-5,-3,-4,-2,-3
1529304520074671,-6,-21,-31,-10,-3,0,0,-1
1529304520081664,-1,-3,-22,-6,-5,-6,-3,-2
1529304520081664,1,2,12,5,0,-3,-1,-1
1529304520089650,3,12,24,-1,0,1,1,2
1529304520089650,5,6,-2,6,2,1,1,1
1529304520096631,2,10,17,5,1,-3,-2,0
1529304520096631,3,-4,-20,-2,4,1,-2,0
1529304520111592,2,6,-2,-2,1,0,-2,1
1529304520111592,-1,-1,24,0,-1,0,-1,0
1529304520119570,-2,-8,-21,-4,0,-2,-2,0
1529304520119570,-1,6,4,-2,1,1,0,0
1529304520134476,3,-2,-4,16,5,1,1,1
1529304520134476,-7,-29,-16,-6,-3,0,-1,-2
1529304520141457,7,40,33,5,-1,0,0,1
1529304520141457,5,15,22,4,-4,0,1,0
1529304520149488,-2,17,21,4,2,-2,1,0
1529304520149488,2,-3,-4,-1,0,1,3,2
1529304520156417,-4,-33,-52,-21,-2,-2,0,1
1529304520156417,-4,-12,-18,-3,-2,-5,-4,-4
1529304520171431,4,-3,5,0,-1,4,3,1
1529304520171431,0,3,2,3,-3,-5,-3,0
1529304520179409,-1,-2,7,-1,5,4,1,-1
1529304520179409,2,3,-13,-5,4,2,2,1
1529304520194345,-3,-11,-6,0,-2,1,-1,0
1529304520194345,-2,8,9,5,-2,-4,-4,-3
1529304520202331,1,6,9,-2,-10,-7,-1,-2
1529304520202331,0,-7,-3,5,4,2,2,1
1529304520209327,-6,-12,-21,-11,0,-2,-1,-1
1529304520209327,3,11,12,6,1,-1,-1,-1
1529304520217307,2,16,22,27,13,5,2,3
1529304520217307,-2,-2,2,-1,2,-2,-3,-2
1529304520232269,-1,-4,-9,-16,-8,0,1,0
1529304520232269,-3,3,2,-3,-4,-2,-2,-2
1529304520239250,-1,-6,-12,-8,-5,-2,2,0
1529304520239250,-2,-4,-3,10,13,-2,-2,-2
1529304520254209,0,1,4,10,9,-1,1,-1
1529304520254209,-4,-5,-6,-8,0,-2,-4,0
1529304520262190,-4,-3,-1,-5,-4,4,0,-2
1529304520262190,-5,-6,-3,-9,-11,-1,-3,-2
1529304520269170,-2,-2,0,2,1,-1,-4,-4
1529304520269170,-4,-2,-4,-5,-9,2,3,-1
1529304520277093,-1,-4,-1,1,4,3,0,0
1529304520277093,-1,-1,-1,5,-6,-7,-2,-1
1529304520292112,1,1,1,-3,-5,4,1,1
1529304520292112,1,-2,0,-1,1,0,2,-3
1529304520299092,-3,-4,2,-8,-12,-6,-4,-4
1529304520299092,1,0,3,-5,-6,4,5,5
1529304520314051,-2,0,1,5,12,4,-9,-9
1529304520314051,0,1,0,-8,-4,-5,-2,-1
1529304520322028,-1,1,3,5,4,0,0,0
1529304520322028,-4,-2,-3,-5,-10,-5,-4,-4
1529304520329003,-2,-4,1,-4,-5,-2,1,3
1529304520329003,0,2,7,13,11,-1,1,1
1529304520336992,0,-2,1,-12,-6,-6,-2,-3
1529304520336992,-1,-3,-5,-11,-3,-1,2,3
1529304520351908,0,-2,-1,3,-11,1,1,1
1529304520351908,2,4,-7,-2,6,5,3,3
1529304520360095,0,-1,1,9,8,-5,-1,1
1529304520360095,2,1,-6,-5,-9,1,0,-2
1529304520374833,-2,-2,-3,-2,0,-2,0,-1
1529304520374833,0,2,3,7,2,3,0,0
1529304520381814,-2,1,2,-4,-5,-5,-4,0
1529304520381814,-1,-2,2,5,12,1,-4,-1
1529304520389793,-4,-4,-8,-20,-15,-6,0,-4
1529304520389793,-1,-3,4,7,4,0,-3,3
1529304520396775,-1,-1,-3,3,-4,2,-5,-12
1529304520396775,-2,-4,-3,-4,-3,1,-2,-4
1529304520412499,2,0,1,5,0,-4,1,7
1529304520412499,-2,0,0,-1,0,-1,1,-2
1529304520420052,-2,3,5,6,8,2,1,9
1529304520420052,-6,0,0,-1,-11,-16,-5,-6
1529304520434006,-3,0,2,8,22,10,0,-4
1529304520434006,-3,-4,-2,-10,-11,5,2,1
1529304520441986,1,0,-1,3,5,-1,-2,-3
1529304520441986,2,1,-7,-4,0,7,3,8
1529304520450110,-5,1,-3,2,-4,-6,-2,-10
1529304520450110,4,2,-2,-4,2,9,0,1
1529304520457192,2,-2,0,-2,-7,1,4,2
1529304520457192,-2,-2,-1,1,-7,-9,-2,-3
1529304520472149,3,-2,2,5,9,3,1,7
1529304520472149,-6,-2,-6,-1,2,-12,-21,-24
1529304520480023,0,3,0,-3,1,2,1,3
1529304520480023,-1,2,0,-1,1,2,0,2
1529304520495116,2,-1,2,6,14,1,1,1
1529304520495116,0,1,9,8,-5,-7,0,3
1529304520502091,2,-4,-8,-19,-15,3,6,3
1529304520502091,3,2,3,9,12,3,2,1
1529304520510082,0,-1,-1,-6,-18,-24,-2,1
1529304520510082,-1,-2,-3,0,-2,-1,2,4
1529304520516785,-1,2,3,5,3,-11,-1,-1
1529304520516785,0,0,6,-7,-4,5,3,0
1529304520532008,-2,2,1,-5,-2,5,-1,-2
1529304520532008,0,-1,-2,6,12,6,5,-2
1529304520540005,2,2,-1,7,7,-1,2,2
1529304520540005,-6,-6,-9,-18,-13,-6,-3,-5
1529304520555212,0,3,2,3,-4,-3,3,5
1529304520555212,-1,2,1,-4,-6,2,-1,-5
1529304520562139,-3,-6,-4,-2,0,3,0,6
1529304520562139,0,2,4,8,6,-2,-9,-5
1529304520569867,3,-3,-5,-10,-9,4,13,12
1529304520569867,0,1,-1,0,3,-5,-10,-7
1529304520576844,-1,2,3,4,-7,-2,-2,-2
1529304520576844,-1,-4,-7,2,23,24,9,1
1529304520592120,2,-2,-7,-8,-20,-14,-10,-6
1529304520592120,-1,4,-2,-5,-1,3,2,5
1529304520600004,4,2,1,0,-7,-10,-8,-1
1529304520600004,2,-1,4,2,4,5,4,2
1529304520614973,-1,-1,1,-1,1,3,-5,-8
1529304520614973,4,0,0,0,2,6,7,3
1529304520621715,-6,-1,-1,-5,-9,-5,-2,-2
1529304520621715,-2,0,-1,-1,8,3,5,4
1529304520629937,-3,-1,3,-8,-11,-2,-5,-6
1529304520629937,0,-4,-4,-11,-23,-5,1,3
1529304520636940,1,-2,-2,-1,9,15,6,1
1529304520636940,0,-3,-3,-2,-7,-5,1,9
1529304520652267,0,0,-1,8,7,-1,-5,-21
1529304520652267,10,3,3,1,6,3,4,10
1529304520666898,-7,-2,-3,-1,10,-5,-2,-3
1529304520666898,-5,-4,2,1,-5,-9,-1,-4
1529304520675224,0,-1,8,4,12,14,6,9
1529304520675224,-3,-5,-6,0,9,-2,-2,-2
1529304520689908,-7,-3,2,12,4,7,-1,2
1529304520689908,-10,-3,4,15,8,4,3,1
1529304520704650,-4,-4,-2,0,15,-2,-5,-3
1529304520704650,-2,-4,-15,-11,-15,-1,-4,-7
1529304520712635,2,-2,2,-10,7,1,-5,-5
1529304520712635,2,-3,-6,-3,-4,7,6,1
1529304520727258,7,13,11,2,1,9,8,12
1529304520727258,-4,-2,-3,8,5,3,0,-1
1529304520735057,-3,-17,-23,-1,7,-6,-4,-4
1529304520735057,-2,-4,-18,-19,-28,-10,-5,-9
1529304520749601,-8,-3,-8,-1,11,5,3,7
1529304520749601,-7,-14,-7,0,-4,-12,3,2
1529304520765136,10,-7,-20,-5,5,1,-1,-3
1529304520765136,-6,-3,-7,-6,0,-12,-16,-10
1529304520772167,-3,1,1,-3,-13,3,4,-2
1529304520772167,-7,-1,-6,3,-1,4,-3,7
1529304520787381,-12,-5,21,16,-14,-15,-11,-9
1529304520787381,-8,-27,-46,-11,-4,6,-1,-5
1529304520794834,6,9,13,-1,9,-10,-1,-1
1529304520794834,7,15,45,9,14,0,-1,2
1529304520810168,-8,-1,-18,-5,-7,3,12,2
1529304520810168,17,-2,-26,-13,-7,-10,-9,7
1529304520824740,-16,-18,-11,-16,4,4,7,-8
1529304520824740,-9,0,4,16,8,-5,4,5
1529304520831991,5,-2,-13,-18,-8,-4,-10,-6
1529304520831991,-6,-3,6,18,4,4,6,-6
1529304520846944,10,-8,-29,-20,-10,1,1,8
1529304520846944,-2,13,33,8,0,4,-4,-6
1529304520854918,4,13,22,10,2,-1,1,9
1529304520854918,8,16,13,16,21,6,12,13
1529304520870239,4,0,-6,-10,-24,-6,-5,-6
1529304520870239,-2,-13,-27,-21,8,-2,-20,-11
1529304520885089,-4,14,30,43,8,1,-7,-2
1529304520885089,18,6,-3,-10,-10,2,24,16
1529304520892129,-15,-7,2,8,-4,-8,-24,-4
1529304520892129,-9,-13,-12,-21,-10,-4,13,10
1529304520907088,-7,2,-6,-11,5,-3,-8,-5
1529304520907088,6,16,19,11,9,-2,-18,-16
1529304520921789,8,-2,-1,17,22,2,-8,3
1529304520921789,-3,-8,-19,-23,-24,12,21,2
1529304520936801,12,6,12,35,-1,11,11,6
1529304520936801,3,-1,2,8,-2,-5,-24,-5
1529304520952088,10,2,1,3,12,-12,-10,7
1529304520952088,-10,-8,-24,-5,-17,-5,13,13
1529304520960083,-7,-22,-15,-13,5,9,10,-8
1529304520960083,-5,13,25,-4,-4,-11,-8,-9
1529304520974908,-17,-12,7,-3,-24,-17,-13,0
1529304520974908,3,-5,-23,-8,2,-9,8,-3
1529304520989864,-10,10,26,40,2,11,25,3
1529304520989864,18,1,12,8,-3,7,-26,11
1529304521004811,-13,-2,-14,-11,16,2,-5,-10
1529304521004811,14,-9,-18,-4,-13,-4,-4,6
1529304521011546,-6,3,8,-25,-10,9,6,0
1529304521011546,0,-3,-12,5,11,-9,-17,-10
1529304521026685,6,12,37,25,-6,3,22,13
1529304521026685,-9,-4,-10,-6,6,19,23,-2
1529304521034500,-1,-8,-15,5,0,-25,-40,-12
1529304521034500,-9,13,1,-6,1,6,17,-10
1529304521049444,5,3,2,-11,2,5,15,12
1529304521049444,-3,-8,3,4,11,2,-6,-2
1529304521064996,-8,-5,-27,-30,-12,-2,-9,-8
1529304521064996,2,-10,-6,5,-3,-6,-13,-7
1529304521072722,6,7,-12,2,5,-19,-23,-6
1529304521072722,1,14,27,13,-1,15,29,6
1529304521087254,-9,-22,-23,1,-8,-8,-7,6
1529304521087254,-20,4,12,-1,-10,-15,-13,-23
1529304521094933,15,-11,-35,-22,-5,-1,-11,11
1529304521094933,-15,-2,-10,-2,-5,-3,-3,-11
1529304521110091,21,48,66,4,7,27,26,9
1529304521110091,1,10,5,4,3,-11,-7,1
1529304521125102,-2,-11,-19,-8,-15,-9,-14,-15
1529304521125102,-3,-1,13,-4,3,14,-4,5
1529304521132076,-6,13,13,5,6,-13,11,-5
1529304521132076,-7,0,-8,-25,-9,-2,-2,-11
1529304521146795,3,-21,-28,24,17,5,-10,-5
1529304521146795,2,-27,-2,-2,-2,-1,20,8
1529304521155036,1,-7,-21,-10,-7,2,15,12
1529304521155036,3,11,26,24,5,3,-16,-3
1529304521169991,-14,6,65,53,19,0,1,-3
1529304521169991,2,15,25,5,-9,0,4,1
1529304521184195,-16,34,68,15,3,11,23,10
1529304521184195,33,26,26,18,8,18,18,18
1529304521192213,-29,-37,-78,-45,-17,-24,-19,-27
1529304521192213,-10,-19,2,15,-4,4,12,3
1529304521206524,-6,-7,2,19,8,-5,-14,2
1529304521206524,-21,-8,-16,-36,-5,-13,-22,-22
1529304521214547,13,-5,-3,-5,-15,6,8,2
1529304521214547,4,-14,-39,-11,8,8,16,11
1529304521230585,-8,-2,-4,-28,6,9,0,-14
1529304521230585,11,-7,-7,10,-10,-6,-3,12
1529304521244422,0,-12,-9,-13,0,3,14,15
1529304521244422,0,-18,-47,-17,-6,-4,10,3
1529304521252673,8,12,22,11,4,-1,-25,-1
1529304521252673,-6,8,10,1,-5,-13,14,-5
1529304521266602,3,-4,-4,-8,-12,-18,-20,-10
1529304521266602,0,14,18,3,-6,1,2,2
1529304521274581,17,4,-16,-5,-2,23,32,13
1529304521274581,-30,-40,-71,-49,-17,-37,-38,-17
1529304521290104,14,37,52,35,19,21,31,16
1529304521290104,8,14,44,9,17,31,5,8
1529304521305272,-3,-25,-42,-24,-26,-24,-24,-17
1529304521305272,1,-23,-23,-1,7,13,9,10
1529304521312310,-12,-3,2,-8,-11,-17,-6,-6
1529304521312310,-2,-5,-5,11,-1,3,29,-1
1529304521327008,-8,-8,-11,-7,2,-1,-41,-16
1529304521327008,23,11,16,21,11,9,11,10
1529304521334250,1,-18,-27,-17,0,7,3,19
1529304521334250,-19,-8,-37,-41,2,4,-3,-9
1529304521356927,9,8,11,-5,-12,-10,-17,0
1529304521356927,9,6,14,11,8,13,2,6
1529304521371889,-5,-8,-36,-27,-1,-3,-2,-11
1529304521371889,-16,2,4,3,11,4,-10,-8
1529304521378924,15,-4,-1,15,3,-11,-19,-6
1529304521378924,-8,-5,-12,-15,-11,5,4,2
1529304521394827,2,2,-2,12,5,10,15,15
1529304521394827,3,18,34,26,5,-6,4,5
1529304521401808,-6,-15,-11,-13,4,4,-4,-1
1529304521401808,18,17,12,8,4,-1,1,-2
1529304521409788,11,6,-10,-11,-3,3,10,11
1529304521409788,-5,-9,16,13,-2,-3,-14,-3
1529304521424748,-4,-2,-8,-9,-1,-12,-2,-5
1529304521424748,-2,0,-14,-13,-12,0,5,2
1529304521431729,-12,-4,-10,-5,1,0,-14,-13
1529304521431729,8,4,8,7,1,-6,13,6
1529304521446688,-4,-4,-13,-9,-2,-1,-2,-6
1529304521446688,6,9,29,4,2,7,1,-1
1529304521454708,-1,0,-5,10,-2,0,5,3
1529304521454708,3,0,10,3,-3,-8,-8,0
1529304521469628,-10,-10,-9,-3,-4,-15,-2,-3
1529304521469628,-3,-3,0,2,-2,-5,-1,-4
1529304521484588,3,8,-2,-8,-3,2,4,3
1529304521484588,-2,-2,-2,4,-1,1,-6,0
1529304521492642,-2,-6,-3,-4,-3,-2,2,-4
1529304521492642,4,1,3,9,2,-2,-16,-3
1529304521507617,1,6,5,-2,0,3,9,2
1529304521507617,5,10,3,5,0,0,8,9
1529304521514740,-12,-17,-9,-1,3,2,-3,-8
1529304521514740,5,16,7,2,-2,-7,-13,-6
1529304521529717,-1,-4,-5,-1,1,-7,-29,-8
1529304521529717,-2,-3,-5,-7,-4,6,9,4
1529304521544428,-1,1,-10,-6,-7,-2,-2,2
1529304521544428,-6,-9,-6,-4,-2,-8,-3,-8
1529304521552220,3,8,8,7,1,2,7,1
1529304521552220,-2,-4,0,-1,0,-3,-2,1
1529304521566914,2,4,1,-1,7,3,1,-2
1529304521566914,1,-4,-9,-7,-5,-3,-6,-2
1529304521575198,-6,-5,-8,0,1,-2,2,-3
1529304521575198,4,0,-1,4,-3,-4,2,1
1529304521589160,-3,0,-8,-7,0,-3,-2,-4
1529304521589160,-5,-14,-5,3,10,3,-2,4
1529304521603918,5,6,-6,-5,-1,-3,-5,-6
1529304521603918,-1,2,6,-3,-4,-1,6,-5
1529304521612146,6,4,3,1,-3,4,7,15
1529304521612146,1,3,-4,-6,-8,-1,4,8
1529304521626844,-4,-4,-1,3,6,-5,-4,2
1529304521626844,0,-2,0,4,4,1,2,0
1529304521635002,-2,-1,-4,-4,4,-3,-1,-8
1529304521635002,3,-3,3,1,0,0,-5,-5
1529304521649576,-5,-2,1,-2,-6,0,0,1
1529304521649576,-1,0,-8,-5,2,-3,-6,-3
1529304521664531,3,1,10,2,-4,-1,2,1
1529304521664531,-1,3,8,18,4,-3,-9,-3
1529304521672118,-4,1,1,-1,4,3,3,2
1529304521672118,-5,-7,-5,-5,-5,2,5,-5
1529304521687082,-1,-2,-8,-8,-3,-5,-4,-6
1529304521687082,-6,-6,-6,-3,3,5,1,-7
1529304521695035,0,-2,-1,1,-4,-7,-7,-14
1529304521695035,14,0,-2,-2,-2,0,2,20
1529304521709935,-7,-7,-8,-10,-3,-3,-3,-8
1529304521709935,-9,5,12,8,-1,-4,-10,-17
1529304521724577,6,0,5,4,4,0,3,-1
1529304521724577,7,1,3,-2,-1,1,-2,8
1529304521740143,-2,-1,-5,-3,10,5,1,-5
1529304521740143,-1,2,4,2,-3,-3,-7,-1
1529304521762120,-5,-6,-7,0,1,4,-2,-4
1529304521762120,-6,0,-4,-1,-1,4,-1,-6
1529304521776847,9,6,8,3,-4,-6,1,4
1529304521776847,-2,-5,-5,-2,2,6,18,13
1529304521792487,-6,-1,4,3,-7,3,4,3
1529304521792487,-6,0,1,3,1,-6,-5,-11
1529304521807075,-4,-2,-4,0,-1,0,0,-1
1529304521807075,0,0,1,2,-1,-1,-2,-3
1529304521824010,-3,-3,-5,-4,-5,0,-4,1
1529304521824010,5,1,0,1,-2,-1,-3,-3
1529304521830213,-3,0,1,2,2,3,1,-2
1529304521830213,4,4,0,-4,3,1,-4,1
1529304521852183,-2,2,-3,-9,-2,-4,-1,-5
1529304521852183,0,-1,0,8,-2,-1,5,2
1529304521859936,7,0,-6,-3,-5,-7,1,2
1529304521859936,-4,-4,2,5,1,1,-3,-4
1529304521882110,6,0,-1,-2,2,4,2,-1
1529304521882110,-11,-2,-2,-2,-9,-3,-4,-3
1529304521890089,-2,-4,-1,-3,-2,2,2,1
1529304521890089,1,1,-1,-2,4,-4,-6,-2
1529304521905046,-5,-1,-2,1,0,-3,0,1
1529304521905046,-3,-1,0,-5,4,-1,-3,0
1529304521919755,5,3,4,0,-2,2,2,3
1529304521919755,-7,-5,-3,-2,0,-1,4,0
1529304521934705,-3,0,2,-2,-2,-1,-8,-4
1529304521934705,0,3,-6,-9,-3,-2,-2,-4
1529304521949664,1,-1,-4,-1,3,0,-3,1
1529304521949664,2,5,9,8,-3,2,8,-1
1529304521964893,-3,-6,-9,-5,1,1,-3,-1
1529304521964893,3,3,14,-4,-4,-6,-2,0
1529304521972642,0,-1,-2,-3,8,14,3,0
1529304521972642,-2,-3,2,2,-5,-3,-1,0
1529304521987601,0,-2,-3,-2,-5,-1,-1,-2
1529304521987601,2,-3,-1,2,9,-2,-5,-1
1529304521994544,5,1,-4,1,-6,-5,4,1
1529304521994544,-7,-2,-4,-4,-2,-5,-7,-1
1529304522009766,-11,-5,0,1,1,-4,3,-6
1529304522009766,8,3,4,-1,5,1,0,-1
1529304522024786,-8,-3,5,8,-5,-3,-1,-2
1529304522024786,-1,2,4,3,-1,1,3,2
1529304522031764,5,1,-5,-9,-2,3,-2,5
1529304522031764,-2,-2,-10,-9,0,-2,-1,-3
1529304522046954,-5,-1,-1,-6,-1,-2,-3,-4
1529304522046954,-5,0,5,14,4,4,1,-1
1529304522054944,2,-1,1,3,1,-4,2,0
1529304522054944,-2,-2,4,6,-4,-2,-1,0
1529304522069906,2,1,-1,-4,-3,-2,-5,-2
1529304522069906,0,-1,1,1,-3,-5,-3,-2
1529304522076663,0,-4,-2,-3,-3,-4,-3,-1
1529304522076663,0,-1,-6,-2,-3,3,1,1
1529304522092649,-4,0,1,2,-3,-3,0,3
1529304522092649,-1,-3,-1,2,6,0,1,-3
1529304522107133,-1,1,1,2,-4,-6,-1,-2
1529304522107133,3,-1,-6,-5,0,4,-5,-5
1529304522115182,0,2,0,0,3,3,2,3
1529304522115182,-1,1,-4,3,-2,-2,-3,4
1529304522130124,-1,2,-1,1,3,-4,-9,-1
1529304522130124,-1,-2,-7,-9,-6,1,2,0
1529304522137118,1,-1,-1,1,6,-1,-4,-5
1529304522137118,-1,-1,2,-4,-12,-6,-2,-5
1529304522152582,0,-1,-1,1,0,-2,-1,0
1529304522152582,-2,1,0,1,2,0,0,1
1529304522167419,0,1,-1,-3,1,1,3,1
1529304522167419,0,-1,-7,-7,0,-2,-1,1
1529304522174711,-2,0,3,4,-7,-2,-1,-1
1529304522174711,0,0,1,-2,2,3,2,1
1529304522189981,2,3,2,0,-2,0,1,0
1529304522189981,1,1,-4,-3,0,-2,-2,-2
1529304522197025,-1,-2,0,0,-2,-2,1,1
1529304522197025,-1,-1,-1,-1,-1,-2,-4,-2
1529304522212563,1,0,-4,-1,2,0,0,1
1529304522212563,-2,-1,-1,2,3,2,-2,-3
1529304522227071,-5,-1,0,2,-2,2,0,0
1529304522227071,-4,1,-3,-4,0,2,2,0
1529304522234605,-2,0,-3,-4,-2,-1,-1,0
1529304522234605,-1,-2,0,0,1,-2,-4,-2
1529304522249316,1,-1,0,1,-3,0,1,-1
1529304522249316,-3,-3,-4,0,-1,0,0,-2
1529304522257649,1,-3,1,-2,1,1,-4,-3
1529304522257649,2,-1,2,0,3,-3,-2,0
1529304522272506,-2,3,3,0,-3,-1,2,0
1529304522272506,1,0,1,-2,-3,1,0,1
1529304522287118,0,1,6,4,2,2,-2,-1
1529304522287118,0,0,-1,-3,0,0,1,1
1529304522294312,-1,0,0,-6,0,0,-2,-1
1529304522294312,0,0,-3,0,1,3,2,-3
1529304522309529,2,-2,-3,-2,-1,-1,1,0
1529304522309529,-2,-2,-2,-1,-2,0,-1,-1
1529304522317519,0,-6,0,-1,-1,1,-1,-1
1529304522317519,-4,-2,-1,-3,0,0,-2,-3
1529304522332471,0,1,0,1,1,0,0,-1
1529304522332471,0,1,-1,4,-1,1,-1,0
1529304522347496,1,2,-3,0,-1,-2,-2,-1
1529304522347496,-9,-3,-1,0,-2,-1,-3,-2
1529304522354482,1,0,2,1,0,-2,-5,-1
1529304522354482,0,-1,1,-2,3,0,5,2
1529304522369755,1,0,2,-1,1,-3,-1,-1
1529304522369755,3,-1,-3,-2,-3,0,0,-1
1529304522376645,0,-2,0,-1,-3,-1,-1,-3
1529304522376645,-3,-2,-2,-3,-1,-1,-1,-3
1529304522392761,1,0,0,-1,0,0,2,-1
1529304522392761,0,1,-2,0,-1,-1,-1,-1
1529304522407400,-3,-1,-3,1,0,-2,-2,0
1529304522407400,0,-1,-1,1,-1,-2,-3,2
1529304522415087,-2,-1,-4,1,-4,-2,0,-4
1529304522415087,2,-1,-2,2,-4,-2,0,-1
1529304522428988,0,-3,-1,0,2,0,0,-2
1529304522428988,2,-1,-1,0,3,0,-2,1
1529304522437235,-1,0,1,-3,1,-1,3,2
1529304522437235,-2,1,0,-1,-2,-2,-2,-2
1529304522452211,-2,0,-4,0,-2,0,0,3
1529304522452211,3,1,-3,-1,-2,-2,-2,1
1529304522475269,1,-2,-1,1,-3,0,4,0
1529304522475269,-4,-4,-1,-1,-3,-3,-3,-4
1529304522482621,-1,-2,-3,-1,-3,-3,-5,-3
1529304522482621,-1,-2,2,0,2,0,2,-2
1529304522497058,-3,-2,-1,-3,-2,-2,-4,-2
1529304522497058,4,-1,0,-1,0,1,0,1
1529304522504782,-3,2,-2,-2,1,-1,0,-1
1529304522504782,-2,-1,-2,-3,1,-2,0,0
1529304522519986,2,0,1,1,0,1,-1,-1
1529304522519986,1,-2,-3,0,-3,-1,-6,-3
1529304522534919,-2,2,1,0,0,3,2,2
1529304522534919,-4,-2,1,-1,-1,0,-1,-1
1529304522549659,3,-1,1,-3,-2,0,-2,-3
1529304522549659,-1,0,-3,1,-1,0,-1,-3
1529304522556880,3,0,-3,-1,-1,-1,-3,-2
1529304522556880,0,-2,-3,-2,-1,-3,-1,-2
