timestamp,emg1,emg2,emg3,emg4,emg5,emg6,emg7,emg8
1529285791022836,-14,-10,-7,-18,-8,1,4,-7
1529285791022836,1,2,1,2,3,3,7,-2
1529285791045459,-1,2,-4,-9,-7,-12,-15,-2
1529285791045459,-2,-6,-8,-27,3,-1,5,0
1529285791052614,6,6,3,4,1,6,-2,4
1529285791052614,8,2,-1,-8,-10,0,2,4
1529285791067584,-32,-17,0,-3,-2,5,-6,-6
1529285791067584,17,7,4,1,-14,-2,12,11
1529285791082540,-19,-18,-2,9,36,24,18,-9
1529285791082540,-2,6,3,-4,-41,-19,-3,15
1529285791097323,7,1,-3,11,31,8,8,1
1529285791097323,1,-6,-12,-4,-14,1,-5,0
1529285791112486,6,-1,4,39,20,4,7,1
1529285791112486,-13,-7,-8,-8,1,-2,-5,-10
1529285791120440,8,5,3,5,-5,-10,-4,-1
1529285791120440,-9,-2,4,9,12,4,-1,-7
1529285791135701,1,0,2,7,1,-8,-8,-2
1529285791135701,-9,-9,-3,-2,7,2,-2,-7
1529285791150358,-5,-8,1,12,19,9,0,-4
1529285791150358,7,10,7,0,-23,0,4,11
1529285791157341,11,7,0,-11,-16,-8,6,3
1529285791157341,-3,0,-3,-2,-7,-8,-14,-8
1529285791172533,-5,-3,-2,-8,27,11,5,-3
1529285791172533,-9,-8,-6,7,-15,-3,-1,0
1529285791180638,0,-3,-10,-28,-28,-9,-2,1
1529285791180638,8,5,7,0,2,4,15,0
1529285791195601,13,6,-6,-37,0,0,-3,9
1529285791195601,-5,2,5,46,10,-2,-8,0
1529285791210663,-2,-3,-3,-7,1,5,4,-4
1529285791210663,6,3,-1,-10,-2,-2,2,0
1529285791217722,-15,-9,-3,5,6,0,-7,-9
1529285791217722,24,15,2,-4,23,9,5,10
1529285791232793,4,0,0,-17,-21,-5,1,0
1529285791232793,-8,-7,-8,0,-15,3,9,-4
1529285791239916,-3,4,7,12,-10,-11,-5,-8
1529285791239916,-10,-9,-8,-52,0,2,-1,-3
1529285791254705,3,3,3,18,15,-2,-12,-1
1529285791254705,10,5,0,-3,-8,-4,6,4
1529285791262983,-5,-3,2,10,-1,2,-1,0
1529285791262983,-4,0,-8,-8,-2,-10,-9,-9
1529285791277640,11,11,1,-11,-1,-2,0,7
1529285791277640,0,-4,1,11,7,1,-3,-2
1529285791292599,-16,-9,-11,-18,0,1,-1,-9
1529285791292599,2,0,5,27,31,3,-1,3
1529285791300722,7,1,-2,-16,-33,-8,-5,1
1529285791300722,-13,-8,0,0,6,1,1,-7
1529285791322521,0,-3,-8,-10,-14,-4,0,0
1529285791322521,13,12,15,-3,1,3,2,7
1529285791329501,-6,-9,-3,16,14,2,-2,-4
1529285791329501,-16,-13,-2,-2,-4,-3,-6,-7
1529285791345461,-8,-5,-2,15,12,-2,-2,-5
1529285791345461,7,3,4,20,7,6,10,1
1529285791360421,-10,-4,0,-35,15,-1,-14,-7
1529285791360421,-2,-5,-14,-28,-38,-5,2,2
1529285791367713,11,10,8,50,-1,-8,-9,2
1529285791367713,-5,-5,-6,-20,-10,-6,1,-3
1529285791375222,2,1,-3,3,4,1,7,0
1529285791375222,1,1,5,2,19,4,-2,3
1529285791382658,-6,-13,-15,-22,-11,-6,-9,-5
1529285791382658,1,-1,-7,4,6,2,-1,2
1529285791397326,0,2,4,21,16,13,8,4
1529285791397326,2,1,-1,-2,-2,-3,-8,-7
1529285791412716,-16,-11,-12,-20,-3,1,3,2
1529285791412716,1,7,9,41,30,0,-1,-7
1529285791420734,14,1,-3,-36,-26,-2,5,10
1529285791420734,12,7,9,-1,-18,-4,-3,5
1529285791435694,3,0,2,-35,-2,4,3,-1
1529285791435694,-2,-3,-1,36,-7,-7,-3,-2
1529285791442806,-5,0,7,19,19,-1,-1,-2
1529285791442806,-5,-8,-4,-5,-4,0,-2,-3
1529285791457598,-7,-4,-2,-10,-7,-1,0,-1
1529285791457598,-1,5,-1,-11,-3,1,0,5
1529285791473216,-8,-10,-6,-5,-11,-3,-3,-4
1529285791473216,23,15,13,54,40,14,7,10
1529285791480877,-20,-15,-17,-32,-28,-8,-4,-13
1529285791480877,21,14,2,-5,-3,-2,1,3
1529285791495004,-1,-4,0,11,-10,-7,-4,-5
1529285791495004,-5,-4,-4,-16,0,-1,-2,-3
1529285791503194,12,10,8,-7,4,2,5,9
1529285791503194,-17,-14,-6,-1,2,-4,-6,-5
1529285791517938,13,20,16,28,10,6,5,4
1529285791517938,0,-7,-12,-27,-6,-6,-3,-1
1529285791533126,-1,-2,-3,5,3,1,-1,-3
1529285791533126,-9,-6,1,9,22,10,2,-5
1529285791539922,7,7,1,20,-9,-3,1,-2
1529285791539922,-18,-9,5,4,9,0,-3,-14
1529285791555040,35,20,14,28,-4,0,5,14
1529285791555040,-2,-3,-1,-26,1,0,-4,-5
1529285791562859,-7,-6,-11,-14,-9,-3,-1,-5
1529285791562859,18,20,17,22,24,10,8,15
1529285791577821,5,9,10,18,20,3,-2,3
1529285791577821,-18,-8,2,9,2,-2,-6,-8
1529285791599798,7,9,-4,-15,-9,-4,1,3
1529285791599798,-16,-14,-4,-23,-10,-1,-2,-4
1529285791607788,-4,-11,-13,-6,-10,-10,-10,-10
1529285791607788,6,-2,1,13,8,2,2,4
1529285791622746,9,7,3,-13,-6,0,3,5
1529285791622746,-8,-11,-7,-6,5,-3,-2,-2
1529285791629728,-16,2,7,-9,-12,-2,-1,0
1529285791629728,-6,-7,-15,-7,-20,-3,-1,-8
1529285791644643,15,8,13,10,28,9,4,9
1529285791644643,-16,-13,-6,13,-3,-1,-4,-4
1529285791659649,-8,-16,-18,-15,-14,-11,-6,-9
1529285791659649,20,23,17,11,19,11,9,12
1529285791674564,-7,-1,2,-1,-6,-3,-4,-7
1529285791674564,17,16,4,-7,-4,3,3,4
1529285791682586,-11,-14,-8,-14,2,0,1,-1
1529285791682586,4,-9,-10,-22,-22,-9,-6,-1
1529285791697528,-6,-10,-5,-5,7,0,-2,-9
1529285791697528,2,5,0,-1,-2,0,0,-3
1529285791712508,-4,-4,-3,-3,-26,-11,-2,0
1529285791712508,-14,-9,-11,-50,-7,-3,-3,-6
1529285791720487,12,11,7,10,11,5,2,3
1529285791720487,-14,-7,-8,-20,-14,-7,-7,-6
1529285791735446,-4,-3,0,24,15,2,1,3
1529285791735446,11,4,-1,11,-6,-5,-2,-3
1529285791742427,2,0,1,-7,-2,0,2,1
1529285791742427,-7,-9,-4,-12,10,0,-5,-7
1529285791757340,6,13,10,13,0,2,6,2
1529285791757340,-12,-6,1,-2,26,1,-11,-6
1529285791772348,9,-1,-2,19,-14,-2,0,1
1529285791772348,-9,-5,-3,5,3,-3,-5,-8
1529285791780326,9,7,-6,-11,-6,-1,4,3
1529285791780326,3,1,8,29,18,7,7,5
1529285791795264,-7,-4,0,-18,6,1,-3,-5
1529285791795264,-4,-5,-1,-10,-11,-4,-4,-3
1529285791802258,4,-1,4,23,6,3,-1,-1
1529285791802258,0,-8,-8,-16,-14,-3,0,-5
1529285791817226,-3,-5,0,11,8,3,-4,-3
1529285791817226,3,5,-4,-10,-8,-4,1,6
1529285791832188,0,-2,0,-15,-10,-2,1,-2
1529285791832188,1,-3,-1,16,12,7,2,1
1529285791840118,-9,1,-5,-24,-1,-1,0,1
1529285791840118,10,15,11,21,-1,-1,1,4
1529285791855078,-10,-6,-11,-20,-11,-7,-4,-5
1529285791855078,-3,3,0,16,7,2,4,5
1529285791862093,8,6,4,-2,-5,0,6,11
1529285791862093,9,8,8,6,4,2,8,8
1529285791878050,-7,-6,-4,0,-2,-1,1,2
1529285791878050,-4,-5,-4,1,-6,-2,1,-4
1529285791893005,2,2,-4,-4,0,-1,0,0
1529285791893005,4,4,2,-1,-4,0,-1,2
1529285791900007,-2,-3,-4,-1,-11,-7,-6,-6
1529285791900007,4,-1,-6,-15,-9,-4,-3,0
1529285791914919,0,2,-1,-3,-3,-3,-2,-4
1529285791914919,-4,-5,-5,-6,5,0,-2,-2
1529285791922122,3,4,3,0,8,0,-4,-1
1529285791922122,-9,-8,-1,9,-1,-1,0,-7
1529285791938116,5,5,2,-1,0,-1,-2,1
1529285791938116,-6,-5,-2,0,3,0,-2,-3
1529285791953079,3,4,-1,3,3,3,0,0
1529285791953079,-4,0,-1,-2,-1,-1,-3,-2
1529285791960382,-3,-4,-4,2,-2,0,-1,2
1529285791960382,3,4,4,1,0,1,0,3
1529285791975360,-4,-7,-2,-2,1,0,-1,0
1529285791975360,10,6,9,5,0,1,-1,1
1529285791982631,-4,-6,-3,2,0,1,-1,-2
1529285791982631,0,1,-2,-2,-3,-1,0,1
1529285791997484,0,0,0,1,-1,1,3,-1
1529285791997484,-3,0,2,1,-1,0,-1,-3
1529285792012744,-5,-3,1,1,2,1,-1,-4
1529285792012744,-2,-5,0,-2,-6,-2,-1,-1
1529285792020669,-5,-2,-2,2,-1,-1,-3,-2
1529285792020669,1,-2,-1,0,2,-1,0,3
1529285792035663,3,0,2,1,0,-1,-1,3
1529285792035663,-4,-3,-3,-1,0,2,-2,-2
1529285792042488,-4,-1,-2,-3,-4,-2,-1,-4
1529285792042488,-4,-3,-1,-4,-4,-2,-2,-3
1529285792057446,3,-2,-2,-2,-2,-1,1,0
1529285792057446,0,0,1,0,2,-1,-2,1
1529285792072406,-1,2,-2,-1,-1,0,-1,1
1529285792072406,3,4,2,0,0,-1,-1,-3
1529285792080384,-1,3,0,3,-1,-1,-2,0
1529285792080384,-2,-2,-6,-4,0,1,0,0
1529285792095399,-2,-1,0,-2,-2,-2,-1,0
1529285792095399,-7,-6,-5,-2,0,-1,-2,-2
1529285792102484,-12,-8,-1,-2,-2,-2,-3,-6
1529285792102484,13,6,0,2,1,1,3,4
1529285792117445,-3,0,-3,-5,-4,-3,-3,-1
1529285792117445,1,-2,2,3,2,0,-1,-2
1529285792132671,-1,1,-1,-3,0,-1,1,0
1529285792132671,2,-1,-4,-1,-3,-3,0,0
1529285792140423,2,-3,-1,1,6,2,1,2
1529285792140423,-1,-1,-3,-4,-5,-2,0,-3
1529285792162542,4,6,1,1,1,1,-1,1
1529285792162542,-2,1,1,-1,2,-1,0,-2
1529285792170217,3,1,1,0,-11,-4,1,0
1529285792170217,-3,-2,1,1,12,3,-4,-2
1529285792185173,-2,-2,-3,-1,4,0,0,0
1529285792185173,-3,-4,-5,-1,3,0,0,-1
1529285792192396,-2,-2,5,0,-3,-1,-2,-2
1529285792192396,0,-2,0,-2,-9,-5,-2,-2
1529285792207332,5,4,9,6,1,0,1,2
1529285792207332,-5,-1,0,-3,2,3,1,1
1529285792214742,-4,-3,-7,-1,0,0,-1,-2
1529285792214742,1,3,12,7,0,2,0,-1
1529285792223215,4,0,-4,-4,3,-1,-1,-1
1529285792223215,-2,-3,-1,1,-2,-2,1,-1
1529285792238240,-1,-5,-2,-3,0,-1,1,0
1529285792238240,-1,-2,0,-2,-4,-2,-2,-1
1529285792245572,3,4,0,1,4,4,1,1
1529285792245572,-2,2,1,1,-3,-4,-1,0
1529285792260032,0,5,8,7,17,3,2,0
1529285792260032,-11,-5,-7,-4,-9,-6,-2,-7
1529285792274987,3,4,1,0,-3,0,-2,1
1529285792274987,4,6,6,2,7,5,0,2
1529285792282967,-1,-5,-8,-8,-4,-1,0,-1
1529285792282967,-2,3,8,6,2,2,0,0
1529285792297314,-1,-3,1,-1,-2,-4,-1,-2
1529285792297314,-4,-5,-5,-1,-8,-4,-1,-2
1529285792305295,3,-2,-7,0,2,4,1,2
1529285792305295,-1,-1,-4,-4,1,0,0,-1
1529285792320097,-2,3,8,3,-8,-4,-2,-1
1529285792320097,3,-3,-7,-3,0,-1,-2,1
1529285792335410,0,0,1,1,-5,-1,0,1
1529285792335410,2,-5,-5,-1,12,1,1,-3
1529285792343036,-3,-7,-4,-3,-5,-3,0,-1
1529285792343036,2,3,7,-3,-4,0,-1,2
1529285792356997,-6,-4,-5,-4,1,-3,-2,-3
1529285792356997,-2,0,-4,-1,1,-1,2,1
1529285792365670,-6,4,0,1,1,-1,-2,-6
1529285792365670,1,-3,-6,-2,-1,-3,-3,0
1529285792380497,-2,-5,0,0,-13,-3,-1,1
1529285792380497,-1,-2,-1,2,28,7,2,0
1529285792395438,-2,-6,-12,-8,-12,-3,-2,-4
1529285792395438,2,9,13,1,-30,-9,0,-2
1529285792402633,-3,-3,-6,1,48,9,2,-1
1529285792402633,0,1,0,2,-1,0,-1,-1
1529285792417771,-3,-2,3,2,-7,-4,-4,-1
1529285792417771,-1,-4,-6,-4,4,-1,1,1
1529285792432552,1,-2,-2,-4,-20,-5,-4,-3
1529285792432552,1,-2,-4,0,-1,2,0,0
1529285792447512,1,0,-4,1,5,0,0,2
1529285792447512,0,4,1,0,0,0,-1,-3
1529285792462469,0,0,-3,-1,-4,-1,-2,0
1529285792462469,0,-1,0,1,2,-2,-1,-1
1529285792469668,-3,-3,-3,-3,-4,-1,-1,0
1529285792469668,3,-3,0,2,-5,-3,1,2
1529285792484975,-1,2,-1,-2,12,0,-1,1
1529285792484975,-2,0,1,-1,-22,-3,3,-1
1529285792500498,-1,1,-2,-2,-12,-2,0,-1
1529285792500498,-4,2,0,0,1,-2,-2,-2
1529285792515464,-3,0,2,1,4,0,0,-2
1529285792515464,-4,-2,-4,-5,-9,-3,-3,0
1529285792523022,-4,-4,1,2,-8,-4,-2,0
1529285792523022,2,0,0,-1,4,1,-2,1
1529285792538018,2,-1,-2,0,-1,-1,-2,-2
1529285792538018,3,-2,-2,-1,2,0,-1,-1
1529285792544687,3,1,0,-3,-3,-1,1,-3
1529285792544687,-1,-3,-2,-4,-7,-1,1,0
1529285792560642,0,-2,-3,-1,-5,-2,-2,0
1529285792560642,-2,4,-1,-1,-1,-1,-3,-2
1529285792575243,-2,0,1,2,4,1,-2,-1
1529285792575243,0,-1,-1,-1,1,-1,1,1
1529285792583190,-2,-4,-1,-2,-5,0,1,-3
1529285792583190,-2,1,-1,-1,1,1,1,-1
1529285792598161,0,2,1,-1,5,0,-1,-1
1529285792598161,0,1,-3,-3,-7,-1,1,0
1529285792605403,0,-3,1,-1,1,1,-2,0
1529285792605403,-1,-2,-2,-3,-3,-4,-1,-2
1529285792620235,3,3,-1,0,-1,1,-1,1
1529285792620235,0,-1,0,0,3,0,-2,-2
1529285792635633,-4,0,1,0,-1,0,0,-1
1529285792635633,1,-3,-1,-2,0,0,1,-2
1529285792642842,-1,0,-1,-1,-2,-1,-1,0
1529285792642842,1,-2,-1,-1,-1,-2,-1,1
1529285792657681,-2,-1,-2,-1,1,-1,-1,1
1529285792657681,-1,-2,-3,0,-2,0,-1,-1
1529285792665705,-2,0,-2,-1,-4,-2,-1,-1
1529285792665705,-2,-2,-1,1,1,0,-2,0
1529285792680667,0,-1,0,-2,-2,-2,-1,-3
1529285792680667,-2,-2,-1,1,-1,1,-1,0
1529285792695541,2,-1,-1,0,0,0,-1,1
1529285792695541,-1,0,-1,-2,-2,-1,-2,1
1529285792710784,1,-1,-1,-1,1,-1,-4,-1
1529285792710784,-2,-3,1,0,0,0,1,-1
1529285792725871,-3,-2,-1,0,-1,1,1,-1
1529285792725871,0,1,0,0,-2,1,-1,-1
1529285792732656,3,1,0,-1,-2,0,-1,0
1529285792732656,-1,-1,-2,-3,0,1,-2,-2
1529285792747436,-5,2,0,0,-2,-1,-1,-1
1529285792747436,-2,0,1,-1,-2,-1,2,-1
1529285792762396,-1,1,1,0,-1,-1,2,3
1529285792762396,-1,-1,1,-1,-1,0,0,0
1529285792777356,1,-2,0,0,0,1,-1,0
1529285792777356,2,-1,0,0,-2,-2,-1,0
1529285792792716,-1,-1,-1,0,-2,0,0,0
1529285792792716,-1,0,0,0,0,0,0,-1
1529285792807274,0,0,-1,-1,1,-1,2,-2
1529285792807274,2,0,-1,0,-2,-1,-1,-1
1529285792815436,-1,1,1,1,0,-1,-1,0
1529285792815436,-1,0,-1,-2,-1,-2,0,0
1529285792830216,-4,0,0,-1,0,-1,-2,-1
1529285792830216,1,0,-1,1,-2,1,-1,0
1529285792838354,-4,-3,-1,-1,0,0,-1,0
1529285792838354,-2,0,-1,1,0,-2,-1,-1
1529285792853295,0,-1,-1,-1,-1,-1,-1,-2
1529285792853295,3,-3,-2,-1,0,0,-1,-2
1529285792867147,-2,0,-1,-2,-1,0,0,1
1529285792867147,-1,0,0,-2,-3,-1,-1,1
1529285792875158,-2,0,1,-1,-2,0,0,-2
1529285792875158,-1,1,-1,0,-3,0,-1,-2
1529285792890283,0,-3,-1,0,-1,1,-1,0
1529285792890283,-1,-2,0,0,0,-3,-1,1
1529285792897424,0,-1,0,-1,0,-1,-1,-1
1529285792897424,3,-1,-3,2,-1,1,-1,0
1529285792912383,1,-1,0,-1,-3,-2,-2,-2
1529285792912383,0,1,0,-1,-1,-1,2,-1
1529285792927343,0,-1,-1,0,0,-1,-1,-3
1529285792927343,0,2,-1,-1,0,-2,-2,2
1529285792935525,1,-3,-2,0,0,-1,-1,-2
1529285792935525,1,1,-1,-2,-2,0,0,-1
1529285792950568,-1,0,-1,0,-2,-1,-1,-1
1529285792950568,0,-1,1,1,-1,0,0,-1
1529285792957821,2,1,-2,2,-1,-2,1,1
1529285792957821,-1,-3,0,0,-1,0,-1,0
1529285792973004,1,-1,0,-1,-2,0,1,0
1529285792973004,-1,1,1,0,1,-1,-1,-3
1529285792994735,2,-2,-1,-2,-1,-1,0,0
1529285792994735,1,-2,-3,1,-1,-1,0,-1
1529285793002856,-2,2,0,0,1,-1,-2,-2
1529285793002856,-4,2,0,-1,0,0,0,-2
1529285793018170,-4,2,-1,-2,-1,0,-1,-1
1529285793018170,-4,-1,0,-1,0,-2,0,-1
1529285793025544,1,-1,0,0,-1,0,-2,0
1529285793025544,0,0,1,-2,0,0,-2,0
1529285793040139,0,-4,0,-2,0,0,-2,2
1529285793040139,1,-1,0,-1,1,-2,0,0
1529285793055689,1,-1,0,0,-1,1,0,2
1529285793055689,-2,4,-1,0,-2,-1,1,0
1529285793070588,0,-4,0,0,1,-1,-2,-2
1529285793070588,1,-2,2,1,-1,0,-1,0
1529285793077603,1,0,0,-1,-1,-2,0,0
1529285793077603,0,-1,0,-1,-2,-1,-1,0
1529285793092757,0,1,-1,0,-1,-1,-1,0
1529285793092757,0,-1,0,-2,1,0,-1,-1
1529285793107718,1,3,-1,-1,-2,0,2,1
1529285793107718,-1,-2,-1,0,0,0,-2,0
1529285793114745,-3,1,-1,-1,0,0,-2,-2
1529285793114745,1,-1,-1,-1,-1,-1,0,-3
1529285793130073,-2,-3,2,1,-1,-2,-1,0
1529285793130073,-2,-2,-2,-1,0,0,-1,-2
1529285793138044,-3,-3,0,0,0,0,0,-3
1529285793138044,-2,-2,-1,0,1,0,-1,0
1529285793152760,-2,1,-1,1,0,1,-2,0
