timestamp,emg1,emg2,emg3,emg4,emg5,emg6,emg7,emg8
1528448418718093,0,0,-2,-1,-1,0,-1,-1
1528448418718093,-2,-1,0,-2,-2,-1,0,-1
1528448418719091,-1,-1,-1,-1,-1,-1,0,0
1528448418719091,-1,-1,-3,0,-2,2,1,0
1528448418720088,-2,-3,-2,-2,-3,5,-1,-1
1528448418720088,0,-1,-1,-2,0,-1,-2,0
1528448418721086,0,-1,-1,0,-1,0,-1,-1
1528448418721086,-2,-1,0,0,0,-1,-1,0
1528448418732056,-1,1,-1,-1,0,-3,-1,0
1528448418732056,0,-1,0,-1,0,-1,-1,0
1528448418741033,-1,-1,-1,-3,-2,-1,0,-1
1528448418741033,0,-1,0,-3,-4,-1,-3,-2
1528448418748022,1,-1,1,0,0,-2,-1,-1
1528448418748022,-1,-1,0,0,1,-1,-1,0
1528448418760977,1,0,-1,0,-1,-1,0,-2
1528448418760977,-2,2,0,1,3,-2,-3,1
1528448418771948,0,-1,-1,0,-5,-4,-1,0
1528448418771948,-3,0,-3,-1,-2,0,-1,-1
1528448418775937,0,0,2,1,-1,0,-1,-1
1528448418775937,2,0,1,0,0,0,0,0
1528448418792893,0,0,0,-1,-1,0,1,-2
1528448418792893,0,0,-1,-2,-1,0,-1,1
1528448418799874,-2,-1,-2,0,1,-2,-1,-2
1528448418799874,-1,-3,-1,-1,0,-1,-1,0
1528448418839768,-2,-2,-1,-1,-3,0,0,-1
1528448418839768,1,2,0,-2,-2,-2,0,-1
1528448418840765,-1,-1,-2,0,1,1,0,-1
1528448418840765,1,0,-1,0,-2,-2,-4,0
1528448418841762,0,-1,1,0,0,-2,-2,-1
1528448418841762,-1,-1,-1,-1,-1,1,-2,-1
1528448418843757,-1,-3,-1,-2,-4,1,-2,0
1528448418843757,1,-1,0,0,0,0,1,0
1528448418851734,1,0,-1,0,2,-3,-1,-2
1528448418851734,-1,-1,0,0,-1,-1,-1,0
1528448418858717,-2,0,-1,-1,-1,-1,0,-1
1528448418858717,-2,-1,-1,-2,-3,-2,-1,-1
1528448418865697,0,-1,-1,0,3,2,1,1
1528448418865697,-1,-1,0,1,-2,-1,0,-1
1528448418880658,0,0,1,0,0,-1,0,0
1528448418880658,-1,1,-1,0,-1,2,1,0
1528448418889634,-1,0,-2,-1,-2,3,0,0
1528448418889634,-1,0,-1,-1,1,-1,-2,-1
1528448418903596,-2,0,0,0,1,-1,-3,-2
1528448418903596,-1,0,1,-2,-3,-1,0,-2
1528448418911575,-1,0,0,-1,-2,-1,-1,-1
1528448418911575,1,1,-1,2,1,-3,1,-1
1528448418919554,0,-1,-2,-3,-1,-2,-1,0
1528448418919554,0,-2,-1,0,-1,1,-1,-2
1528448418935511,0,1,-1,-1,0,-2,-1,-1
1528448418935511,-1,-1,0,-1,-1,1,0,0
1528448418941495,-1,0,-1,0,-3,0,1,0
1528448418941495,-2,-1,-1,-1,1,-3,-1,0
1528448418950472,1,-2,0,1,-1,-1,-1,0
1528448418950472,-1,-2,-3,-1,-1,-1,-1,-1
1528448418963436,1,0,0,-1,-1,1,-1,-1
1528448418963436,-1,-1,-1,-1,2,1,0,-1
1528448418972412,0,-1,-1,-1,-1,-1,0,-2
1528448418972412,-1,0,-2,-2,1,1,1,-2
1528448418978397,0,-1,-1,-1,0,-3,-1,0
1528448418978397,0,-1,-2,-1,-1,1,0,-1
1528448418995352,-2,0,0,0,1,-1,-2,-2
1528448418995352,0,-1,0,-1,1,0,-1,0
1528448419001336,0,0,-2,0,2,-1,-3,0
1528448419001336,0,0,1,0,0,-2,-2,0
1528448419010311,0,-2,-2,0,0,2,2,-2
1528448419010311,0,-1,0,0,1,2,0,0
1528448419023276,0,-1,0,1,-2,-1,-1,-1
1528448419023276,1,0,0,-1,0,-2,-2,-2
1528448419032252,0,0,0,-2,-4,0,-2,0
1528448419032252,-2,-1,-1,-2,-3,1,0,2
1528448419038236,0,0,-1,-2,-1,1,1,-1
1528448419038236,-1,0,0,1,2,-2,-1,0
1528448419055219,-1,-1,0,-3,1,-1,-1,0
1528448419055219,0,-1,0,-2,-1,-1,-3,-1
1528448419061201,-1,-1,-1,1,0,-1,-1,-1
1528448419061201,0,-1,-1,-1,-1,-1,-1,-1
1528448419070152,-1,0,0,1,1,-2,1,-2
1528448419070152,-1,-1,-1,2,-1,-4,-1,0
1528448419083170,1,-1,0,0,1,0,0,-1
1528448419083170,-1,1,1,1,2,-1,-2,-1
1528448419092119,-1,0,-2,0,-2,-1,-1,0
1528448419092119,-2,-1,-1,0,0,-2,0,-1
1528448419098114,0,-1,1,0,1,-1,-2,-1
1528448419098114,-1,-2,0,0,0,0,0,-1
1528448419115031,-1,1,1,0,-2,-1,-1,0
1528448419115031,-1,1,1,-1,0,0,-1,0
1528448419121052,0,0,0,-2,-1,0,-2,0
1528448419121052,-1,0,0,-1,-1,0,-1,-1
1528448419129992,0,0,0,2,-2,-1,-3,-2
1528448419129992,1,0,-1,-1,-1,-1,-1,-2
1528448419143954,-2,-1,0,1,1,-2,-3,0
1528448419143954,-1,1,-2,-1,-1,-1,-1,-1
1528448419152930,0,-2,1,0,0,0,-1,1
1528448419152930,1,-1,0,-1,-1,-2,0,-1
1528448419158914,0,0,1,0,0,-1,0,-1
1528448419158914,0,-2,0,-2,-3,0,0,0
1528448419182850,-1,-1,-1,-2,0,0,0,-1
1528448419182850,-1,0,-2,-1,-1,-2,-1,-2
1528448419183848,-2,0,-1,-1,0,-2,1,0
1528448419183848,-1,-1,-1,-1,0,0,-1,0
1528448419189835,-1,-1,-2,-1,0,-1,-1,0
1528448419189835,1,0,0,-2,0,-1,-1,0
1528448419203802,-1,0,-1,-1,-1,0,-1,-1
1528448419203802,-1,-1,0,1,-2,-2,-3,0
1528448419212772,-3,-1,-1,-2,-1,0,0,-1
1528448419212772,0,-2,-1,0,-1,0,0,-2
1528448419218796,-1,-1,-1,-2,-1,-2,-1,-1
1528448419218796,0,-1,0,0,1,-2,-2,0
1528448419234712,0,0,1,-1,1,-1,-2,1
1528448419234712,-2,0,0,1,1,1,-1,0
1528448419240696,0,0,1,-1,-1,-2,0,-1
1528448419240696,-1,-1,-2,-3,0,2,1,-2
1528448419249672,0,-3,-1,-1,0,0,0,-1
1528448419249672,0,0,-1,-1,-3,-1,-1,0
1528448419263635,1,0,1,0,0,0,0,-2
1528448419263635,-2,1,-1,1,-1,-1,-1,-1
1528448419272610,1,-1,0,2,0,-2,0,-1
1528448419272610,-1,-1,-1,0,0,-2,-1,-1
1528448419278595,-1,-1,-3,-2,-3,0,-2,0
1528448419278595,2,0,-1,-1,-2,0,-2,-1
1528448419294599,-1,1,0,1,0,0,-1,0
1528448419294599,-1,-2,-1,1,0,0,-1,-1
1528448419300536,-2,1,-1,-1,0,0,-1,0
1528448419300536,1,-1,0,0,2,-1,-2,-1
1528448419310526,1,1,1,-3,-1,1,0,-1
1528448419310526,0,-1,0,-2,-1,0,0,-1
1528448419323474,-1,0,0,-1,-1,0,-1,-2
1528448419323474,-1,-1,-1,-1,0,0,-1,-2
1528448419332450,-1,-1,0,-2,-1,-1,0,-1
1528448419332450,-2,-1,2,-1,-1,-1,-1,-1
1528448419338471,0,-1,0,-1,0,-1,1,0
1528448419338471,-2,1,1,1,0,-2,-1,-2
1528448419363368,-2,0,-3,-1,0,-1,-1,0
1528448419363368,0,-1,-1,0,-1,0,-1,0
1528448419364367,1,-1,-1,-1,-2,-1,-2,-1
1528448419364367,0,-1,0,0,0,-1,0,-1
1528448419370390,0,0,0,0,0,-1,-1,-1
1528448419370390,-1,0,-1,0,0,-2,-2,-2
1528448419383352,-1,-1,-1,0,0,0,0,0
1528448419383352,-2,0,0,-2,0,-1,1,0
1528448419392291,-1,1,0,-1,-1,1,-2,-2
1528448419392291,2,0,-1,1,-1,-3,-3,0
1528448419398313,-1,-1,0,0,0,-2,0,-1
1528448419398313,1,-1,-1,1,0,-3,-2,-1
1528448419415231,1,-1,-2,0,-1,-1,0,1
1528448419415231,0,-2,-1,-1,-2,1,-1,1
1528448419421249,-1,-1,-1,0,0,1,0,0
1528448419421249,-1,-1,0,-2,0,0,-1,0
1528448419437170,0,-2,-2,0,0,-1,0,-2
1528448419437170,-1,0,0,-1,3,-1,-1,-2
1528448419443161,0,-3,0,0,1,0,-1,-2
1528448419443161,-1,0,-1,1,0,2,0,1
1528448419459112,-2,-2,-1,0,-1,2,1,-1
1528448419459112,0,0,-1,-1,-2,0,1,-1
1528448419460109,1,0,1,-1,-2,-2,-1,-1
1528448419460109,-1,-1,0,-1,-1,-2,-1,1
1528448419475069,0,-1,-1,-2,0,-1,-2,-1
1528448419475069,-3,0,-2,0,0,1,0,0
1528448419481054,-1,2,-1,-1,1,0,0,-2
1528448419481054,-1,0,-1,0,-1,0,0,-2
1528448419490030,0,1,1,-1,-1,-2,-2,-1
1528448419490030,0,0,-2,-1,-1,0,0,-1
1528448419504328,-1,0,0,0,1,-3,-2,0
1528448419504328,-3,-1,-3,-2,-2,1,-1,-1
1528448419512458,-2,0,-2,-1,0,-1,0,-2
1528448419512458,-1,-1,0,0,-1,-2,-1,0
1528448419518816,-1,0,0,-2,-1,-1,0,-1
1528448419518816,0,0,0,-2,0,-1,0,0
1528448419534987,1,0,0,-1,1,-1,-1,-1
1528448419534987,0,-1,-1,0,0,0,0,-1
1528448419541257,-2,-1,-2,-1,-2,-2,-2,0
1528448419541257,1,1,-1,1,-1,-1,-2,-3
1528448419549816,-1,-2,-1,1,-2,0,-1,-1
1528448419549816,-1,-1,0,-1,0,0,-1,0
1528448419564029,-1,-1,0,-1,-2,1,1,0
1528448419564029,-1,0,-1,-3,-1,-1,0,-1
1528448419572751,-2,1,0,1,-1,-1,-1,-2
1528448419572751,0,0,-1,-1,-1,-1,0,-1
1528448419579047,-1,0,-3,0,-1,0,-2,0
1528448419579047,0,-1,-1,0,0,0,0,0
1528448419595007,0,-1,2,0,-1,0,-1,-2
1528448419595007,-1,-1,1,0,-1,0,-1,0
1528448419600991,0,-2,0,-1,0,-1,0,0
1528448419600991,-1,-2,0,2,-1,-3,2,0
1528448419609967,0,1,0,-1,0,-1,-3,-1
1528448419609967,-2,-1,-1,0,-1,-1,-1,-3
1528448419623958,-1,0,-2,-1,-2,-2,-1,-1
1528448419623958,-2,0,-1,-3,-1,0,0,0
1528448419632906,0,-1,0,-1,-2,-2,0,1
1528448419632906,0,1,1,-1,-1,0,0,0
1528448419639236,1,-2,0,0,0,1,0,-1
1528448419639236,-1,-2,-1,-1,-2,-1,0,0
1528448419654847,-1,1,-1,-1,-1,-2,0,1
1528448419654847,1,-1,-1,-1,-1,-1,-2,0
1528448419660832,-2,-1,0,0,0,0,-2,-1
1528448419660832,1,-1,0,-1,-1,-1,-2,-1
1528448419669810,0,-1,-2,0,0,1,0,-1
1528448419669810,-1,-1,0,-2,1,0,-1,-1
1528448419684015,-1,0,0,0,-1,-1,0,-2
1528448419684015,0,-2,0,2,0,0,-1,0
1528448419692278,0,-1,-2,-1,-1,0,0,-2
1528448419692278,0,-2,-2,-1,0,-1,2,-1
1528448419698270,-2,-2,0,0,0,0,-1,-2
1528448419698270,-2,0,0,-2,0,-1,-1,-1
1528448419715212,-1,-1,0,-1,-1,0,-2,-1
1528448419715212,0,0,-1,0,-1,-1,0,0
1528448419721437,0,-1,0,0,0,-1,0,0
1528448419721437,2,-1,0,-2,0,0,-3,-2
1528448419730171,-1,-3,0,0,0,-1,0,0
1528448419730171,-2,0,0,-1,-1,-1,-2,-1
1528448419744189,-1,0,0,0,1,0,-1,0
1528448419744189,-2,-1,-1,1,1,0,-1,-1
1528448419753247,-2,0,0,-1,1,0,-1,1
1528448419753247,0,0,-1,0,-1,0,0,-1
1528448419758371,1,0,-1,0,0,0,1,-2
1528448419758371,1,0,-1,0,-1,1,1,-2
1528448419773722,-1,0,1,0,0,-1,-1,-2
1528448419773722,-3,-1,-1,-3,-1,-1,-1,0
1528448419781630,0,-2,-1,-2,-2,-2,-1,1
1528448419781630,-2,-1,-1,0,-1,-3,-1,-1
1528448419790244,0,-2,-2,-1,-1,-2,-1,-1
1528448419790244,-1,0,0,-1,-1,1,-1,-1
1528448419804273,0,1,0,0,0,0,-1,-1
1528448419804273,0,0,0,0,-3,-1,0,0
1528448419812186,-1,1,1,-1,-1,-1,-2,0
1528448419812186,0,-1,0,-1,0,1,0,0
1528448419827146,-2,-2,-1,-2,-2,-2,-1,-1
1528448419827146,0,-2,0,-1,0,0,-1,-1
1528448419834263,-1,0,-2,0,-1,-1,0,-1
1528448419834263,0,-1,-2,-1,0,0,-1,0
1528448419850347,1,-3,-2,-1,0,0,-1,-1
1528448419850347,0,-1,0,1,1,-2,-2,-1
1528448419852312,2,-2,-1,0,-1,0,1,-1
1528448419852312,0,-1,2,-1,0,-2,-2,-2
1528448419864247,-1,1,-1,0,0,0,-1,-1
1528448419864247,-1,1,0,-1,-1,0,-2,-1
1528448419872900,-1,-1,-2,0,1,1,-1,-1
1528448419872900,-1,-2,0,-1,0,-1,0,-1
1528448419887204,-1,-1,-1,-2,0,0,-1,0
1528448419887204,-1,-1,-1,-1,0,0,0,0
1528448419894106,-1,1,1,-1,-1,-3,2,-2
1528448419894106,1,-2,-2,0,-1,0,0,-1
1528448419910155,-1,-1,0,1,-2,0,0,-1
1528448419910155,0,-1,-1,-1,-1,-1,1,0
1528448419911375,0,0,-1,-1,-2,0,0,1
1528448419911375,0,0,0,1,0,-1,0,-2
1528448419923852,0,-1,0,0,-1,-1,-1,-1
1528448419923852,-1,-1,0,0,-1,-1,0,-1
1528448419932643,-1,1,-2,-1,0,2,-1,-1
1528448419932643,-2,-1,0,0,-1,-3,0,-1
1528448419946606,-2,0,-1,0,-2,1,-1,1
1528448419946606,0,-1,-3,-2,0,1,-1,-1
1528448419953588,0,-2,-1,-1,0,-2,0,0
1528448419953588,-2,1,-1,-2,0,-2,-1,0
1528448419970271,0,-1,0,-1,-1,-2,0,0
1528448419970271,-3,0,-3,1,0,0,1,0
1528448419972002,-2,-1,1,1,-1,-1,-1,-1
1528448419972002,-2,-3,-1,-1,-1,0,1,-1
1528448419983967,-1,-1,-2,-1,-1,0,1,-1
1528448419983967,-1,0,0,-1,-1,-2,0,-2
1528448419992983,1,-1,0,-1,-1,-2,-1,0
1528448419992983,1,1,-1,1,0,-1,0,-1
1528448420007134,-1,0,0,-1,-1,1,-1,-1
1528448420007134,1,-2,0,0,-1,0,-1,0
1528448420013886,-2,-1,0,-1,-1,0,-1,-1
1528448420013886,0,0,1,0,0,1,0,0
1528448420029880,1,0,-1,-2,0,-3,-1,-2
1528448420029880,-1,0,0,-1,-2,1,-1,-1
1528448420031839,-1,-2,-3,0,-3,-2,-2,-1
1528448420031839,1,0,-3,-1,-1,-1,-2,1
1528448420043827,-1,0,0,1,-3,1,1,0
1528448420043827,0,1,1,-1,-1,-1,0,-1
1528448420052828,1,0,-1,-1,1,-1,2,0
1528448420052828,-1,-1,-1,-1,-1,1,-1,-1
1528448420066797,-1,0,-1,0,1,0,-2,0
1528448420066797,0,1,-1,-1,0,-4,0,0
1528448420073780,-2,-1,-2,-1,0,0,-2,0
1528448420073780,-1,-2,-1,0,0,0,-1,-2
1528448420089740,-1,-1,1,0,-1,-2,0,-1
1528448420089740,0,-2,-1,-1,0,0,0,-2
1528448420091679,0,0,-3,-2,0,-1,-1,-2
1528448420091679,-1,0,0,-3,0,0,0,-1
1528448420103701,-1,-3,-1,0,-2,0,1,-2
1528448420103701,0,-1,-1,-1,-1,0,1,0
1528448420112623,-1,0,0,0,-1,-1,-1,0
1528448420112623,-2,0,-1,-1,-2,0,0,0
1528448420126611,-1,-1,-1,-2,0,1,0,0
1528448420126611,0,-1,1,-1,-1,1,-1,0
1528448420133621,0,-1,0,-2,-2,1,-1,-1
1528448420133621,1,0,-1,-1,0,0,-1,0
1528448420149578,-1,1,-2,-2,0,-1,-1,-1
1528448420149578,-1,-1,0,-1,-1,0,1,0
1528448420151519,-1,-2,0,-1,-2,0,0,-1
1528448420151519,-1,-1,0,-1,0,-2,-1,0
1528448420163541,0,0,-1,-3,-1,0,-2,0
1528448420163541,-2,-1,-2,0,-2,0,-1,1
1528448420172499,-1,0,0,-2,-1,-1,0,0
1528448420172499,1,0,0,1,0,-1,0,0
1528448420186479,0,-1,0,-1,-1,0,0,-3
1528448420186479,-1,-2,0,-1,0,-2,0,-1
1528448420193462,0,1,0,0,-1,-1,-1,0
1528448420193462,-3,-1,-2,0,-1,-1,-2,1
1528448420217342,-1,-1,0,-1,-1,-1,-1,0
1528448420217342,-1,-1,-1,1,-1,0,0,0
1528448420219338,-1,-1,-2,-1,0,0,0,-1
1528448420219338,-1,1,0,-1,-1,1,0,-1
1528448420223381,-1,-1,-1,-2,-1,-2,-1,0
1528448420223381,-2,-2,0,-1,-1,-1,-2,-2
1528448420232302,-1,-1,-1,2,-1,0,-1,-1
1528448420232302,1,-2,-1,-2,-1,-1,-1,0
1528448420246300,0,-1,-2,1,0,0,1,0
1528448420246300,0,1,-1,-1,0,-2,1,1
1528448420253281,0,0,0,-1,0,0,0,0
1528448420253281,-1,-1,0,0,-1,-2,1,0
1528448420269238,-1,-2,0,0,-1,-1,1,-1
1528448420269238,0,-1,-1,0,0,0,0,-2
1528448420276190,0,-1,0,-1,-2,0,1,-1
1528448420276190,-1,-2,-2,0,-1,0,-1,0
1528448420283168,1,-2,-1,-2,1,0,-1,1
1528448420283168,0,0,-2,-2,1,0,-2,-1
1528448420292147,-1,-1,0,-1,0,-2,-1,0
1528448420292147,0,-3,1,-1,-1,-3,0,-2
1528448420307157,0,-2,-1,0,-2,0,-2,-2
1528448420307157,-2,-1,0,-1,-2,1,-1,1
1528448420313141,-1,-1,-1,-1,-1,1,-2,-1
1528448420313141,0,-1,-1,-1,-2,0,1,-2
1528448420329045,0,0,-1,-1,0,1,-1,1
1528448420329045,0,-2,-1,0,0,-1,-1,1
1528448420336268,-1,-1,-1,-1,-1,-2,-2,-1
1528448420336268,-1,1,-1,0,0,-1,0,-1
1528448420344255,-1,-2,0,-1,-2,-2,0,-1
1528448420344255,0,-1,-2,0,-1,-1,-1,-2
1528448420353264,-2,-3,-1,-2,-1,-1,0,0
1528448420353264,-1,-2,-2,0,1,-1,-1,-1
1528448420367189,-1,0,-2,-2,-2,-1,0,-2
1528448420367189,-2,-1,-2,-2,-2,0,0,-1
1528448420373521,-1,-1,0,0,-1,0,0,0
1528448420373521,1,-1,0,-1,-2,0,0,0
1528448420389856,0,-1,-1,0,0,-2,0,-1
1528448420389856,0,-2,-1,-2,-1,0,-1,-1
1528448420396780,0,0,0,-2,0,-2,0,-1
1528448420396780,-1,0,-1,-1,-1,1,0,-2
1528448420412750,0,-1,0,0,-1,-1,0,1
1528448420412750,-1,0,1,-2,-2,1,0,-2
1528448420414412,-2,-1,0,-1,-1,0,0,1
1528448420414412,1,0,1,-2,1,-2,-1,0
1528448420427438,-1,-1,0,-1,0,-1,-2,0
1528448420427438,-1,-1,-1,0,0,-2,0,0
1528448420433362,-1,1,-1,0,-1,1,-1,-2
1528448420433362,-3,-2,2,0,0,-2,-2,-1
1528448420449318,-1,-1,0,-2,0,0,0,1
1528448420449318,-1,-1,-1,0,-2,-1,-1,1
1528448420456562,1,0,-1,-2,-3,-2,0,0
1528448420456562,-1,-1,-1,-1,0,0,-1,1
1528448420472819,-2,0,-1,0,0,-3,0,0
1528448420472819,-1,0,2,-1,-1,-2,0,0
1528448420473886,0,0,-1,0,0,-1,-1,1
1528448420473886,-1,-1,-1,-1,-3,0,-2,-1
1528448420487045,-2,-2,-1,0,-1,0,0,-1
1528448420487045,-1,-1,-1,0,-2,-1,0,-1
1528448420493601,-1,-3,1,-1,-1,-1,-1,-1
1528448420493601,-2,0,-1,0,0,0,1,-1
1528448420509292,-1,0,0,-1,0,0,0,0
1528448420509292,0,1,-1,-1,-1,-1,-1,-1
1528448420516536,-1,-1,-1,0,0,-1,-1,0
1528448420516536,-2,-1,0,-2,0,0,-2,-1
1528448420532582,2,-1,-1,-1,-2,-2,-2,0
1528448420532582,0,0,0,-1,-1,0,0,-1
1528448420534227,-2,0,-3,0,-1,0,0,0
1528448420534227,0,0,1,1,-2,-3,0,-1
1528448420546576,-1,0,-2,-1,-1,0,0,-2
1528448420546576,-1,-1,-2,1,1,-1,0,-1
1528448420570741,1,-2,-1,0,-1,-2,0,0
1528448420570741,0,-1,-1,-3,-2,0,0,1
1528448420570741,-1,0,1,1,-1,0,0,1
1528448420570741,-2,0,-2,-1,-1,-2,-1,1
1528448420575613,1,0,0,-1,0,1,-1,-1
1528448420575613,-1,-1,-1,-1,0,1,1,-1
1528448420592965,0,0,0,-1,-1,-1,1,-2
1528448420592965,1,0,-1,0,0,-1,-1,-1
1528448420593961,1,0,-1,-1,-1,-1,-1,-1
1528448420593961,0,-1,-2,0,-1,0,-2,0
1528448420606269,-1,0,0,-2,2,-2,-1,-1
1528448420606269,-1,0,0,-1,1,1,-1,0
1528448420614905,0,-1,-1,-1,1,0,-1,0
1528448420614905,-1,-1,1,0,0,-1,-1,1
1528448420629955,0,-1,-2,-1,-2,0,0,0
1528448420629955,0,-1,-1,0,-1,-1,-1,-1
1528448420635851,-2,-1,-2,-1,-2,-1,0,-1
1528448420635851,0,0,0,-1,-1,-2,-2,-1
1528448420652843,-1,1,-1,0,-1,-1,0,1
1528448420652843,-1,-2,0,-2,0,-1,-1,1
1528448420653848,0,0,-3,1,-2,1,-1,-1
1528448420653848,-1,0,-3,0,-1,0,1,-1
1528448420665810,0,0,-2,1,-1,-1,-2,-1
1528448420665810,1,-1,-1,-2,-1,-1,-1,0
1528448420674964,-1,-1,2,1,0,-2,-1,-1
1528448420674964,-1,0,-2,-2,0,-2,-1,0
1528448420689997,-1,-1,-1,-1,-1,0,0,0
1528448420689997,-1,0,0,0,-1,1,1,-1
1528448420696874,0,1,0,-2,-2,0,-1,-1
1528448420696874,-1,-1,-1,0,-2,-1,-2,-1
1528448420712996,-2,1,-1,-1,1,-1,0,-1
1528448420712996,-1,0,-1,0,0,-2,0,0
1528448420713681,-2,1,-2,0,1,-1,-1,-3
1528448420713681,-1,-1,0,-1,0,0,2,0
1528448420725927,0,0,-1,-1,0,-1,-1,-2
1528448420725927,0,-1,-1,-1,-1,-1,-2,-1
1528448420734963,1,-1,-1,1,0,-2,-2,0
1528448420734963,0,0,-2,0,-2,-1,-1,0
1528448420749977,-1,-3,0,0,-1,1,0,0
1528448420749977,0,0,-2,0,-1,-1,0,-1
1528448420756846,-1,-1,-2,-2,-1,-1,-1,1
1528448420756846,2,-1,-1,-1,0,-1,1,0
1528448420773487,-2,-2,-1,-1,-2,1,-1,0
1528448420773487,-2,-1,0,0,0,-1,-2,0
1528448420775152,-1,-1,-1,0,-1,0,-1,0
1528448420775152,0,-1,0,-1,-1,-1,0,-1
1528448420787470,0,0,0,-1,-2,0,-2,0
1528448420787470,-1,0,0,-1,0,0,-2,1
1528448420793540,-1,0,1,0,-1,0,-2,-1
1528448420793540,2,-2,-1,0,2,-2,0,-1
1528448420808849,0,0,-1,0,0,-1,0,0
1528448420808849,-1,-1,-1,-1,0,-2,0,-1
1528448420816294,-1,0,-1,-2,-1,-2,0,0
1528448420816294,-2,-1,-3,-1,-2,0,-2,0
1528448420833079,1,-2,-1,-1,-1,-1,-2,0
1528448420833079,0,0,0,0,-1,0,0,-2
1528448420834071,-2,-1,0,1,0,-2,-1,-1
1528448420834071,-2,0,0,-2,-1,0,-1,-1
1528448420847297,-1,0,-1,0,-2,-1,-1,0
1528448420847297,1,-1,-1,1,0,-1,-1,-1
1528448420853305,1,-2,-1,0,1,-1,1,-1
1528448420853305,-1,0,-1,0,0,1,1,-1
1528448420869008,0,-2,-1,1,-3,-1,-1,-1
1528448420869008,0,-1,-2,-2,0,0,1,0
1528448420875836,-1,0,-1,1,-2,0,0,0
1528448420875836,0,0,0,-3,0,-2,-2,-1
1528448420892778,0,-1,-1,-2,0,0,0,-1
1528448420892778,0,1,0,-1,-1,-1,-1,0
1528448420893777,-1,0,-2,-2,-1,-1,0,-1
1528448420893777,-2,-1,-1,-1,-1,0,0,2
1528448420905742,-2,0,-1,-1,0,-1,-1,-2
1528448420905742,-3,-2,-1,-1,-1,-2,0,-1
1528448420915137,0,0,-1,-1,1,-2,0,-1
1528448420915137,0,0,-1,1,0,-1,-1,-1
1528448420930015,-1,0,-1,-1,-2,0,0,0
1528448420930015,0,0,0,-1,-2,-1,0,0
1528448420936076,-1,-2,-1,-1,-1,-2,0,1
1528448420936076,-3,0,-1,1,0,-1,-2,-1
1528448420952648,1,-1,-2,-2,0,0,0,1
1528448420952648,-2,-1,-1,-1,0,1,-2,0
1528448420953627,-1,-2,0,-1,0,0,-1,0
1528448420953627,-1,-1,0,0,0,-1,-1,-1
1528448420966051,0,0,0,0,-1,0,0,-1
1528448420966051,-1,-1,0,0,-2,0,-1,-2
1528448420975162,0,-2,-2,1,0,0,0,0
1528448420975162,-1,-2,-1,-1,-2,0,-1,0
