timestamp,emg1,emg2,emg3,emg4,emg5,emg6,emg7,emg8
1528441742109614,-1,-2,-2,0,-1,-1,-1,-1
1528441742109614,0,-1,1,-1,1,0,0,-1
1528441742113603,-2,-3,-1,-2,-2,-1,0,-2
1528441742113603,1,-2,-1,-2,-2,-1,-2,-1
1528441742121579,0,-1,-2,-2,0,0,1,0
1528441742121579,-1,1,2,1,-2,1,1,-2
1528441742128559,-2,-1,-2,0,0,0,-1,-1
1528441742128559,-2,-1,-1,-1,-2,-1,-4,-2
1528441742143519,-1,-3,-4,-2,-1,-2,-1,-1
1528441742143519,-2,-1,-3,-1,-1,-1,0,-2
1528441742158479,-1,-1,1,0,-1,-2,-1,0
1528441742158479,-2,-4,-3,-1,-1,0,-2,-2
1528441742165461,0,0,0,0,-1,0,0,1
1528441742165461,-1,-1,-2,-1,0,0,0,-1
1528441742184412,0,-1,1,-2,-1,-2,1,-1
1528441742184412,-1,0,1,0,-1,0,0,-2
1528441742195382,-1,-2,-2,0,-1,1,-2,1
1528441742195382,-1,0,-1,-1,-3,-2,-3,0
1528441742203363,-1,-1,-1,-1,-2,0,0,-2
1528441742203363,-1,-3,-2,-1,-1,-2,-1,0
1528441742218320,-1,-1,-1,-1,-2,0,-2,-2
1528441742218320,0,-1,0,0,-2,-1,-3,0
1528441742228294,-1,-1,-1,-1,-1,0,-2,-1
1528441742228294,0,0,-2,-2,-2,0,1,-2
1528441742240264,1,-1,-2,-2,-1,-2,0,0
1528441742240264,-1,-2,-1,-2,-2,-3,0,0
1528441742248240,-2,1,-1,-2,-2,0,-2,-2
1528441742248240,-2,1,0,0,-1,-1,0,0
1528441742270182,0,-2,1,0,0,0,-2,0
1528441742270182,0,-3,-1,-2,0,-2,-3,0
1528441742285143,0,0,-1,-1,0,-1,-2,-1
1528441742285143,-1,-2,-5,-2,-2,-2,0,-1
1528441742293122,-1,-1,-1,0,-1,-2,0,-1
1528441742293122,-2,-1,-3,-3,-4,0,0,0
1528441742308082,-1,-2,-2,0,-1,-1,-1,-2
1528441742308082,-1,-2,2,-3,-1,0,1,-2
1528441742316061,-1,-1,0,0,-1,0,-1,-1
1528441742316061,0,-1,-3,-1,0,0,-1,-1
1528441742324040,-1,-1,-4,-1,0,-1,-1,-1
1528441742324040,-1,-3,1,0,1,-1,-1,-1
1528441742345980,0,0,0,-1,0,-2,0,0
1528441742345980,-2,-1,-1,0,-1,-2,0,-1
1528441742352962,-1,-1,0,-2,0,-1,-3,0
1528441742352962,-1,-1,1,2,-1,0,-4,-1
1528441742367922,-2,0,-1,-1,-2,2,0,0
1528441742367922,0,0,0,0,0,-1,-1,0
1528441742376897,0,-1,-2,-1,0,-2,0,-1
1528441742376897,-1,-1,-1,-3,-1,-2,0,-1
1528441742397840,0,1,-1,-2,-1,0,-1,-2
1528441742397840,-1,-1,-3,-2,-1,1,1,-2
1528441742405821,0,-1,-1,0,0,-1,-1,-2
1528441742405821,-1,-1,-2,-1,-1,0,1,0
1528441742412801,0,-2,1,-1,-1,-1,0,-2
1528441742412801,0,-2,-1,-1,1,-2,0,-2
1528441742420781,-1,-1,1,2,-1,0,-1,0
1528441742420781,-3,-1,-4,-2,-2,-2,-1,-1
1528441742442810,0,0,-1,-1,-1,-2,0,-2
1528441742442810,-1,-2,-1,-2,-1,-2,-1,-1
1528441742450789,-1,-1,-2,-3,-1,-1,-1,0
1528441742450789,-1,-3,-2,-1,1,-1,1,0
1528441742465712,-1,-1,-2,0,-2,2,0,-1
1528441742465712,-1,-3,-3,-1,-1,-2,0,-1
1528441742472685,0,-2,-2,-2,-1,0,-3,-1
1528441742472685,-2,0,-1,0,-3,0,-2,-2
1528441742487636,-2,0,-2,-1,-2,-2,-2,-2
1528441742487636,1,0,1,-2,-1,-1,-2,-2
1528441742502596,-2,-1,-2,-2,-1,-3,-1,0
1528441742502596,0,-2,0,2,-1,-2,0,-2
1528441742518554,-1,-3,0,1,0,-2,-2,0
1528441742518554,-3,-4,-18,-10,-2,-1,-1,-1
1528441742525574,2,10,35,13,1,-2,0,0
1528441742525574,-2,-2,-8,-6,-5,-2,-3,-2
1528441742540504,-1,-2,1,-1,-5,-10,-4,-1
1528441742540504,-2,0,-4,-3,-6,-6,0,-2
1528441742548475,0,-1,-7,2,11,13,6,0
1528441742548475,1,4,8,17,9,6,1,0
1528441742563435,0,-1,1,-7,-4,10,5,4
1528441742563435,1,1,2,3,-4,-7,3,3
1528441742578430,-2,-5,-9,-4,-5,-16,-6,-2
1528441742578430,-6,-3,1,-5,-21,-32,-24,-13
1528441742585395,8,0,3,9,-4,-7,29,22
1528441742585395,-2,1,3,0,25,53,12,-9
1528441742600337,9,11,6,2,18,21,7,16
1528441742600337,-3,-6,-2,-1,9,24,0,-10
1528441742608313,-4,-4,-5,-1,-16,-59,-8,2
1528441742608313,1,3,-1,-3,-3,16,-13,-5
1528441742623280,2,-5,-3,-1,-3,1,30,10
1528441742623280,2,4,5,3,-1,6,-5,1
1528441742638233,0,20,7,1,7,1,-5,2
1528441742638233,1,0,1,3,-3,2,16,1
1528441742645272,-9,-6,-16,-15,-21,-34,-36,-22
1528441742645272,-3,-8,-5,-3,-7,-20,-12,-9
1528441742660174,1,-15,1,2,-7,17,-10,1
1528441742660174,2,5,-2,-1,7,3,11,3
1528441742668155,-11,-6,-4,-10,0,10,-31,-14
1528441742668155,27,17,10,7,3,5,49,53
1528441742683149,-13,-15,6,11,-1,-5,9,-26
1528441742683149,-20,9,24,6,5,5,-20,-44
1528441742698075,1,-3,6,-9,-7,8,8,-22
1528441742698075,19,2,8,8,10,0,-13,29
1528441742706052,9,12,-21,-7,-7,1,3,11
1528441742706052,-22,-14,-28,-9,-18,-18,-8,-39
1528441742728028,-17,-3,-37,-2,3,-11,-11,-2
1528441742728028,-12,-10,-30,-17,-13,-7,-1,-15
1528441742736096,12,16,9,33,17,18,8,17
1528441742736096,11,-3,-7,-1,-4,15,9,19
1528441742750962,1,1,-9,-4,1,-17,-20,-8
1528441742750962,-1,-2,-12,-28,-22,-4,-4,1
1528441742766058,-5,-4,0,-1,-16,-6,-10,-7
1528441742766058,7,0,2,8,18,6,19,25
1528441742781035,1,2,7,-3,-12,-2,14,12
1528441742781035,24,2,3,0,-2,-5,10,47
1528441742788052,-22,-18,5,9,23,22,-2,-48
1528441742788052,-16,11,-4,-3,-5,-5,-9,-24
1528441742802976,4,-2,4,-2,-5,-11,-8,-2
1528441742802976,1,2,-1,-3,-9,-7,-6,4
1528441742817947,0,1,-1,-19,-5,4,-1,5
1528441742817947,-3,1,9,14,8,4,-5,-6
1528441742825915,-4,3,9,22,5,-6,-14,-6
1528441742825915,6,-2,-3,-12,-5,-2,4,1
1528441742840920,-2,-1,7,15,10,2,-1,6
1528441742840920,6,-4,-7,-5,2,4,7,-2
1528441742848002,4,12,-1,-9,-8,-7,-9,-12
1528441742848002,-7,4,12,-24,-20,-15,-11,9
1528441742862959,-17,-5,27,31,26,22,31,2
1528441742862959,-20,-16,3,1,-2,-9,-27,-47
1528441742877936,22,-1,3,-12,-5,-5,1,11
1528441742877936,-9,-5,-1,-8,-4,-8,-6,-17
1528441742885913,18,6,8,-10,-5,2,6,11
1528441742885913,-16,-16,10,2,-4,-10,-24,-15
1528441742900878,3,12,36,15,5,-1,14,18
1528441742900878,0,0,16,15,8,9,21,-1
1528441742908721,-17,10,-16,-10,-13,-10,-26,-25
1528441742908721,12,-21,-66,-7,17,14,9,9
1528441742923654,-8,1,-36,0,0,0,-20,-27
1528441742923654,12,12,1,0,-5,-3,5,37
1528441742938715,4,-1,38,-4,-2,-11,-3,4
1528441742938715,-2,-6,8,5,5,11,5,19
1528441742945730,8,8,13,0,1,14,22,16
1528441742945730,-15,-11,-30,5,3,6,8,-31
1528441742960696,-8,-1,-32,-12,-25,-20,-22,-15
1528441742960696,-2,-8,-58,-9,12,-9,-5,4
1528441742968541,-10,13,-25,23,54,35,8,-23
1528441742968541,8,-13,-11,-23,-22,-1,-2,20
1528441742983648,5,4,-15,3,51,19,-4,-2
1528441742983648,-7,-1,-23,-4,-21,-6,-3,-9
1528441742998454,-4,-10,-28,5,-6,-4,-4,-4
1528441742998454,-6,-2,13,20,-4,-3,1,-8
1528441743005438,-3,-10,-24,-18,-19,-13,-4,-2
1528441743005438,3,8,-10,4,-1,-1,-2,3
1528441743020535,-5,-11,-11,-20,-38,-20,-9,-1
1528441743020535,-4,-2,17,14,39,16,-1,-3
1528441743028532,0,-1,4,7,-2,5,-2,-4
1528441743028532,-4,-7,-4,-18,-19,-7,-3,2
1528441743043489,4,3,-7,-9,-9,-3,-3,5
1528441743043489,-2,-1,3,0,-1,-2,-1,-7
1528441743058396,0,-2,15,1,15,5,1,2
1528441743058396,-1,2,6,-4,-1,1,0,-4
1528441743065431,-5,-7,-4,-30,-17,-4,-2,-2
1528441743065431,3,5,6,32,13,-2,-1,2
1528441743081253,5,1,-9,27,-6,6,1,5
1528441743081253,5,-2,2,-7,-3,-1,5,10
1528441743088369,-16,-2,3,2,14,-2,-13,-42
1528441743088369,5,0,-8,-9,-14,-4,-8,-2
1528441743103370,-5,-4,7,-25,11,10,2,-4
1528441743103370,0,-7,-4,7,-3,-4,0,8
1528441743118624,-2,2,9,6,2,0,-4,-1
1528441743118624,0,2,-8,-12,-7,-1,-3,-3
1528441743125452,4,4,4,-5,-8,-5,-4,4
1528441743125452,-7,-3,1,-4,0,-5,1,-8
1528441743140552,-10,-4,-3,-12,-2,0,-5,-2
1528441743140552,19,5,8,3,-9,-1,1,21
1528441743148388,12,3,9,5,7,4,10,-37
1528441743148388,-6,-5,11,6,16,20,35,33
1528441743163350,13,-1,1,-4,-7,-2,14,8
1528441743163350,-12,-7,0,-7,-4,-4,-12,-22
1528441743170329,1,-1,8,-3,-1,-14,-20,16
1528441743170329,11,5,8,-3,-1,4,12,13
1528441743178310,-6,0,-3,-6,-9,-4,-6,-35
1528441743178310,1,6,5,-2,1,-1,3,14
1528441743185289,-2,-2,9,6,-1,-1,-2,9
1528441743185289,-10,-5,-2,-7,-3,-5,-16,-14
1528441743200249,-7,-3,0,21,23,14,22,4
1528441743200249,-7,-1,-4,-7,-10,-10,-12,-16
1528441743208260,-2,3,-1,-5,1,0,-1,14
1528441743208260,5,5,0,2,-2,-1,-8,-4
1528441743223227,3,-12,3,-2,-13,-1,-9,4
1528441743223227,0,7,-2,5,39,18,13,8
1528441743230197,-3,-6,-9,-1,-4,0,17,9
1528441743230197,-3,3,1,-4,-19,-15,-26,-18
1528441743238147,-4,-4,-6,-8,-6,-11,-11,0
1528441743238147,-4,-3,-4,-7,-15,4,11,-8
1528441743245130,-5,-5,2,-17,-16,-4,-3,-3
1528441743245130,1,1,8,6,44,11,-5,-2
1528441743260089,4,15,5,12,-7,-7,-3,7
1528441743260089,-2,-3,5,0,-1,1,-6,-13
1528441743268067,-3,-2,-18,-6,-2,-2,1,-3
1528441743268067,0,-15,-33,-12,-13,-5,-1,7
1528441743283028,-1,0,-15,1,-10,-7,-7,-2
1528441743283028,-3,2,-4,-9,-4,-7,-4,-4
1528441743291035,1,0,0,7,20,8,-2,4
1528441743291035,0,-6,-17,4,-22,-8,2,11
1528441743298017,-7,-1,-7,0,19,4,-3,-10
1528441743298017,-1,5,3,-6,-25,-10,-9,-8
1528441743305996,-4,-14,-5,2,-17,-10,-4,0
1528441743305996,2,2,0,-10,9,7,1,1
1528441743320956,4,2,-1,-5,10,-4,-3,4
1528441743320956,-2,-4,0,15,-32,-11,-2,-1
1528441743327937,-3,3,9,2,41,20,1,-3
1528441743327937,1,6,15,13,-13,-7,2,-2
1528441743342897,-2,-4,-12,-44,-21,-6,-2,0
1528441743342897,-2,-5,-10,5,11,8,-1,-6
1528441743350876,-1,1,11,5,-11,-7,-2,1
1528441743350876,-1,1,8,16,15,3,0,-6
1528441743357857,1,-2,-10,-26,-21,-5,-5,0
1528441743357857,-3,-1,4,13,7,-6,-5,-3
1528441743365836,-3,-2,0,-6,-16,-5,-2,-3
1528441743365836,0,2,-3,3,0,4,5,-1
1528441743380796,-2,-2,-1,3,9,2,-2,0
1528441743380796,-2,-2,-8,-13,-2,0,-1,-2
1528441743387777,-1,-1,-5,-3,-3,-6,-5,-2
1528441743387777,-4,-4,-4,-4,-2,3,3,-3
1528441743402736,4,5,8,9,4,4,-1,6
1528441743402736,0,2,-1,-6,1,-3,-2,-2
1528441743410724,-3,-9,-8,-2,-3,-1,-1,-4
1528441743410724,-4,-1,17,0,-3,-10,-10,-9
1528441743417696,-5,-4,-3,6,0,-1,-1,-5
1528441743417696,-6,-9,-2,-9,0,-11,-24,-11
1528441743425675,0,3,8,7,2,3,0,-14
1528441743425675,3,-2,-9,-12,-7,-6,-16,12
1528441743440675,14,8,8,8,1,2,0,-7
1528441743440675,-53,-15,-7,-11,-6,-11,-23,-18
1528441743455648,1,-5,-1,0,5,11,16,9
1528441743455648,-12,-9,-7,-3,1,-7,-13,-11
1528441743470608,-12,-4,5,4,-3,-10,-19,-20
1528441743470608,22,15,8,2,5,8,19,19
1528441743478575,3,1,0,2,-3,-6,-16,-13
1528441743478575,-6,4,1,0,0,-1,-2,-4
1528441743485569,7,1,-3,-4,-7,-3,-8,10
1528441743485569,2,0,14,5,2,4,-1,-9
1528441743493548,0,5,1,9,16,4,7,12
1528441743493548,1,-11,-20,-15,-22,-19,-18,-8
1528441743508512,-1,-1,1,8,16,16,28,10
1528441743508512,4,-5,-7,3,52,24,3,-1
1528441743523443,-12,-14,-18,-10,-40,-20,-14,-8
1528441743523443,5,4,6,11,26,5,13,10
1528441743530448,0,-6,-27,9,5,6,0,1
1528441743530448,0,3,-5,3,46,19,12,2
1528441743538430,1,2,-6,-8,-15,-7,1,0
1528441743538430,6,6,-2,-1,-27,-10,-3,-1
1528441743553390,-7,-3,-6,-13,8,-1,-7,-9
1528441743553390,1,-3,-4,0,-23,-5,-1,1
1528441743568350,-1,0,0,1,13,3,7,9
1528441743568350,3,-3,-3,-16,-28,-10,-1,0
1528441743575332,-2,1,2,-24,-16,-12,-4,-6
1528441743575332,-1,0,8,11,-20,-8,6,4
1528441743590237,4,3,14,37,69,35,5,4
1528441743590237,1,-2,-10,-6,-21,-3,1,-3
1528441743598214,-3,-1,-4,-11,-23,-11,-6,-4
1528441743598214,-1,-2,2,5,0,-5,0,0
1528441743605244,-2,-1,1,12,12,6,0,3
1528441743605244,4,0,3,3,-6,-2,5,8
1528441743620162,-8,-1,0,-7,-3,-6,-6,-17
1528441743620162,1,-5,-8,-12,-19,-1,2,1
1528441743628297,2,3,10,10,14,0,-2,-2
1528441743628297,-1,-1,2,4,4,-3,0,-1
1528441743643126,2,0,0,-4,-5,0,2,10
1528441743643126,0,1,4,-1,-7,-7,-3,-2
1528441743651199,-4,-3,7,-3,-5,0,1,-1
1528441743651199,0,2,-1,3,4,3,0,1
1528441743658055,-8,-6,-1,-8,-7,-12,-28,-13
1528441743658055,7,3,1,4,6,9,23,15
1528441743665404,-1,4,7,1,1,4,15,4
1528441743665404,-2,-2,3,-1,0,7,6,0
1528441743688336,-6,-10,-3,-7,-11,-9,-8,-7
1528441743688336,-5,0,-5,-1,5,-1,-4,-5
1528441743703481,3,6,-5,-6,-7,-5,-7,4
1528441743703481,-2,5,2,-3,-4,0,8,0
1528441743710602,0,-7,-8,-6,-2,2,2,0
1528441743710602,0,-2,-6,4,7,1,0,-1
1528441743725423,3,1,-4,3,5,2,6,11
1528441743725423,-5,-5,-4,-11,-4,-6,-10,-5
1528441743740380,-4,-2,-8,3,5,1,1,-1
1528441743740380,1,0,-2,-9,-10,-6,-3,-1
1528441743755471,-2,-1,-1,4,10,9,8,1
1528441743755471,-3,-6,-6,1,-2,-6,-13,-7
1528441743763694,3,4,0,-3,-3,2,12,9
1528441743763694,-1,1,7,17,8,7,2,0
1528441743778688,4,4,9,5,0,2,1,3
1528441743778688,-2,-3,-2,-2,1,-1,-2,-1
1528441743793651,-3,-3,1,-3,-5,-3,-1,-8
1528441743793651,-1,-1,0,-1,0,-2,-4,-4
1528441743800635,-2,2,5,-1,-3,-3,1,1
1528441743800635,-3,-1,-2,-3,-1,-1,0,-3
1528441743815437,0,-3,-9,-4,0,2,2,1
1528441743815437,-1,2,1,-3,-5,-3,0,-2
1528441743823415,0,-1,-3,1,-3,-2,1,0
1528441743823415,0,-3,-2,4,3,4,-1,-2
1528441743838532,-1,-3,-5,-3,-4,-2,0,-1
1528441743838532,-4,-1,-5,-3,1,-1,-3,-1
1528441743853654,-3,-1,1,-1,-2,-2,0,0
1528441743853654,-3,-2,0,2,1,2,0,0
1528441743860652,-1,2,1,-1,-3,-2,0,0
1528441743860652,2,1,3,-1,-4,-1,-4,-3
1528441743875590,-1,-3,-2,1,2,1,3,1
1528441743875590,-2,-1,-3,0,0,0,1,0
1528441743882950,-3,-2,-2,-1,-1,-3,-3,-3
1528441743882950,-2,-2,2,-1,-1,-5,-8,-6
1528441743897924,3,1,-2,2,2,13,38,7
1528441743897924,0,-2,-8,-1,-1,2,7,6
1528441743912863,-3,-1,1,-2,-5,-6,-10,-6
1528441743912863,-1,-2,1,-1,-1,2,7,1
1528441743920838,3,2,-2,0,2,0,-1,7
1528441743920838,0,-1,-3,-3,-4,-7,-12,-6
1528441743935798,-2,-1,2,-3,-2,-1,3,-4
1528441743935798,-1,0,0,-2,-1,-4,1,-1
1528441743943727,-5,-1,-1,-1,-2,-6,-17,-10
1528441743943727,0,1,1,1,3,6,7,1
1528441743958021,1,0,1,0,-1,-3,-7,0
1528441743958021,-2,-2,4,1,0,6,-1,-4
1528441743966195,-2,-4,3,-2,-2,-3,-10,-6
1528441743966195,-2,-3,6,-2,-5,-9,-10,-1
1528441743981158,-1,-1,7,0,0,0,0,0
1528441743981158,-2,-3,-11,-3,-2,-4,-5,-7
1528441743996117,-2,-2,-11,-1,-2,-1,-4,0
1528441743996117,1,1,-5,0,1,1,8,3
1528441744011098,-5,-5,-14,-2,-3,-8,-20,-8
1528441744011098,0,0,-6,-3,-2,-2,-1,1
1528441744025902,-1,4,-9,-2,-2,-2,-3,-3
1528441744025902,1,7,1,-2,-2,-1,-3,2
1528441744033023,-1,5,3,-1,-2,-4,-3,-5
1528441744033023,-1,2,1,0,-2,-3,-1,0
1528441744048077,3,-2,5,3,6,7,3,4
1528441744048077,2,-3,5,1,-2,2,15,8
1528441744063061,-1,-5,-11,-1,-1,3,15,6
1528441744063061,-2,-4,-13,0,-2,-3,-8,-2
1528441744078109,0,0,-13,-1,-2,-2,4,3
1528441744078109,-2,-2,-14,0,1,4,-4,-4
1528441744086087,-4,1,-3,-1,-6,-2,-5,-5
1528441744086087,-1,1,1,-2,-1,2,0,5
1528441744108044,-1,18,11,-3,1,6,2,-2
1528441744108044,-1,14,11,5,10,10,1,-1
1528441744123343,0,8,15,0,2,4,-2,-1
1528441744123343,0,-6,4,-3,-6,-7,2,0
1528441744131217,-1,-16,1,-2,-6,-10,-7,-3
1528441744131217,-2,-18,6,1,-6,-5,1,-2
1528441744145451,0,-13,4,-3,2,0,-3,-3
1528441744145451,-1,-10,4,2,4,0,-1,-2
1528441744153432,-1,-14,-14,2,-1,0,-9,0
1528441744153432,0,-7,-14,-11,-7,-4,-3,2
1528441744160530,0,8,-31,-34,-4,-2,-3,-3
1528441744160530,-2,25,13,1,-2,-3,-5,-3
1528441744175792,-3,31,29,-4,1,2,2,0
1528441744175792,0,39,55,4,-5,-3,-2,0
1528441744183711,-1,30,44,9,4,-3,-4,-1
1528441744183711,-1,9,27,-1,3,7,5,-4
1528441744198713,-2,-13,27,2,-1,1,1,1
1528441744198713,0,-23,26,2,7,5,4,0
1528441744205791,-1,-30,-9,9,5,2,2,1
1528441744205791,-2,-28,-30,-7,-3,-2,-1,-3
1528441744220771,-1,-16,-34,-3,-6,-6,-1,-2
1528441744220771,-2,-13,-27,-2,1,-2,-2,-4
1528441744235731,-1,-7,-14,14,1,-1,-3,-1
1528441744235731,-1,-3,-16,-4,3,-2,1,-1
1528441744243580,-4,-10,-29,-24,-10,-2,-1,0
1528441744243580,-1,-1,7,21,4,0,1,0
1528441744258671,-3,-3,-16,-29,-5,-2,-2,-2
1528441744258671,-1,1,-1,14,-6,-6,-4,-1
1528441744265543,2,9,26,13,11,6,3,2
1528441744265543,0,3,18,-15,-6,2,0,0
1528441744280822,0,1,17,-7,-3,-6,0,0
1528441744280822,-1,0,-5,13,6,0,-1,-4
1528441744295953,0,2,-5,-13,-3,-1,-2,-3
1528441744295953,-2,0,-10,-4,11,5,2,-2
1528441744303035,-2,0,-6,18,-3,-3,-2,-2
1528441744303035,-1,-2,-9,-5,-7,-4,-3,-1
1528441744318717,-1,-3,-4,-4,-14,-6,-2,0
1528441744318717,0,-1,-7,-10,13,4,1,-1
1528441744325931,-2,-1,3,16,0,0,-2,-3
1528441744325931,-1,0,0,-6,2,-1,0,-2
1528441744340964,-3,-2,-5,-6,-3,-1,1,-1
1528441744340964,0,1,4,1,-3,-1,-2,-2
1528441744355762,-2,0,-10,-6,1,0,-1,-2
1528441744355762,0,0,-6,-2,-5,-2,-3,0
1528441744362753,0,2,2,1,1,-1,-1,-2
1528441744362753,-2,-3,-8,-7,-4,-3,-1,-1
1528441744393661,0,1,2,2,2,1,0,0
1528441744393661,-1,0,3,-11,-2,-2,-2,-2
1528441744400799,-1,2,2,-4,-2,0,0,0
1528441744400799,0,-1,-5,-4,0,0,-3,-1
1528441744415761,1,1,3,-3,-3,-2,-1,-1
1528441744415761,-2,-1,0,2,-2,-2,-3,-2
1528441744430896,-2,0,0,0,0,-1,-1,-1
1528441744430896,-1,-2,-8,-5,-7,-2,-1,-2
1528441744445716,0,-1,-3,1,0,0,0,-1
1528441744445716,0,1,-5,-1,-2,-2,-2,0
1528441744460912,-2,-1,-1,-1,-1,-2,-3,0
1528441744460912,0,-1,-1,-2,-1,-2,-3,0
1528441744475988,0,-1,-1,3,0,-1,-2,-2
1528441744475988,0,-1,0,-1,-3,-2,-1,0
1528441744483152,-1,1,-1,-4,-1,0,-1,0
1528441744483152,0,-1,-1,-2,0,-1,1,0
1528441744498115,-1,-1,-1,-1,0,-1,0,-1
1528441744498115,-1,-2,0,-3,-3,-2,-2,0
1528441744505097,0,-1,0,-2,-2,-2,-1,1
1528441744505097,-1,1,0,-2,0,-2,-3,0
1528441744521051,-3,-2,0,1,-2,-2,1,-1
1528441744521051,-2,-2,1,0,-2,0,1,-2
1528441744536014,-1,-2,-1,-3,-1,-1,-2,-1
1528441744536014,1,0,0,-2,0,0,-1,-1
1528441744542995,-1,0,0,-1,-2,0,-2,0
1528441744542995,-1,0,0,-1,-3,-2,0,-1
1528441744558088,-2,0,-1,-1,0,-1,-2,-1
1528441744558088,-3,-3,-4,-4,-2,-1,0,-1
1528441744565934,1,-1,0,-2,1,-1,0,-1
1528441744565934,-1,-1,0,-2,-3,-1,-2,0
1528441744580894,-2,-1,0,0,1,-3,0,-1
1528441744580894,-1,-2,0,-1,1,-1,1,0
1528441744596023,0,1,0,1,0,-1,-2,-3
1528441744596023,0,1,0,0,-1,-1,-3,0
1528441744603005,0,0,-1,-2,-2,0,-2,-2
1528441744603005,1,0,0,-1,0,-2,-2,0
1528441744617968,-2,-1,0,-2,-1,-1,0,-2
1528441744617968,0,-2,-1,-1,-1,0,-1,-3
1528441744625946,-2,-1,0,-2,-2,-1,-1,-1
1528441744625946,-2,0,1,1,-1,-1,-1,-1
1528441744640906,-2,-1,-3,0,-1,0,0,1
1528441744640906,-1,-2,0,-1,0,-1,1,-1
1528441744655864,-1,0,-1,0,-1,0,0,1
1528441744655864,-2,0,0,0,-3,-2,-1,1
1528441744662847,0,-1,1,-1,-1,1,-2,-1
1528441744662847,-1,-1,-3,-3,-2,-2,-2,-2
1528441744677807,-2,-1,-2,-2,0,1,-1,-2
1528441744677807,0,-2,-1,-2,-1,0,-2,-1
1528441744685786,-1,-2,-1,0,-2,-1,0,-3
1528441744685786,-4,-2,-2,-1,0,0,-1,-1
1528441744700746,-1,0,0,0,0,-2,1,-2
1528441744700746,0,-1,-3,-2,-2,-1,-1,-1
1528441744715734,0,-2,-2,-1,-2,-1,-1,-1
1528441744715734,0,0,-1,1,0,-3,-1,-2
1528441744722879,0,-1,0,-1,-1,-1,-1,-1
1528441744722879,-2,-1,0,1,-1,-2,-1,-1
1528441744738029,-1,-1,-1,-1,-1,-1,-1,0
1528441744738029,0,-2,-2,1,-1,-1,-1,0
1528441744746163,-1,0,-1,-1,-1,-2,-3,0
1528441744746163,1,0,0,-1,-3,-1,0,0
1528441744761116,-1,-2,-2,0,0,0,-2,-2
1528441744761116,-1,-2,-3,0,-1,-1,-2,-1
1528441744776073,-2,1,-1,-1,-1,-1,0,-1
1528441744776073,-3,-3,-1,0,-1,2,1,-2
1528441744783057,-2,-3,-3,-4,-2,0,0,-3
1528441744783057,-1,-1,2,-2,1,0,-2,-1
1528441744798017,-2,-2,-2,0,-1,-4,-2,-1
1528441744798017,0,-1,-1,-1,-1,0,-2,-1
1528441744805995,-2,-1,0,-1,-1,-3,-1,-2
1528441744805995,0,0,-1,-2,-1,-1,0,-2
1528441744820984,-1,-1,-1,0,-1,0,-1,1
1528441744820984,1,-2,0,0,-1,-1,-2,0
1528441744835695,-1,0,-1,-2,-1,-1,-2,0
1528441744835695,-2,0,-1,-1,-1,-1,-1,-2
1528441744843691,-1,-1,-1,-1,0,0,-1,-1
1528441744843691,-2,-2,-2,0,-1,-2,-1,-1
1528441744857637,0,0,-1,-1,0,-1,-1,-1
1528441744857637,0,1,1,0,0,-2,0,0
1528441744865616,0,0,-1,0,0,-1,0,-1
1528441744865616,-3,-2,-2,-1,-1,-1,1,0
1528441744880667,-1,-1,-3,-2,0,-2,-3,0
1528441744880667,0,-2,-2,-1,-1,0,0,0
1528441744895538,-1,-1,1,2,0,-2,-3,0
1528441744895538,-1,-3,0,0,-3,-2,-1,0
1528441744903649,0,1,2,0,-1,-2,-2,-2
1528441744903649,-2,-3,-5,-1,-2,0,-2,-2
1528441744918478,-2,-1,-1,-1,0,0,-2,0
1528441744918478,-3,-1,-3,-1,-1,-1,-1,0
1528441744925456,-3,-1,-1,-4,-2,-1,1,-2
1528441744925456,-2,0,-1,-2,-1,-2,0,-3
1528441744940755,1,0,-1,0,-2,1,0,-2
1528441744940755,1,-2,-2,0,-1,-1,-1,0
1528441744948720,0,-1,-1,-1,-1,-1,0,-1
1528441744948720,-3,0,0,-1,-1,-2,0,-1
1528441744962684,-1,-1,-1,-2,-1,0,1,-2
1528441744962684,-1,-1,1,0,1,-1,-2,0
1528441744977648,1,-1,-2,-2,0,-2,-1,0
1528441744977648,-2,-1,-2,-2,-1,-1,0,0
1528441744985994,-1,-2,-2,-1,-2,-1,-1,-1
1528441744985994,0,1,0,-2,-2,0,-2,0
1528441745000794,-3,-3,1,-2,0,0,-1,-2
1528441745000794,-1,-1,-1,-2,-3,-1,-1,-1
1528441745007770,-1,0,-2,-1,-1,-1,-1,-1
1528441745007770,-2,0,0,-2,-1,0,-2,0
1528441745022747,-1,-1,0,0,-2,-1,-1,1
1528441745022747,-1,-3,-1,-1,-1,-1,-2,-1
1528441745037689,-2,0,-1,-3,0,-1,-1,-2
1528441745037689,-1,0,-2,-2,0,-1,0,-1
1528441745045667,-1,1,-2,0,0,-2,1,-1
1528441745045667,0,0,-3,-1,-2,0,-1,-1
1528441745060629,-1,-2,0,-1,-1,0,1,-1
1528441745060629,-1,-1,2,-1,-1,0,-3,-1
1528441745068662,-2,-2,-3,-2,-2,-1,0,-1
1528441745068662,1,-2,-2,0,-1,-1,-3,0
1528441745082880,-1,-2,0,-3,-2,-1,0,0
1528441745082880,0,0,-1,-1,-1,-2,0,-2
1528441745097985,-1,-1,-1,0,-2,-1,-3,-1
1528441745097985,-1,-2,-2,0,0,-1,-3,-2
1528441745105118,-2,-1,-1,-2,-1,0,-2,-1
1528441745105118,-2,-1,2,0,-1,-1,0,-2
1528441745128705,-2,-1,0,0,-2,0,1,-1
1528441745128705,-2,-2,-2,1,-2,-2,0,-1
1528441745135688,-2,-2,-2,2,0,-1,-1,0
1528441745135688,0,-3,-1,0,-1,0,-1,0
1528441745150660,-1,1,0,-1,-2,-2,-1,-2
1528441745150660,-2,0,-1,-1,-3,-3,0,0
1528441745165745,-1,0,-1,0,0,-1,-2,-2
1528441745165745,-1,0,-1,-1,-2,-1,-1,-1
1528441745172776,-1,-1,0,-2,1,-2,-1,-2
1528441745172776,-1,-1,-4,-2,-2,-1,0,0
1528441745180865,0,-2,-1,-1,0,1,-2,-1
1528441745180865,0,-1,-2,-1,-1,-1,0,-1
1528441745195825,0,-1,-1,-2,0,0,0,-2
1528441745195825,0,0,-2,0,-1,0,-1,-2
1528441745203695,0,-1,-2,-1,-1,-1,0,0
1528441745203695,-1,-3,-1,-1,-2,-2,-1,-1
