timestamp,emg1,emg2,emg3,emg4,emg5,emg6,emg7,emg8
1528879367201462,-3,-1,3,-2,-2,-1,-1,-1
1528879367201462,0,-1,-1,-2,2,-3,-1,-1
1528879367206503,-2,-1,-5,-2,-1,0,-1,-1
1528879367206503,-2,-1,4,1,-4,2,-1,-1
1528879367207444,-1,-1,-1,0,1,-1,0,-2
1528879367207444,0,-2,-8,-3,-2,-1,-3,-1
1528879367209440,-1,0,2,-3,-2,1,0,-1
1528879367209440,0,1,0,2,0,-5,-1,1
1528879367219414,1,0,1,-1,2,-1,-1,0
1528879367219414,-3,-6,-6,-6,-6,-3,-1,-3
1528879367231382,0,-3,-7,-8,-7,-3,-2,-2
1528879367231382,0,2,4,-3,2,2,0,-3
1528879367234418,3,5,14,13,10,3,0,1
1528879367234418,-2,-4,4,17,6,2,0,-1
1528879367252377,-1,5,-26,-6,-3,-2,-1,-1
1528879367252377,-2,-6,-1,-4,-1,1,0,-2
1528879367258310,-1,-1,-7,0,-1,-1,-1,1
1528879367258310,0,3,7,-3,-1,0,1,-1
1528879367280251,1,-7,6,-2,-3,-3,-3,1
1528879367280251,-3,-2,-6,-12,-8,-3,0,-2
1528879367281248,-2,5,1,-9,-8,-2,-2,-2
1528879367281248,-2,-14,-23,-2,-3,-4,-2,0
1528879367327126,-1,5,11,4,2,-2,0,1
1528879367327126,2,12,-4,1,4,1,0,0
1528879367328122,-2,-21,4,-9,-6,0,0,0
1528879367328122,-7,-11,-34,-12,-12,-7,-4,-5
1528879367329119,-3,-14,16,3,-3,-2,-2,1
1528879367329119,-3,-2,-31,-12,-1,0,-3,-2
1528879367333108,0,19,50,23,17,2,3,-1
1528879367333108,2,0,-4,13,13,4,-1,2
1528879367339095,3,-3,-20,-3,-7,-2,0,-1
1528879367339095,-2,-3,12,-12,-8,-1,-4,1
1528879367349068,-2,-8,-18,-10,-12,-4,-2,-5
1528879367349068,0,8,6,-3,4,1,-1,-2
1528879367355049,-2,-2,1,-3,-3,0,-3,-3
1528879367355049,6,-9,6,10,-7,-6,0,-1
1528879367371007,-3,2,-22,-13,8,1,-3,-2
1528879367371007,1,-7,10,2,-1,-3,-3,0
1528879367376992,1,8,-5,-3,0,3,-2,0
1528879367376992,-6,-2,4,-7,-14,1,1,-3
1528879367400926,0,-1,-13,16,1,0,1,0
1528879367400926,-3,3,3,0,-1,-12,-3,-2
1528879367401924,-6,-10,-22,-12,-6,3,-1,-6
1528879367401924,-2,2,10,-26,-4,-7,-1,0
1528879367414889,0,5,2,6,3,4,1,0
1528879367414889,0,7,14,13,24,1,-1,3
1528879367415887,6,3,8,5,-7,2,0,2
1528879367415887,-4,0,-5,15,12,3,2,-3
1528879367437829,-2,-2,7,5,-8,-4,-1,-3
1528879367437829,1,-3,-1,-7,7,1,1,-1
1528879367438826,0,-1,-8,2,-19,-7,-3,-1
1528879367438826,-3,-9,-18,-18,-10,-3,-4,-5
1528879367459814,1,-3,4,0,4,-18,-1,2
1528879367459814,-3,4,26,4,2,24,4,-2
1528879367460767,-2,-1,3,26,42,4,1,0
1528879367460767,-2,-1,13,-4,-13,-1,-2,0
1528879367475726,0,-4,-41,-23,-45,-10,-2,-1
1528879367475726,-1,-7,-3,-11,16,-10,-4,-1
1528879367475726,-1,9,14,-1,2,-4,2,0
1528879367475726,2,-1,-3,14,-7,3,1,2
1528879367497672,-4,-7,2,-7,-4,7,-3,-3
1528879367497672,6,-8,-10,-15,-13,-8,0,1
1528879367498666,3,7,7,4,12,16,2,2
1528879367498666,0,0,4,16,-22,-9,3,-1
1528879367520609,-2,-1,2,4,41,7,-2,0
1528879367520609,0,1,-27,-6,-25,-5,-1,-2
1528879367520609,-2,-5,19,-15,-22,-8,-2,-1
1528879367520609,-2,0,-33,-7,1,-11,-5,-1
1528879367534571,2,8,5,-4,-13,-2,0,2
1528879367534571,-4,-7,4,-8,16,12,2,-2
1528879367541552,8,1,-5,22,20,0,2,4
1528879367541552,-3,6,25,24,11,16,-1,-1
1528879367557510,-2,-7,-29,-20,-24,-16,-3,1
1528879367557510,-3,0,5,-16,-35,-10,-5,-3
1528879367558507,-7,-14,-28,-30,-29,-8,-7,-6
1528879367558507,1,-3,7,3,46,31,6,1
1528879367580447,1,2,5,5,-27,-16,-8,-4
1528879367580447,3,8,17,30,40,8,0,2
1528879367581444,-1,0,-15,-15,-25,-13,0,-1
1528879367581444,-1,-2,17,-9,-9,-9,-6,-3
1528879367594409,1,9,23,17,17,23,7,1
1528879367594409,-4,-6,-37,-9,-33,-20,-3,-4
1528879367602388,-3,1,15,10,36,3,-2,-4
1528879367602388,-2,-12,-27,-17,-16,-15,-5,-1
1528879367617387,-3,2,20,-24,-32,1,-2,-3
1528879367617387,-1,-3,-6,10,13,1,2,0
1528879367618348,0,4,3,19,31,17,3,0
1528879367618348,3,-3,9,8,3,2,2,1
1528879367640315,-1,6,3,8,12,7,-1,-3
1528879367640315,-5,1,-1,-16,-21,-17,-6,1
1528879367641286,-7,-16,-4,-21,-18,3,-2,-6
1528879367641286,1,3,-10,7,14,-14,-2,0
1528879367654267,-10,-5,-9,1,4,-16,-3,-5
1528879367654267,-4,3,14,6,6,12,-3,-6
1528879367662230,0,6,13,-6,-11,6,4,2
1528879367662230,-4,-3,-12,7,-4,-6,-7,-3
1528879367678185,0,-2,-4,7,28,16,3,0
1528879367678185,0,-5,5,-7,-12,8,3,-1
1528879367678185,1,-1,3,5,-7,-9,-2,-2
1528879367678185,2,-4,-9,-11,-4,-9,-2,-1
1528879367700129,-1,-6,-15,-5,5,8,-3,2
1528879367700129,1,2,20,17,6,2,5,3
1528879367701127,-2,-3,-24,-16,-16,-13,-8,-5
1528879367701127,-3,1,8,2,5,11,-2,-5
1528879367715090,-1,-3,-1,-6,-2,-4,-5,-1
1528879367715090,-2,-5,-13,-6,-10,-13,-1,0
1528879367722070,-4,4,11,2,2,2,-2,-1
1528879367722070,0,3,4,1,0,-2,3,-1
1528879367738080,1,-6,-1,-3,-3,11,2,4
1528879367738080,-3,-1,0,7,3,-6,-5,-3
1528879367738080,0,5,-7,-5,-5,-12,0,1
1528879367738080,3,-1,10,-4,2,10,7,9
1528879367759981,3,-7,-15,3,4,-10,-21,-21
1528879367759981,-3,-21,-19,-6,-2,8,-1,3
1528879367760966,1,10,11,2,1,-4,2,-2
1528879367760966,0,-9,7,0,-4,3,5,1
1528879367774929,-4,4,-3,-5,-4,-7,3,-1
1528879367774929,0,8,-4,-5,-8,-12,-7,-9
1528879367781909,-2,-4,-1,4,4,6,0,0
1528879367781909,1,1,10,1,4,-2,-1,7
1528879367805844,2,5,12,9,7,9,13,14
1528879367805844,0,2,16,-2,1,7,-1,-2
1528879367806842,-5,1,-6,-5,-4,-7,0,0
1528879367806842,-5,-11,-4,-2,-3,3,1,-5
1528879367819807,1,2,-6,0,0,-16,-9,-5
1528879367819807,2,9,7,-1,-3,0,1,2
1528879367820818,3,-9,-9,0,1,7,-3,-1
1528879367820818,-2,9,-3,-1,-1,-9,-3,-2
1528879367834806,-2,-10,9,-2,0,5,2,-1
1528879367834806,1,-2,-17,-2,-3,11,2,3
1528879367841788,-3,-10,3,2,3,1,-4,-5
1528879367841788,-13,4,-32,-5,-5,-22,-2,-10
1528879367857713,-14,2,5,1,-1,8,8,0
1528879367857713,-3,6,-2,4,1,-16,-3,-16
1528879367858713,2,10,10,0,1,8,-3,25
1528879367858713,1,-18,-1,-3,-4,0,4,7
1528879367880645,1,7,-6,-4,-6,-24,-1,-5
1528879367880645,-4,-4,3,-5,-4,1,-2,4
1528879367880645,-2,5,-7,3,7,10,-7,-20
1528879367880645,-2,-6,-10,1,1,-5,3,5
1528879367894607,4,16,0,0,-2,-1,-5,-1
1528879367894607,-2,-32,-11,-3,0,2,0,-5
1528879367901588,2,5,1,-2,-2,6,2,0
1528879367901588,-2,1,0,0,-1,-6,-8,-4
1528879367917547,-4,1,-1,-2,1,22,2,-2
1528879367917547,-10,3,3,-2,-3,0,0,-7
1528879367918545,8,-1,-13,-5,-6,-24,-3,-3
1528879367918545,0,6,7,0,1,7,-2,3
1528879367940486,-2,-3,-2,2,0,-14,0,-2
1528879367940486,1,2,14,0,1,10,0,0
1528879367941501,2,-7,-8,-2,2,26,12,10
1528879367941501,2,4,19,-5,-8,-43,-18,-11
1528879367962608,-8,-14,-45,-5,1,13,-2,-4
1528879367962608,5,13,3,-2,-5,-16,5,2
1528879367963607,-1,-17,-27,-7,-8,-23,-2,13
1528879367963607,9,2,-5,2,3,16,2,-3
1528879367977568,7,5,38,7,0,0,4,14
1528879367977568,-1,-11,-12,-1,3,7,3,-3
1528879367978565,-4,3,9,-5,-6,-12,-4,-7
1528879367978565,3,4,12,3,6,19,1,1
1528879368000555,3,-5,-2,2,2,13,8,5
1528879368000555,1,4,2,2,-4,-21,-3,0
1528879368000555,-1,-20,-8,-3,-1,3,7,12
1528879368000555,-1,1,-2,-1,-4,-17,-8,-5
1528879368022482,-8,-6,6,-3,-4,-15,-7,-7
1528879368022482,-2,6,-3,-3,-2,35,5,3
1528879368023446,1,6,8,4,3,1,8,-11
1528879368023446,-7,-3,-10,-2,-3,-22,3,28
1528879368037445,2,-8,-6,-2,-3,9,-5,0
1528879368037445,4,9,13,0,4,1,-8,-7
1528879368038407,-10,-7,-12,-4,-6,-29,-21,-15
1528879368038407,-1,-3,4,-11,-8,16,24,15
1528879368060349,0,-5,-13,-5,-6,-1,-10,5
1528879368060349,1,2,11,18,3,8,3,-3
1528879368061346,-2,-1,3,-2,14,6,-5,-14
1528879368061346,6,12,11,11,15,37,23,13
1528879368082295,-5,-5,13,-6,-13,-56,-42,-40
1528879368082295,-2,-7,-17,-17,-18,-8,-4,1
1528879368083292,-6,7,8,-6,-14,-6,-6,-5
1528879368083292,-3,-1,-17,7,4,18,-8,-17
1528879368097249,5,-6,4,3,26,21,21,23
1528879368097249,-3,-7,-19,5,8,1,1,4
1528879368098247,3,9,5,9,8,2,-3,-1
1528879368098247,-1,-4,-1,-3,-9,-9,-3,-1
1528879368120188,2,1,0,-1,-12,-3,6,4
1528879368120188,3,0,13,-13,-17,-16,-6,-2
1528879368121185,5,27,5,-3,-6,1,3,8
1528879368121185,-5,17,15,-5,-6,-5,-11,-15
1528879368143193,-23,-34,-26,-1,6,5,1,-11
1528879368143193,0,5,-28,-5,7,5,0,2
1528879368143193,-1,-11,-7,-4,-9,-1,1,2
1528879368143193,4,14,4,13,10,-1,-3,-6
1528879368158138,6,11,34,4,4,1,1,1
1528879368158138,-4,-9,6,2,0,-5,3,5
1528879368159083,-2,-18,-27,-9,-6,-3,2,1
1528879368159083,-10,11,12,-6,-1,-5,-7,-9
1528879368180183,-1,4,-20,3,0,4,-1,-5
1528879368180183,1,-1,-1,3,3,-3,-1,1
1528879368181025,0,-6,21,9,-2,-2,-4,-3
1528879368181025,-5,-6,-21,-4,2,6,-1,-3
1528879368202998,6,11,9,-7,-7,-2,3,6
1528879368202998,-2,-1,-4,-6,-5,-6,-3,0
1528879368203985,-4,-3,-23,2,1,1,-1,-4
1528879368203985,2,-11,2,1,-5,-4,-3,1
1528879368217926,7,0,-5,-6,5,1,3,3
1528879368217926,1,-3,-7,-3,3,-1,0,-2
1528879368218946,-4,-1,-7,0,-4,-1,0,3
1528879368218946,1,-19,-16,-16,-5,-2,-3,-5
1528879368239878,1,0,-2,11,3,2,3,-1
1528879368239878,3,8,16,7,10,1,3,2
1528879368240864,-2,2,19,10,-2,-3,0,-2
1528879368240864,0,-5,-12,-10,-5,-2,-2,-4
1528879368262835,-4,-1,-7,-13,-13,-4,-4,-3
1528879368262835,-1,4,15,7,4,1,1,1
1528879368263830,-4,-5,20,2,6,1,0,-1
1528879368263830,-2,-5,-19,-8,-12,-5,-7,-4
1528879368277818,3,3,2,-4,-2,1,4,5
1528879368277818,-3,-1,9,1,0,3,-1,-6
1528879368278816,-2,-2,4,16,15,4,9,0
1528879368278816,-4,-4,2,-24,-12,-3,-29,-22
1528879368299759,1,3,16,-10,-20,-17,0,-1
1528879368299759,-4,-5,-1,12,16,6,0,-1
1528879368307686,0,2,12,5,12,11,4,0
1528879368307686,3,8,2,20,8,1,8,5
1528879368322703,-1,-4,-9,-8,-12,-11,-3,2
1528879368322703,-4,-6,-12,-22,-30,-13,-8,-5
1528879368323643,-2,-9,-53,-30,-11,-2,-3,-2
1528879368323643,0,5,13,12,15,8,7,2
1528879368345640,4,15,19,27,23,13,-1,1
1528879368345640,2,-5,15,10,0,-4,7,6
1528879368346583,0,-1,-8,-9,-12,-6,-7,-4
1528879368346583,-5,-10,-3,-9,-12,-3,1,-3
1528879368359602,1,-5,0,4,10,17,3,-1
1528879368359602,0,-3,-11,5,5,-19,-3,0
1528879368367581,-8,4,1,-6,-9,-6,-2,-3
1528879368367581,-2,-1,6,-10,-10,-11,-3,-1
1528879368382544,-1,-13,-9,0,2,14,2,-2
1528879368382544,2,7,-16,3,6,19,5,2
1528879368383495,6,7,21,5,-3,-19,-7,3
1528879368383495,-1,-10,-5,-6,-6,-6,-2,-6
1528879368406423,-1,5,22,3,4,2,1,-1
1528879368406423,-5,-4,-16,1,-2,3,-2,-3
1528879368407473,4,0,-17,4,5,2,6,3
1528879368407473,1,0,2,1,1,3,4,7
1528879368444379,-2,-10,-5,-17,-17,-13,-8,-6
1528879368444379,-1,2,5,-2,1,12,1,-3
1528879368445320,1,-2,19,9,10,4,1,1
1528879368445320,1,3,-23,9,6,-11,0,2
1528879368447314,-5,-4,-9,-7,-9,-10,-2,-2
1528879368447314,-3,-1,-8,-9,-5,6,-2,0
1528879368450362,-6,-8,-21,-8,-6,-3,-7,-6
1528879368450362,-2,4,18,14,10,0,5,0
1528879368481268,3,0,4,1,-4,-7,-1,3
1528879368481268,-8,0,-9,-13,-7,-9,-7,-5
1528879368481268,2,-2,-4,-4,-2,9,4,-3
1528879368481268,3,-5,-23,0,-2,-3,6,15
1528879368496182,-4,0,23,-6,-5,-8,-24,-31
1528879368496182,-3,-2,-6,6,1,-2,-4,-1
1528879368497180,-1,0,8,-3,-3,12,0,-2
1528879368497180,-1,-2,9,-5,-4,-19,3,3
1528879368502219,-4,0,-5,5,9,10,6,5
1528879368502219,0,-3,-19,-1,-2,-8,0,2
1528879368503201,0,0,15,-6,-2,0,-5,-3
1528879368503201,1,-1,-2,0,-2,5,-6,-3
1528879368526326,-7,-3,-18,0,3,7,8,4
1528879368526326,3,-2,3,1,0,-15,-2,-1
1528879368528159,-2,-2,4,4,1,-6,-3,1
1528879368528159,-2,-5,-16,-7,-4,5,0,-4
1528879368548335,5,-2,-7,-1,-2,-4,-1,3
1528879368548335,-1,2,2,-2,-2,1,3,2
1528879368550167,-2,1,19,-8,-6,-1,-3,-2
1528879368550167,-2,-2,9,4,4,12,2,2
1528879368562291,-3,5,-19,3,-1,-3,-2,-10
1528879368562291,5,-4,2,4,1,-4,1,0
1528879368571622,2,3,9,2,0,1,6,8
1528879368571622,-4,-3,4,-1,-3,-8,-21,-29
1528879368585415,6,-12,-30,-9,-9,-12,2,11
1528879368585415,3,1,42,-2,-3,3,-2,-4
1528879368587409,-4,-4,-12,10,10,5,3,-4
1528879368587409,-2,2,-1,0,0,13,6,7
1528879368608354,-1,0,-1,5,3,-7,-5,3
1528879368608354,2,2,-3,-8,-7,-13,-6,-2
1528879368610347,-2,-2,-2,-10,-11,-9,-7,-4
1528879368610347,2,-5,4,7,13,11,7,0
1528879368630335,-2,0,-4,0,-1,-1,1,0
1528879368630335,-4,-4,0,0,0,10,1,2
1528879368637437,-2,6,3,4,3,-7,-1,0
1528879368637437,-2,2,1,-5,-3,-1,-5,-1
1528879368646463,-3,3,5,1,-1,-3,3,1
1528879368646463,-3,-2,2,-2,-1,5,-5,-1
1528879368647455,4,-7,-6,-7,-3,0,1,-1
1528879368647455,0,-2,-16,-1,-4,-6,-4,-1
1528879368667020,0,6,27,6,6,6,2,0
1528879368667020,-1,-5,-5,-6,-4,-2,0,5
1528879368675995,-4,-7,-16,-1,-4,0,-7,-11
1528879368675995,4,2,-2,1,5,1,6,7
1528879368682101,-3,2,7,6,-1,0,-1,0
1528879368682101,3,-3,-7,-5,-4,-5,0,1
1528879368690959,-5,5,10,3,3,2,1,2
1528879368690959,-3,-9,-21,-7,-9,-7,-4,-4
1528879368705109,-3,5,20,0,-1,-1,-2,2
1528879368705109,1,5,6,0,1,0,2,-2
1528879368714128,1,-2,-23,-6,-5,-5,-2,0
1528879368714128,0,-5,9,-2,0,-2,-1,0
1528879368728056,-1,2,-1,-3,-4,-1,-3,-4
1528879368728056,-4,-1,6,4,0,13,1,-4
1528879368730473,-6,-1,-9,3,1,-12,0,-2
1528879368730473,-7,-4,8,-1,0,-1,-3,-2
1528879368742656,4,-6,-5,-5,-2,-2,1,2
1528879368742656,-3,-13,-26,-11,-8,-5,-3,-2
1528879368751603,4,4,11,7,6,7,0,-2
1528879368751603,1,4,5,1,-2,0,-5,1
1528879368765649,-1,0,-2,2,-2,0,2,1
1528879368765649,0,5,4,2,1,-5,-3,-2
1528879368767647,1,-4,0,-4,-2,-2,2,7
1528879368767647,-4,7,5,-1,-2,-1,-5,-12
1528879368788836,-1,-6,1,-3,-1,0,0,0
1528879368788836,-3,-9,-14,-1,3,-2,-4,-2
1528879368789828,0,-5,4,0,-1,3,1,1
1528879368789828,7,-3,-5,1,-2,3,1,4
1528879368802108,0,7,4,-5,-4,-9,1,-1
1528879368802108,-2,1,-3,3,-2,-9,-3,-6
1528879368811265,-1,-3,16,2,2,2,-2,-1
1528879368811265,1,3,4,-5,-3,-5,0,0
1528879368825766,-2,-3,-16,-2,-2,0,-3,-3
1528879368825766,0,0,-5,0,-2,0,0,2
1528879368827763,-1,2,0,-3,-3,-3,-3,-2
1528879368827763,-3,2,15,3,0,0,0,-1
1528879368848710,-2,-6,-16,-4,-4,1,0,0
1528879368848710,-1,0,11,-5,-4,-2,-1,1
1528879368849705,0,-1,-7,2,0,-1,0,-2
1528879368849705,-4,-3,-8,-2,-2,-6,0,-1
1528879368861675,0,5,11,-4,-5,2,-2,0
1528879368861675,-3,-8,-14,-1,1,-5,1,4
1528879368870788,-2,-1,5,1,-2,-2,-6,-14
1528879368870788,-3,-4,-2,2,1,2,1,1
1528879368885770,-2,-1,0,-4,1,2,-1,-1
1528879368885770,-3,7,-5,-4,-5,-10,2,0
1528879368887603,1,-5,-7,-6,-3,3,-1,2
1528879368887603,-2,-7,-3,-2,0,-3,-1,-2
1528879368908547,-1,-10,-19,3,4,3,-2,-2
1528879368908547,2,3,13,15,7,9,1,-1
1528879368910545,-1,0,-7,-4,-3,3,-1,1
1528879368910545,-1,0,-6,-4,-2,-11,-1,-1
1528879368921570,-4,-2,9,-8,-7,-2,-3,-3
1528879368921570,0,1,-8,-2,-4,-2,-3,-3
1528879368931486,-2,-3,-3,2,-1,-3,-1,1
1528879368931486,-1,-5,1,2,1,5,-1,-2
1528879368945448,0,2,2,3,3,-2,0,1
1528879368945448,-4,-6,0,-4,-2,1,-1,1
1528879368953427,-1,8,4,-3,1,-1,1,-2
1528879368953427,2,-2,-5,-5,-3,-6,-3,4
1528879368968528,-2,-1,-4,-3,-3,-4,0,-3
1528879368968528,2,-1,-7,-3,2,5,0,6
1528879368970382,6,-1,-1,8,3,-3,-4,-10
1528879368970382,-2,-1,5,2,1,10,0,1
1528879368982529,-4,-2,-7,-2,-5,-12,-4,-2
1528879368982529,-4,-6,-5,-14,-9,-6,-1,-4
1528879368991655,2,-5,-8,-8,-2,0,0,5
1528879368991655,-1,3,15,23,15,8,1,-4
1528879369005803,3,-1,-5,3,1,-1,-3,-1
1528879369005803,0,4,8,-3,-2,0,-1,-3
1528879369007655,-5,-5,-5,-9,-9,-8,-2,2
1528879369007655,-3,-2,-9,-14,-9,-4,-2,-5
1528879369028953,-2,1,5,0,3,3,1,2
1528879369028953,3,-3,8,15,10,5,0,-4
1528879369029819,-2,0,-1,-1,-1,5,1,0
1528879369029819,0,-4,-5,-3,-4,-11,1,6
1528879369042142,-1,-2,-19,-9,-4,-2,-3,-10
1528879369042142,0,1,0,-7,-5,-3,-1,0
1528879369050957,-3,0,4,-3,0,0,1,-1
1528879369050957,1,3,7,8,7,6,0,1
1528879369073112,-1,-1,5,9,6,4,4,2
1528879369073112,0,-2,-4,-3,-4,-6,-3,-2
1528879369075091,3,1,7,-7,-9,-3,-1,1
1528879369075091,-4,-4,-22,-14,-7,-3,-4,-7
1528879369088197,1,3,8,7,3,-1,1,2
1528879369088197,-2,-1,-11,13,10,6,0,-3
1528879369090050,2,2,12,-3,-5,-4,-1,1
1528879369090050,-3,-1,0,-9,-8,2,-3,0
1528879369102160,-4,-2,-5,-9,-7,-9,-4,-4
1528879369102160,-1,-4,-13,-6,-4,0,-1,-2
1528879369111008,-4,1,3,8,3,-4,-1,0
1528879369111008,-1,1,5,0,-3,-2,-3,-1
1528879369125098,0,-5,-6,0,2,2,1,0
1528879369125098,0,3,15,-1,1,-1,2,5
1528879369132078,-3,-3,-8,-1,-2,-3,-3,-10
1528879369132078,1,1,2,-3,-4,0,-1,0
1528879369148272,1,2,10,5,1,2,1,3
1528879369148272,-3,0,4,8,12,6,0,-5
1528879369150102,0,-1,-9,-5,-6,-1,1,2
1528879369150102,-5,-2,-4,-7,-6,-5,-2,-2
1528879369162228,1,-2,2,-6,2,2,0,-1
1528879369162228,3,5,-2,11,1,-5,1,0
1528879369171264,-4,-5,-11,1,-1,-1,-1,-1
1528879369171264,0,4,12,-6,-7,-5,0,-2
1528879369184385,-7,-6,-8,-2,0,1,-2,0
1528879369184385,-2,2,4,-1,-3,3,-2,-3
1528879369193325,-2,-7,-7,-6,-4,-5,-1,2
1528879369193325,0,0,-1,5,4,1,-3,-3
1528879369208305,1,1,0,3,4,-1,2,2
1528879369208305,2,-1,7,-3,-5,-5,-3,1
1528879369210166,1,-1,-4,-2,3,3,11,12
1528879369210166,-4,-1,3,-2,-1,-4,-20,-21
1528879369222272,0,0,-3,0,-4,-1,1,1
1528879369222272,-4,-8,-18,-8,-9,-5,-3,-2
1528879369239146,-3,-1,-3,-6,-3,-3,-1,0
1528879369239146,1,-1,2,4,4,1,6,5
1528879369245397,0,0,8,1,-3,-1,-3,-3
1528879369245397,-3,-4,3,-13,-8,-2,-3,-4
1528879369252603,0,2,12,9,8,5,2,1
1528879369252603,-3,-2,-18,8,10,1,4,2
1528879369268587,-2,-2,-4,10,3,2,-1,-5
1528879369268587,-1,3,5,-7,-5,-1,2,3
1528879369270575,-1,-2,1,-6,-5,-4,-6,-6
1528879369270575,-2,-4,-4,-10,-11,-6,1,1
1528879369281787,0,1,-6,-7,-5,-1,-3,0
1528879369281787,0,1,6,5,9,5,1,-3
1528879369291002,-3,-1,-3,9,7,3,-2,-4
1528879369291002,-1,-1,4,4,-1,-2,3,3
1528879369306138,-6,-2,-10,-9,-7,-3,-1,3
1528879369306138,1,1,0,-6,-10,-5,-4,-5
1528879369312138,-2,0,2,2,0,-2,-5,-5
1528879369312138,-1,-2,3,-6,2,2,4,-1
1528879369328217,-2,-3,9,3,3,1,0,2
1528879369328217,-1,-2,-13,2,-2,-3,-2,0
1528879369330072,2,1,3,4,-1,7,0,1
1528879369330072,1,1,-7,-2,-2,-10,-2,3
1528879369342372,0,1,1,10,13,5,1,-2
1528879369342372,-2,0,3,8,6,1,-1,-3
1528879369351577,-1,-2,-3,-10,-7,-2,-1,-2
1528879369351577,0,2,3,-8,-7,1,-1,-1
1528879369365541,0,0,-4,-12,-9,-5,-3,-2
1528879369365541,0,-4,1,-2,-5,-3,0,1
1528879369372522,-1,-1,-7,-1,-3,-3,0,2
1528879369372522,1,2,-1,1,1,6,-4,-5
1528879369388678,-1,-3,-8,-3,0,-9,0,-1
1528879369388678,1,1,8,10,6,2,0,-1
1528879369390516,-2,0,-5,-6,-6,-8,-1,1
1528879369390516,1,-4,-4,-3,-5,-1,0,3
1528879369411498,0,1,1,1,3,5,1,-4
1528879369411498,-3,-2,2,-2,-1,0,-1,1
1528879369412457,1,2,3,-2,3,-3,-1,1
1528879369412457,-3,-6,-6,7,1,-2,1,1
1528879369425255,2,3,5,0,1,-1,-1,1
1528879369425255,-2,-5,-7,4,5,0,1,-2
1528879369432239,2,0,-5,4,-1,1,-1,-3
1528879369432239,-2,-2,9,-6,1,1,-1,0
1528879369448353,-3,-4,-17,-6,-5,-3,-1,-1
1528879369448353,0,-3,-1,-11,-6,-3,-2,0
1528879369450191,-1,-1,-3,-2,-2,-3,-1,3
1528879369450191,-1,-2,0,-1,-3,-1,-2,-2
1528879369471464,-3,-3,3,-4,-4,-1,-1,-1
1528879369471464,-1,2,2,-3,2,0,-2,-4
1528879369472330,0,-4,-1,8,3,2,0,1
1528879369472330,0,0,-12,-1,-2,-1,1,1
1528879369484443,2,2,-1,1,-3,0,-2,0
1528879369484443,-4,-3,-2,-8,-3,-1,-5,-1
1528879369493334,-1,0,8,-4,4,0,-1,-1
1528879369493334,0,-2,-6,20,6,0,2,2
1528879369508234,0,0,5,-1,-4,-2,-3,-1
1528879369508234,0,0,-5,-6,-10,-4,0,1
1528879369510229,1,-1,-1,-6,-5,-3,-2,-3
1528879369510229,-4,-4,-6,-10,-3,-2,-2,-3
1528879369531233,-1,0,1,2,0,1,0,2
1528879369531233,-1,-2,3,3,5,3,1,-1
1528879369532185,-1,0,-2,5,2,0,-1,-2
1528879369532185,-2,0,5,-2,-4,-1,0,1
1528879369544299,-2,-6,-2,-4,-4,-2,2,2
1528879369544299,-1,-3,4,-6,-3,-4,-3,-6
1528879369553318,-2,-2,-14,0,-1,-1,-2,-5
1528879369553318,-3,-4,2,-3,-4,-1,0,1
1528879369568339,-3,-1,-2,2,6,1,-2,-2
1528879369568339,3,5,8,8,3,-1,3,4
1528879369570178,-6,-8,-7,-3,-2,0,-1,-4
1528879369570178,-2,0,0,-5,-2,-1,-2,-2
1528879369591279,-1,0,3,-6,-7,-3,-3,-2
1528879369591279,-2,-2,-7,-5,-5,0,0,2
1528879369593148,0,2,7,1,1,-1,-1,0
1528879369593148,0,2,-1,6,4,0,-1,0
1528879369605148,-2,-3,-11,-5,-4,-1,-1,0
1528879369605148,-5,-1,1,-3,-1,0,-2,-3
1528879369614148,0,-1,1,3,-1,-1,-1,-2
1528879369614148,1,1,1,-3,-2,0,0,1
1528879369628181,-2,-1,-2,2,-3,-2,-1,0
1528879369628181,0,0,0,0,-2,-1,0,0
1528879369630032,-3,2,1,-1,0,-1,-1,-1
1528879369630032,-2,-2,-4,-2,0,-2,-2,-2
1528879369651315,-2,-2,-3,-4,-2,-2,-2,-2
1528879369651315,-1,1,0,-3,-5,0,-2,0
1528879369653154,1,1,4,4,4,-1,0,-1
1528879369653154,1,0,5,5,0,1,1,-1
1528879369664141,-2,-2,-1,0,-2,-1,-2,-3
1528879369664141,0,0,-1,-1,-2,-2,0,-2
1528879369673186,-1,-1,2,-3,-5,-3,-1,-1
1528879369673186,0,3,-1,-2,0,0,-2,0
1528879369688491,-3,-2,-2,-2,1,-1,2,0
1528879369688491,1,1,-2,0,0,-2,0,-1
1528879369690323,0,-1,-3,-1,-1,2,-2,-3
1528879369690323,-2,-3,4,-1,1,0,1,0
1528879369711424,0,1,1,-1,-2,0,-1,-2
1528879369711424,0,-2,-2,-1,-3,0,1,3
1528879369713262,-2,-1,-1,-4,-3,-2,-2,1
1528879369713262,-1,-1,-1,-2,1,-2,-2,-1
1528879369724234,-1,-5,-2,0,0,0,-2,1
1528879369724234,-4,-4,0,2,0,-1,-1,-2
1528879369733323,0,0,0,-3,0,-1,0,1
1528879369733323,-1,-1,-2,-2,-1,-2,-3,-3
1528879369748309,0,0,-4,-1,0,0,1,-3
1528879369748309,-1,-2,-8,-2,-1,-2,-1,-2
1528879369750164,-1,-2,0,0,-2,-1,0,-1
1528879369750164,0,3,3,-1,-2,-1,-1,1
1528879369771506,2,2,2,1,-1,0,1,8
1528879369771506,-1,-3,-5,-3,-1,-2,-8,-12
1528879369772470,-2,0,-3,-4,0,-1,0,0
1528879369772470,1,-1,-1,0,0,1,0,1
1528879369784597,-2,0,1,0,1,-1,0,0
1528879369784597,0,1,-1,-1,-2,-1,1,5
1528879369793422,-2,-3,0,-1,-3,-2,-3,-1
1528879369793422,-2,-3,0,0,-1,-1,-1,-3
1528879369808534,-1,-2,-1,-1,-1,-1,-2,-3
1528879369808534,2,0,0,1,-1,0,0,0
1528879369810525,-2,0,-5,-1,-3,-1,-2,-3
1528879369810525,0,2,-1,1,0,-2,0,1
1528879369831489,-3,-4,-1,0,-1,-2,-1,-4
1528879369831489,-2,-2,-1,-1,0,-1,1,1
1528879369832490,-1,-3,0,0,-2,-1,-3,-1
1528879369832490,-1,0,-3,-2,-1,-1,4,6
1528879369844653,-1,-1,0,1,0,-2,-8,-13
1528879369844653,-1,-1,-3,-3,-1,0,0,1
1528879369853622,-1,-1,0,0,-1,-1,1,0
1528879369853622,0,-2,-1,-2,-1,1,7,5
1528879369868725,-3,-1,-2,-1,-1,-1,-10,-8
1528879369868725,-1,-3,0,-1,-1,0,-2,-2
1528879369870591,1,0,0,-1,-2,-1,0,2
1528879369870591,-1,-2,-3,-1,-2,-1,-5,-6
1528879369890746,2,0,0,1,0,-1,4,3
1528879369890746,0,-1,-3,-2,-1,0,-1,1
1528879369892704,-1,-1,-2,0,-1,-1,1,-1
1528879369892704,-1,-2,-1,-1,-1,-1,1,0
1528879369904832,-1,0,-1,-3,-1,1,2,0
1528879369904832,-1,2,-1,-2,-1,-3,-1,1
1528879369913647,-2,-2,-2,-1,-1,-2,2,7
1528879369913647,-1,0,0,-1,0,-2,-9,-11
1528879369928113,-1,-2,-1,0,-1,0,2,2
1528879369928113,-2,-1,0,-1,-1,0,-3,-2
1528879369929952,1,-1,-2,-1,0,1,2,1
1528879369929952,1,1,-1,-1,-1,-1,-1,-1
1528879369950897,-1,-3,-1,-1,-3,-1,-3,1
1528879369950897,0,-2,0,-1,-1,0,3,2
1528879369952892,-2,-2,-1,-1,-1,-3,-2,-3
1528879369952892,-4,-3,-2,0,-3,-1,-2,-2
1528879369964986,-1,-1,-1,1,-2,-1,0,1
1528879369964986,-1,-4,-1,-1,-1,0,2,1
1528879369974083,0,-2,-1,0,-1,1,-1,5
1528879369974083,0,-3,0,-1,-2,-2,-9,-16
1528879369989206,0,0,-5,-2,0,-1,2,1
1528879369989206,-1,-1,0,-2,-1,-3,-1,-1
1528879369991053,-1,0,0,-2,0,-1,6,6
1528879369991053,-3,-3,-2,-1,-2,-5,-12,-11
1528879370010999,0,-2,-2,0,-3,0,0,-1
1528879370010999,0,-1,-2,-2,-1,0,-2,-2
1528879370013002,-2,1,-1,-1,-1,-1,3,-1
1528879370013002,0,-2,-2,-1,-1,0,5,6
1528879370025111,-2,1,-1,-1,-1,-2,-4,-2
1528879370025111,-2,-1,-1,-1,-1,-2,1,-3
1528879370034079,0,0,-1,-1,-1,-2,-5,-7
1528879370034079,-2,-2,0,-3,-1,0,1,3
1528879370048978,0,-2,1,0,-2,-1,-2,-2
1528879370048978,-1,-3,-1,1,0,0,1,0
1528879370049896,0,0,-2,1,-1,0,-2,-3
1528879370049896,1,0,0,-1,0,1,0,-6
1528879370070909,0,-1,-1,-3,2,-1,3,2
1528879370070909,-1,-1,-1,1,-1,-2,-2,1
1528879370072762,-1,0,-1,-1,-1,-2,-4,-6
1528879370072762,-1,0,-2,1,-1,0,3,6
1528879370084869,-2,-1,0,-1,-1,0,0,0
1528879370084869,-1,-1,-2,-1,-1,0,-3,-5
1528879370093706,0,-3,-3,-1,-2,-2,-3,-2
1528879370093706,-2,0,-1,-1,-1,-1,1,4
1528879370107804,-2,-2,-1,0,-1,-2,1,-3
1528879370107804,-2,-1,-2,-1,-1,0,-4,3
1528879370114785,-1,-2,0,0,-3,0,-2,-3
1528879370114785,-1,-3,-2,0,-1,-1,2,2
1528879370130742,0,-1,-1,0,-1,-3,0,-1
1528879370130742,0,-2,-1,1,-2,-1,-1,-3
1528879370132611,0,0,-2,-1,-1,0,-2,-3
1528879370132611,1,0,-2,-1,-2,-1,-1,1
1528879370144573,-1,-2,-3,1,-1,0,-2,1
1528879370144573,-1,-1,-3,-2,1,-1,1,-1
1528879370153546,-1,-2,-1,-2,0,0,0,2
1528879370153546,-2,-3,-1,0,-1,-1,-3,-8
1528879370168652,-2,-1,0,-2,-2,-1,1,1
1528879370168652,-1,0,-2,-1,-1,0,-1,-1
1528879370170583,-1,-2,-1,0,-2,0,-2,-7
1528879370170583,0,-1,-2,-1,-1,-2,-1,8
1528879370190588,-2,1,-2,0,0,0,-1,0
1528879370190588,0,-2,0,-1,-2,-3,-3,-3
1528879370192580,-1,-2,-1,0,-1,-2,-1,2
1528879370192580,-2,-1,-1,-1,0,-1,0,0
1528879370204689,0,0,0,-2,-1,0,-3,-2
1528879370204689,-3,-1,-2,-3,-2,-1,1,-2
1528879370213991,-2,-2,-1,0,-3,-1,-1,-3
1528879370213991,1,-1,0,-1,-2,-2,-1,0
1528879370227953,0,-1,-2,0,-3,0,-2,0
1528879370227953,-2,0,-1,0,-3,0,1,1
1528879370234166,-1,-1,0,0,-1,-1,-2,-2
1528879370234166,-3,-2,0,0,0,0,1,-2
1528879370251483,-1,-2,-1,-2,-1,-1,0,2
1528879370251483,-1,-1,-1,-3,1,-1,0,-3
1528879370252339,0,0,-3,-1,-2,1,-3,-2
1528879370252339,-1,1,1,-1,-1,-1,0,1
1528879370264518,0,-1,-3,0,0,-1,0,-2
1528879370264518,-1,-2,-1,1,-1,0,0,-1
1528879370273495,0,-2,-2,-2,1,-1,0,-1
1528879370273495,0,-2,-1,0,-1,0,-1,-1
1528879370287616,-2,0,-1,-1,-2,0,-2,-1
1528879370287616,-1,-1,0,-1,-1,0,-2,-2
1528879370294597,0,0,0,-1,-3,0,-1,1
1528879370294597,-1,-1,-2,-1,-1,-1,-2,0
1528879370310765,-2,-3,0,0,-2,-1,-1,-1
1528879370310765,-2,-2,-2,-1,-1,0,-1,0
1528879370312599,-2,0,-1,-1,1,0,0,0
1528879370312599,0,0,-2,-2,-2,0,-1,-1
1528879370324720,-4,-1,-2,-1,-2,0,-3,-1
1528879370324720,0,-1,-1,-1,0,-2,-1,-1
1528879370334030,-1,-2,-3,-3,-1,-2,-3,-2
1528879370334030,-1,-2,-2,-1,-1,0,2,-3
