timestamp,emg1,emg2,emg3,emg4,emg5,emg6,emg7,emg8
1528189771836010,0,-1,0,-1,-1,-2,-1,-1
1528189771836010,-1,-1,-1,0,-1,-2,-1,1
1528189771836010,-1,-1,-1,-2,-1,-1,-1,-1
1528189771836010,-3,0,-1,-1,-1,-2,-1,1
1528189771839999,-1,-1,-1,0,0,-1,-3,-2
1528189771839999,-2,-1,0,-2,-2,-1,-1,-2
1528189771840997,0,1,0,-1,0,-2,1,-3
1528189771840997,-1,-2,-2,-2,-2,0,-2,-2
1528189771847978,0,-1,1,-1,-1,-1,-1,-1
1528189771847978,-1,-2,-2,0,-2,0,0,0
1528189771853961,0,-2,-2,-1,0,0,-1,0
1528189771853961,-3,-1,-1,-1,-1,-1,0,0
1528189771870916,-1,-1,2,0,-1,-1,0,-1
1528189771870916,0,-1,-2,0,0,-1,-2,-3
1528189771876901,-1,0,0,0,-1,-2,-3,0
1528189771876901,-1,0,0,-2,0,0,0,-2
1528189771900838,-1,0,-1,-2,-2,-1,0,-2
1528189771900838,-2,-1,-2,-1,-1,-2,-2,1
1528189771907818,-1,-2,-2,-1,-1,0,0,-1
1528189771907818,-1,0,-2,-2,0,-2,-1,-2
1528189771909813,1,0,-2,-1,-1,1,0,0
1528189771909813,-1,1,1,-1,-1,-1,0,-1
1528189771930761,-2,0,1,0,-1,-1,-3,0
1528189771930761,1,-2,-1,0,-1,-2,-2,-2
1528189771932751,-1,-1,-2,-1,-2,-1,-2,-2
1528189771932751,0,0,-1,0,-2,-3,-1,0
1528189771953695,-1,-1,0,-2,-1,0,-1,-1
1528189771953695,-1,1,-2,-1,-1,-1,-1,-2
1528189771954692,-1,-1,-3,-1,-2,-1,-1,0
1528189771954692,-1,-1,-2,0,-1,0,-1,-1
1528189771968655,0,-1,-1,-1,-1,-2,-1,-2
1528189771968655,0,-2,0,0,-2,-3,-1,-1
1528189771969653,0,-1,-1,-1,0,-1,-1,0
1528189771969653,-1,-2,-1,0,0,-1,-1,-1
1528189771990597,-3,-1,-2,-1,-2,-1,-1,-1
1528189771990597,1,0,-2,1,-1,-1,0,1
1528189771992591,-3,0,0,0,0,-2,-2,0
1528189771992591,-1,-1,-1,0,-2,-1,-2,0
1528189772004559,0,1,-2,-1,0,-1,-1,-2
1528189772004559,-1,-1,0,0,0,-2,-1,-2
1528189772013542,-1,-1,-2,0,-1,-3,-1,-2
1528189772013542,0,-1,0,-1,1,-2,-1,-2
1528189772028496,0,-1,-2,-2,-2,-1,-1,-1
1528189772028496,-2,-2,0,-1,-2,0,-2,-2
1528189772029494,-1,-1,-2,-1,0,-1,0,1
1528189772029494,1,-1,-1,-3,-1,1,-1,-2
1528189772050462,-1,-2,-2,0,-1,0,0,0
1528189772050462,-2,-1,-1,-2,-2,0,-1,-1
1528189772065398,-1,-2,-1,-1,-3,0,-2,-1
1528189772065398,0,0,-1,0,-1,-3,-1,-1
1528189772065398,-1,-1,0,0,0,-2,-1,-1
1528189772065398,0,-2,-2,-1,-2,-2,0,-2
1528189772073375,-2,-1,-1,1,0,-1,0,-4
1528189772073375,-2,0,0,0,0,-1,-2,1
1528189772095317,-1,-2,-2,1,-3,-2,-1,0
1528189772095317,-1,-1,-1,-1,1,-2,-1,1
1528189772097324,1,-1,1,-1,-1,-1,-1,0
1528189772097324,0,0,-1,-3,-1,-1,-1,-2
1528189772126261,0,1,-1,-2,-1,-1,-2,-1
1528189772126261,-2,0,-1,0,0,-1,-1,-1
1528189772128231,-1,-3,-2,-1,-1,0,-2,-1
1528189772128231,-2,-2,-2,-1,-2,-1,-1,0
1528189772129228,0,-2,0,-1,0,-2,-1,-2
1528189772129228,-1,0,-1,-2,-2,-2,-1,-1
1528189772133218,-2,0,-1,-1,-1,-1,0,-1
1528189772133218,-1,-1,-1,0,-1,-1,-2,-1
1528189772148176,-2,0,0,-1,-1,0,-1,-2
1528189772148176,1,-1,0,-2,-1,-2,-2,-2
1528189772150171,-2,-1,-1,-1,0,-1,-2,-1
1528189772150171,-2,-1,-2,-1,-2,-2,0,0
1528189772178095,-1,0,-3,0,-1,0,-1,-1
1528189772178095,-1,-1,-1,-1,-1,-1,0,-1
1528189772180090,0,1,-2,-1,-3,-1,-2,0
1528189772180090,-1,0,0,0,-1,-1,2,-1
1528189772184080,-1,-1,-1,-1,-1,-1,-2,-2
1528189772184080,-1,-2,0,0,-1,0,-2,-1
1528189772193090,-1,-2,-1,-2,-2,-1,-2,-1
1528189772193090,-2,-1,-1,-2,-1,0,-2,-1
1528189772208016,-2,-1,-1,-2,0,-2,-1,-2
1528189772208016,0,-2,-1,1,-1,-1,-2,-2
1528189772210010,-1,-1,0,-1,0,0,1,-2
1528189772210010,0,-1,-1,-1,0,-1,-1,-1
1528189772230954,-1,-3,-3,-1,-1,-1,1,-1
1528189772230954,0,-1,1,-2,-1,0,-1,-1
1528189772231952,-1,-2,0,-1,-2,0,0,-1
1528189772231952,0,0,-1,0,-2,-1,-1,-1
1528189772244917,1,1,-1,-1,-1,0,-1,-1
1528189772244917,0,-1,0,-1,-2,-1,-2,-1
1528189772260874,-1,-2,-1,-2,0,0,0,0
1528189772260874,-2,0,-1,-2,-1,-1,0,-2
1528189772267855,-1,-1,1,0,-2,-1,-1,1
1528189772267855,-2,0,-3,0,-1,-1,0,-1
1528189772269851,0,0,-1,-1,0,-1,-3,-1
1528189772269851,0,-2,-2,-1,0,0,0,-1
1528189772290794,-2,-2,-2,-2,-2,-1,0,-1
1528189772290794,-1,0,-2,-1,-1,0,-1,0
1528189772292789,-2,-1,-2,2,-1,-1,-1,-2
1528189772292789,-1,-3,-2,-3,-2,-2,-3,-2
1528189772304805,-2,-2,-1,-2,-2,1,1,1
1528189772304805,-1,-1,-1,-2,-3,-1,-1,-1
1528189772313735,-3,-2,-2,0,-1,-2,-1,-1
1528189772313735,0,-1,-2,0,-1,0,-1,-2
1528189772328715,-2,-1,-2,-2,-2,-1,-1,0
1528189772328715,-1,0,-1,-1,0,-2,0,-2
1528189772329704,1,-1,-1,-1,-1,-1,0,0
1528189772329704,0,0,-1,-1,-1,0,0,-2
1528189772350661,-1,-2,-1,0,0,-1,-1,-1
1528189772350661,-1,0,-1,1,-1,-1,-1,-1
1528189772352629,-2,0,-2,0,-2,-2,-2,-2
1528189772352629,-3,0,0,-1,-1,-1,-2,-1
1528189772364598,0,-2,-2,0,-1,0,-2,0
1528189772364598,-1,-1,-2,-2,-1,-1,1,0
1528189772373573,2,-2,1,-2,-1,-2,-1,-1
1528189772373573,-2,-3,-2,-1,-2,0,-1,-1
1528189772387813,-1,0,0,-1,0,-1,-3,-3
1528189772387813,0,-1,-1,-1,-1,-1,-1,-2
1528189772389803,-1,0,-1,-2,-1,-1,0,0
1528189772389803,0,-1,0,-2,-1,-1,-2,0
1528189772410750,-1,1,0,0,-2,-1,1,0
1528189772410750,-1,-2,-1,0,-1,0,-3,0
1528189772412749,-2,1,-2,-2,0,-2,-2,-1
1528189772412749,-2,-2,-1,0,-1,-2,-1,-1
1528189772424710,0,0,0,-1,-1,0,-1,0
1528189772424710,-1,-2,-1,-1,-1,-2,1,0
1528189772433685,0,-2,-3,0,-2,-2,-2,0
1528189772433685,0,0,-1,-3,0,-1,-1,0
1528189772447647,0,-1,1,0,-2,-2,-1,-2
1528189772447647,0,-1,0,-1,-1,-1,-1,-2
1528189772454632,0,-1,-1,-1,-1,-1,-1,-1
1528189772454632,1,-1,-1,1,-1,-1,-1,1
1528189772470587,0,-1,-2,-1,-3,-1,-2,-1
1528189772470587,-1,-1,-3,-2,-1,-1,0,1
1528189772478567,-2,-2,-1,-1,0,-2,0,0
1528189772478567,-1,-2,-3,0,-2,-1,0,-1
1528189772484971,1,0,-1,0,-2,0,-2,-2
1528189772484971,-2,-1,-1,-1,0,-1,-1,-1
1528189772493526,0,-1,-1,-1,-3,0,-1,0
1528189772493526,-1,-1,0,-1,-2,-2,-1,-1
1528189772507899,-2,-2,-1,0,0,-3,0,-1
1528189772507899,-2,-1,0,-1,0,-2,-2,0
1528189772514484,0,-1,1,-1,2,1,0,0
1528189772514484,-1,1,0,0,-2,-2,-2,-1
1528189772538749,-1,-2,-2,-2,1,-3,-2,1
1528189772538749,-1,-2,-1,-1,0,0,-2,-1
1528189772539405,-1,-2,-1,-1,-1,-2,-2,-1
1528189772539405,0,0,-1,-2,0,1,0,-2
1528189772544389,-1,0,-2,-1,-1,-1,-1,-1
1528189772544389,-2,1,-1,-1,-1,-2,0,-1
1528189772561344,-2,-1,0,0,-1,-1,-1,-1
1528189772561344,-1,-1,-2,-1,-2,-2,-2,-1
1528189772568326,-1,-1,-2,-1,-1,-1,-1,0
1528189772568326,0,-1,-1,0,-2,-1,-1,-1
1528189772598246,-1,-2,0,0,-1,1,0,0
1528189772598246,-2,-2,0,0,-1,0,-1,-1
1528189772598246,-2,-2,0,-1,0,-1,-2,-3
1528189772598246,1,0,0,0,-2,-3,-2,1
1528189772606225,0,-1,-1,-2,0,-1,-1,-1
1528189772606225,-2,-1,-2,0,0,-1,-1,-2
1528189772607222,-1,-1,-1,-1,0,-2,-2,-1
1528189772607222,0,-2,-1,0,-1,-1,-2,-1
1528189772621185,-2,-1,0,-1,0,-2,-1,-1
1528189772621185,-2,-1,0,-2,-1,0,0,-1
1528189772627169,1,-1,0,-2,-2,0,-1,-1
1528189772627169,-2,-1,-2,-2,-1,-2,-1,-1
1528189772634149,0,-1,-2,0,-1,-2,-2,-1
1528189772634149,-1,-2,-3,-1,-1,-1,0,-1
1528189772651103,0,1,-1,0,-2,-2,-1,-1
1528189772651103,0,-2,-1,-2,-2,2,-1,-2
1528189772652102,0,1,-2,0,-3,-1,-1,-2
1528189772652102,2,-4,-2,0,0,-1,-1,-1
1528189772673295,-2,-2,-2,0,-1,-1,0,0
1528189772673295,0,-1,-1,0,-1,0,-1,-3
1528189772675040,-1,-1,0,0,-2,-2,-1,-2
1528189772675040,-1,-2,0,-1,-1,-2,-1,-2
1528189772688257,-3,-1,0,-2,-2,0,0,-1
1528189772688257,-3,-1,-2,-1,-1,-2,-2,-3
1528189772695119,0,-2,-2,0,-2,0,-1,-1
1528189772695119,0,0,-1,-2,-1,-1,0,-1
1528189772718213,0,-1,-3,-1,-2,0,-1,0
1528189772718213,-2,-1,-1,-2,0,0,0,0
1528189772719920,-1,-1,0,-2,-1,-1,-1,-3
1528189772719920,0,-2,1,1,-2,-2,-2,-1
1528189772733189,-3,-2,-2,0,-2,0,1,-2
1528189772733189,0,-1,-1,-1,0,1,0,1
1528189772735196,-1,-1,-2,0,-2,0,-1,0
1528189772735196,-3,-2,-1,-2,-1,-1,-1,-1
1528189772748291,-2,-1,0,-1,0,-2,-2,-2
1528189772748291,-2,-1,-2,1,-2,-2,-3,-1
1528189772754152,-1,0,0,-3,-2,-1,-1,-1
1528189772754152,-2,0,-2,-1,-2,-1,-3,-1
1528189772771350,0,-1,-2,-1,0,0,-2,-1
1528189772771350,-2,-1,-1,-1,-1,-2,0,-1
1528189772772317,-1,0,0,0,-2,-1,-1,-3
1528189772772317,-2,-1,-1,-2,-2,-1,-1,1
1528189772794044,-1,0,0,-2,0,-2,0,-2
1528189772794044,1,-2,-1,-1,1,-1,1,-1
1528189772795023,-1,-2,-2,-2,1,-1,-2,0
1528189772795023,0,0,-1,0,-1,0,1,-1
1528189772815986,1,-2,-1,-2,0,-1,0,-2
1528189772815986,-1,-2,0,0,0,0,-1,-1
1528189772817962,-2,-1,-2,-1,-2,-2,-1,-1
1528189772817962,-2,-1,0,0,0,-2,1,-1
1528189772828932,0,0,-2,0,0,-2,-1,-1
1528189772828932,-1,-1,-1,0,-1,-1,-1,0
1528189772838906,-3,-2,-1,0,-1,-1,1,1
1528189772838906,-1,0,0,-1,-1,-1,-1,-2
1528189772868096,-1,0,-1,-2,-2,-1,-1,-1
1528189772868096,-3,-1,-2,-2,-2,-1,-2,-2
1528189772876856,0,0,-2,-1,1,-3,0,0
1528189772876856,-1,-1,-2,-2,-1,-1,-2,-1
1528189772877802,-1,0,-2,-1,-1,-1,0,0
1528189772877802,-1,-1,-1,-2,-2,-2,0,-1
1528189772900741,0,-3,-1,1,-1,0,-1,0
1528189772900741,-1,-1,-1,-2,-1,-1,-1,-2
1528189772901879,-2,-2,-1,0,-2,-2,-2,0
1528189772901879,-2,-1,-1,0,-2,-1,0,0
1528189772904970,-2,0,1,-2,-1,-2,-1,-1
1528189772904970,-1,-3,0,-1,-1,0,0,-1
1528189772928666,0,-2,0,-1,-1,-2,-2,-1
1528189772928666,-1,-1,-1,-2,-1,-1,-1,-2
1528189772929663,-2,-4,-1,1,-1,-2,-3,0
1528189772929663,2,5,0,-1,0,-1,-1,2
1528189772935667,-3,0,-1,0,0,0,0,-1
1528189772935667,0,-1,-1,-1,-1,0,-2,-1
1528189772937662,0,0,-1,-1,-2,0,0,-1
1528189772937662,0,-3,-2,-1,-3,0,0,0
1528189772949655,0,-2,-1,-2,0,-1,-3,0
1528189772949655,-1,0,0,-1,1,-2,-1,-1
1528189772958640,-3,-1,0,-1,-2,2,-1,-3
1528189772958640,-1,-1,-1,-1,0,-1,-2,-1
1528189772972582,0,-2,0,-2,-2,1,-2,-2
1528189772972582,-1,-3,0,-1,-3,-2,1,-1
1528189772979555,1,0,-1,-2,0,-1,0,0
1528189772979555,-2,-2,-1,-2,-1,-1,1,-2
1528189772995542,-1,0,-1,-1,-1,0,-2,-2
1528189772995542,-1,-1,-1,-1,0,0,0,-1
1528189772997483,-1,-2,0,-2,-1,-3,-2,-1
1528189772997483,-1,-1,-2,-1,0,-3,-2,-1
1528189773009504,-2,0,-1,0,0,-2,2,-1
1528189773009504,0,-2,-1,-1,-1,-1,-2,-1
1528189773018430,-1,0,-3,-1,0,0,0,0
1528189773018430,-1,-1,-1,0,-1,0,-1,0
1528189773032444,0,-2,-1,-1,-2,0,0,-2
1528189773032444,-2,0,0,-1,-2,0,-1,0
1528189773039422,0,-2,-1,-1,-1,-1,-2,1
1528189773039422,0,-1,-2,-1,0,-3,-3,0
1528189773063306,-1,-2,-1,-1,-1,0,-3,0
1528189773063306,-1,-1,0,-1,-2,-2,-2,0
1528189773065300,0,-2,-1,-1,-1,-1,0,-3
1528189773065300,-1,0,-2,0,-2,-1,0,-2
1528189773069289,-2,-1,0,-1,-2,-2,-1,-1
1528189773069289,-2,0,-2,-2,1,0,0,-1
1528189773078265,-1,0,-1,-1,-1,-1,-1,-1
1528189773078265,0,-1,-1,-1,0,-1,-1,2
1528189773093225,-3,0,-1,-1,-1,-2,-1,0
1528189773093225,0,-1,-1,-1,-2,0,-1,-1
1528189773099210,0,-1,0,-1,-1,-1,0,-1
1528189773099210,0,0,0,0,0,-1,-2,0
1528189773115168,0,-2,0,-1,-1,-2,-1,-1
1528189773115168,-1,0,-3,-1,-1,-1,-2,0
1528189773123161,-2,0,-1,-1,-1,-2,0,0
1528189773123161,-3,-2,0,-2,-1,-1,-1,-2
1528189773129184,-2,-1,1,0,0,-1,-1,-1
1528189773129184,-2,1,-1,-1,-2,0,-1,-1
1528189773138145,-2,0,-3,-2,-1,0,-1,0
1528189773138145,0,0,-2,-2,-1,-2,-1,1
1528189773152126,0,-1,0,0,-3,0,-1,-1
1528189773152126,0,-1,0,-1,0,0,0,-1
1528189773161087,-1,-1,-1,-1,-1,1,-2,0
1528189773161087,-1,-2,-1,-1,0,-1,0,-3
1528189773176060,0,1,-3,-2,0,-1,-2,-3
1528189773176060,-2,-2,0,1,0,-3,-2,-1
1528189773177044,-1,-3,-2,-1,-1,0,-3,0
1528189773177044,-1,-2,0,0,-1,0,-2,1
1528189773205984,0,-1,-1,0,0,-1,-1,-1
1528189773205984,-1,-1,-1,-1,-1,0,1,-2
1528189773206977,0,-2,-1,0,-3,-1,-1,-2
1528189773206977,-1,-2,0,0,-1,0,-1,-3
1528189773211967,-2,-2,-1,-2,-2,-1,0,-1
1528189773211967,1,0,-1,-2,-2,-1,-1,2
1528189773220886,0,0,-2,-2,-2,0,-2,1
1528189773220886,-1,-1,-2,-1,-2,0,1,0
1528189773235848,-2,-2,-2,-2,-2,-1,-2,0
1528189773235848,-1,-3,-1,-1,-1,-1,-3,-2
1528189773237840,-3,-1,-1,-1,0,-1,0,-1
1528189773237840,-1,-1,-2,0,-3,-1,-1,-2
1528189773258965,0,0,-1,0,-2,-2,-2,1
1528189773258965,0,-2,-1,-1,-1,0,-1,0
1528189773259782,1,-3,-3,-1,-1,-2,0,-2
1528189773259782,-2,0,-1,-2,-1,0,-2,0
1528189773271996,-2,-1,-2,0,1,-1,-1,0
1528189773271996,0,1,-1,0,-1,-1,-2,0
1528189773286865,-1,0,-1,0,0,-2,-1,-2
1528189773286865,-2,0,-1,-2,-1,0,-1,-1
1528189773295935,-1,-1,-1,-1,-1,-1,-2,-2
1528189773295935,-2,-2,-1,0,0,-2,-1,-2
1528189773297680,-1,0,0,-2,0,-1,-1,-1
1528189773297680,0,0,0,0,-1,-2,-2,0
1528189773318885,-2,0,-1,-1,-2,0,0,-2
1528189773318885,-2,0,0,-2,-1,0,-2,-2
1528189773319621,-1,-1,-1,0,-2,-1,-1,-1
1528189773319621,0,-1,-1,-1,-1,-1,0,-1
1528189773332680,0,-1,-2,-1,-3,-2,0,-1
1528189773332680,1,-1,-2,-1,-1,0,-1,-1
1528189773340924,0,-2,-1,0,0,-2,-1,-1
1528189773340924,-2,-2,-3,-2,-2,-2,-1,-1
1528189773356202,-1,0,0,-1,0,-1,0,-1
1528189773356202,-1,0,-2,-2,-3,-1,0,0
1528189773356882,0,-1,-1,-1,-2,0,-1,0
1528189773356882,0,-2,-2,0,-1,-1,0,-3
1528189773378962,-1,0,-1,-3,-1,-2,-3,-1
1528189773378962,0,1,-1,-1,-3,-2,-2,-2
1528189773379819,-2,-1,-1,0,0,-1,-1,0
1528189773379819,-2,-1,-1,-3,-1,-2,1,-2
1528189773392432,-1,0,-2,-1,-1,0,-1,-1
1528189773392432,0,0,-2,0,-1,2,0,-2
1528189773401074,-1,0,0,-1,-1,-2,-2,-1
1528189773401074,0,0,0,0,0,-1,-1,-2
1528189773416039,0,-1,-3,1,-1,-1,-1,-1
1528189773416039,-2,-3,-3,-1,-2,-1,-1,0
1528189773417029,1,-1,-2,-2,-1,0,-1,-2
1528189773417029,-1,-1,-2,-1,-2,-2,-1,-1
1528189773439174,0,-1,0,-2,1,-3,2,0
1528189773439174,-2,-2,-1,0,1,-1,0,-1
1528189773439974,-3,-1,-1,-2,-2,0,0,-1
1528189773439974,0,0,-1,-2,-1,0,-2,-1
1528189773451937,-1,-1,-2,0,0,0,-1,0
1528189773451937,-1,-1,-1,-1,1,-1,-1,0
1528189773461381,-2,-1,-3,-2,-1,-3,-1,-1
1528189773461381,-2,-2,-1,0,-1,-2,-1,-1
1528189773476467,0,-1,-2,0,-1,-1,-2,-1
1528189773476467,-1,0,-1,-1,-2,-2,-1,-1
1528189773477341,0,0,0,-1,-2,0,-2,-1
1528189773477341,0,-1,-2,0,-1,1,-1,0
1528189773498288,0,-2,-2,-2,1,0,0,-2
1528189773498288,-2,0,-1,-1,0,-1,-1,0
1528189773500279,-1,-1,0,0,-2,-3,0,0
1528189773500279,-3,-2,0,-1,0,-2,-2,1
1528189773512550,-1,0,0,0,-1,0,-2,0
1528189773512550,0,-1,0,-1,0,-1,-1,-2
1528189773521223,0,-1,-2,1,0,0,-1,-2
1528189773521223,0,0,-2,-1,-1,0,-2,-2
1528189773543239,-2,-1,-1,-1,-2,0,-1,-2
1528189773543239,0,-2,-2,-1,-1,-1,0,-1
1528189773545160,-1,1,-1,-1,-1,0,-1,0
1528189773545160,-1,-1,0,-1,-2,-1,0,-1
1528189773558387,-3,-1,-1,-2,-1,-2,-1,-2
1528189773558387,0,-2,0,0,-2,-1,0,-1
1528189773560119,-1,-2,-1,0,-1,-1,-1,0
1528189773560119,1,-2,-1,-1,0,-1,-1,-1
1528189773572333,0,-1,-1,-2,0,-1,1,0
1528189773572333,-2,-1,-2,-2,-1,0,-1,-2
1528189773581064,-1,-2,-1,-1,-2,-1,0,-2
1528189773581064,-1,-2,-3,-1,0,1,0,-1
1528189773596164,0,-1,-1,-1,-2,0,-1,-1
1528189773596164,0,-3,-2,-2,-1,-2,-2,0
1528189773597039,-1,0,-2,-2,-1,1,-1,0
1528189773597039,-1,0,-1,-1,-2,-2,-1,-1
1528189773618321,-2,0,0,-1,0,-1,0,-1
1528189773618321,-1,0,-1,-1,0,-2,-2,-3
1528189773620141,0,0,-1,-1,0,-1,-1,-2
1528189773620141,-1,-3,-1,0,-1,-1,-1,-1
1528189773632363,0,-2,-1,-1,0,-2,-1,-1
1528189773632363,0,-1,-1,-1,-2,-2,-2,0
1528189773648888,0,0,-1,-2,0,0,-1,-2
