timestamp,emg1,emg2,emg3,emg4,emg5,emg6,emg7,emg8
1528278748522187,3,9,14,-4,-9,10,8,11
1528278748522187,-10,-10,-4,-9,7,-5,-9,-18
1528278748523191,-20,-4,-10,-9,-10,-5,-9,-14
1528278748523191,-13,-7,-8,-5,-11,-4,-13,-5
1528278748561119,7,-2,-6,2,5,-4,2,-39
1528278748561119,-4,-13,-5,-1,-3,-1,5,27
1528278748561119,21,15,5,1,-6,-1,8,0
1528278748561119,30,5,0,-5,3,1,-7,64
1528278748568066,-1,-8,-6,-4,-8,-18,-29,-30
1528278748568066,-16,-9,-4,-7,-5,3,20,-4
1528278748569063,-44,-6,-3,0,-3,-2,-13,-59
1528278748569063,29,7,2,-14,-12,-7,6,48
1528278748582027,2,5,4,21,20,11,13,-5
1528278748582027,-5,4,4,1,19,20,33,-5
1528278748590031,3,-18,-9,-7,-28,-28,-41,17
1528278748590031,5,11,3,8,5,9,16,9
1528278748606013,-8,-1,-3,7,11,0,-9,-22
1528278748606013,2,0,-7,-5,0,5,-11,15
1528278748607010,-12,-9,-3,-25,-19,-7,-21,-42
1528278748607010,-10,-8,10,36,31,8,29,29
1528278748628956,11,-1,5,7,2,5,13,20
1528278748628956,-20,-10,-12,-5,-6,-10,-21,-31
1528278748629926,16,9,3,12,3,3,8,-2
1528278748629926,-4,-14,-22,-24,-30,-23,-31,-23
1528278748651888,15,31,24,-5,18,20,23,41
1528278748651888,-32,-6,10,32,18,7,-2,-32
1528278748652848,21,0,-3,-6,-8,-1,7,7
1528278748652848,6,1,-10,-28,-18,-3,10,41
1528278748665861,-36,-25,-9,7,2,-8,-18,-33
1528278748665861,15,2,-1,0,-9,-18,-38,-4
1528278748666801,17,14,7,4,10,9,34,39
1528278748666801,18,-15,-4,6,-3,12,6,-16
1528278748688750,-58,-10,-17,-25,-22,-14,-13,-19
1528278748688750,8,-19,5,-7,2,-3,1,10
1528278748688750,-12,3,4,23,27,9,-14,-7
1528278748688750,-3,8,7,-2,-6,1,9,-9
1528278748702729,-7,-7,-5,-3,-15,-16,-26,-25
1528278748702729,6,8,1,6,11,15,32,16
1528278748703703,26,-1,-1,-4,1,6,7,45
1528278748703703,4,8,-4,-8,-5,-9,-3,-7
1528278748726641,5,6,9,10,10,4,-5,-3
1528278748726641,-3,1,5,14,5,-4,-8,-9
1528278748732625,2,19,-1,-9,-11,-5,-6,-11
1528278748732625,-4,-45,-12,-13,-2,2,5,13
1528278748755563,21,4,-3,15,-1,-6,-4,1
1528278748755563,-2,9,-3,-9,-14,-9,-9,1
1528278748756564,15,-25,-3,-11,5,8,15,25
1528278748756564,-24,15,19,45,29,11,-3,-14
1528278748762596,13,8,-10,-20,-17,-9,-3,4
1528278748762596,3,-5,-2,-4,-8,1,8,3
1528278748777530,-16,7,-1,-4,-1,2,-18,-47
1528278748777530,-11,-6,-7,-8,-4,-3,10,17
1528278748785513,7,4,3,-13,-6,7,19,24
1528278748785513,13,1,5,15,2,-8,-3,8
1528278748786481,-3,-1,-5,-7,-9,-7,-6,-47
1528278748786481,10,11,2,2,4,7,-2,44
1528278748808458,0,-3,3,6,1,0,-4,-23
1528278748808458,17,-10,-9,-21,-10,0,6,13
1528278748809420,-31,-7,6,3,-12,-9,-12,-21
1528278748809420,9,15,-3,15,3,-7,-9,-27
1528278748822384,-6,-28,-16,-14,-9,2,10,11
1528278748822384,4,14,3,-9,-10,-1,2,9
1528278748831360,6,-5,-6,0,4,-2,-2,6
1528278748831360,-13,7,5,-1,-1,-5,-7,-24
1528278748844326,8,1,-6,-6,-9,-2,-4,10
1528278748844326,-4,5,4,-2,7,5,1,-12
1528278748853303,9,-10,-1,7,5,-3,-3,12
1528278748853303,-9,-9,-8,-16,-23,-7,-6,-13
1528278748868315,22,8,4,12,20,11,10,38
1528278748868315,-6,-2,-3,-10,-7,-4,-5,-28
1528278748870309,-4,3,-5,-5,-9,-3,9,28
1528278748870309,-10,-2,0,-10,6,-1,-4,-22
1528278748882276,-2,-6,-2,-6,-14,-2,-5,-11
1528278748882276,-8,1,1,13,4,-4,-12,-3
1528278748891201,-10,-2,1,3,3,0,0,0
1528278748891201,1,-5,-8,-10,-3,-1,-3,-12
1528278748904206,-6,1,-2,2,-4,-3,0,-3
1528278748904206,1,3,3,1,6,-1,-5,1
1528278748913142,-6,-4,-4,-1,-6,1,1,-12
1528278748913142,6,-3,-5,-17,-12,-5,-1,25
1528278748928103,8,6,9,-3,9,4,1,13
1528278748928103,-5,-5,-4,7,-6,-6,-1,-4
1528278748930097,4,-1,-1,13,9,4,2,4
1528278748930097,-1,3,-6,-16,-14,-5,-1,-15
1528278748951040,-16,-9,-12,-10,-1,-5,-6,-14
1528278748951040,-3,4,19,5,3,3,5,15
1528278748952038,0,9,12,4,5,3,0,8
1528278748952038,29,-3,-5,6,-2,1,3,14
1528278748965060,1,28,-4,-4,4,-5,-10,-19
1528278748965060,-14,-13,-9,15,-4,-6,-5,-23
1528278748971984,10,6,-8,-11,-11,-3,3,26
1528278748971984,-13,2,2,3,4,3,1,-13
1528278749003918,-19,-9,39,-8,-3,-2,-2,-9
1528278749003918,44,11,-16,-10,-10,-7,-4,1
1528278749005894,-2,3,-15,13,19,9,-1,-17
1528278749005894,31,-9,-4,-4,5,-1,3,20
1528278749005894,-22,24,64,6,-8,-4,-1,-23
1528278749005894,-66,-86,-100,-27,-5,1,0,9
1528278749010880,65,46,107,8,0,7,7,22
1528278749010880,10,19,15,-14,-14,-20,-22,1
1528278749024845,-2,-49,-37,1,-11,-7,-15,-25
1528278749024845,13,38,42,-2,16,16,12,11
1528278749031879,-30,-45,-110,-12,-3,-9,-8,-20
1528278749031879,-28,-61,-20,-21,-18,-17,-8,-21
1528278749047808,4,50,78,20,5,4,-5,28
1528278749047808,42,-1,9,24,2,2,4,4
1528278749049778,18,8,-50,-19,8,16,20,-6
1528278749049778,-75,1,1,17,17,2,-9,-51
1528278749061783,3,-39,-74,-28,-24,-27,-16,16
1528278749061783,46,29,25,1,0,11,23,75
1528278749070725,-24,-19,27,17,9,2,2,-2
1528278749070725,19,3,2,16,13,11,3,5
1528278749084739,-13,-7,-21,3,6,11,-2,-56
1528278749084739,-32,2,0,-12,-9,-12,-14,-10
1528278749091719,14,9,18,-2,-9,-7,-3,13
1528278749091719,-10,6,3,2,4,10,5,-19
1528278749108674,-19,-9,-21,-7,-18,-18,-11,-51
1528278749108674,-18,6,8,15,44,19,-4,-16
1528278749109618,80,9,18,15,17,10,33,91
1528278749109618,21,16,15,35,28,23,18,11
1528278749121639,12,18,10,-7,-18,-3,4,-17
1528278749121639,-40,-17,-6,10,10,-8,-21,-78
1528278749130617,-84,-28,-24,-57,-70,-40,-36,-94
1528278749130617,45,24,3,10,26,17,19,76
1528278749145522,8,3,6,19,19,5,4,15
1528278749145522,-10,12,24,3,6,-15,-6,-4
1528278749159484,-3,1,4,4,-7,9,-1,-4
1528278749159484,-13,-16,-22,-32,-58,-29,-8,-1
1528278749168460,1,-14,-24,-5,9,7,8,22
1528278749168460,21,16,17,0,6,18,12,7
1528278749169457,-8,-6,-14,-11,12,-7,-14,-8
1528278749169457,-15,-3,7,3,-8,4,-2,-20
1528278749190401,10,7,8,-5,5,12,7,37
1528278749190401,5,-5,-16,-12,-20,-16,-6,-2
1528278749192398,-5,0,-6,-4,4,1,-7,-2
1528278749192398,-30,-13,-8,-4,0,-5,-3,-26
1528278749205361,25,0,-20,-25,-52,-19,3,25
1528278749205361,28,11,5,-3,18,11,8,26
1528278749212342,-17,-7,12,20,-7,-9,-6,-11
1528278749212342,-14,-3,2,21,17,-4,-7,-19
1528278749228299,-7,2,-1,-3,-4,0,-2,-3
1528278749228299,-5,-9,-12,-15,-2,3,6,0
1528278749230293,-3,1,3,36,-9,-6,-6,-34
1528278749230293,7,7,8,-17,-5,-4,0,43
1528278749251255,-4,-2,2,22,36,8,-1,-19
1528278749251255,0,8,3,-5,-17,-4,-1,12
1528278749252238,-1,-6,-11,-36,-14,-3,-6,-13
1528278749252238,2,0,9,55,32,6,-3,-9
1528278749264203,-4,-2,-18,-20,-4,-1,6,2
1528278749264203,22,11,-12,7,-5,-3,1,0
1528278749273179,-30,-16,6,-1,16,4,-7,-38
1528278749273179,5,-12,-9,-19,-16,-12,-4,27
1528278749288139,-18,-9,-7,13,8,3,5,3
1528278749288139,4,-7,-1,-6,-7,-7,-4,-8
1528278749290133,28,5,-19,-7,-3,-1,5,13
1528278749290133,13,18,-9,-21,-11,-2,-4,-16
1528278749311328,-14,-27,23,5,7,2,1,-3
1528278749311328,-13,-6,-21,-23,-13,1,1,8
1528278749312379,-5,8,14,25,6,-3,-4,2
1528278749312379,18,0,1,-14,-3,-3,-1,12
1528278749334017,8,7,-20,10,2,2,3,16
1528278749334017,-18,1,12,-3,-15,-7,-14,-35
1528278749335014,-1,-2,-10,-3,16,7,3,32
1528278749335014,-2,14,-2,5,2,3,-6,-27
1528278749348535,10,-3,0,-5,-2,-5,-17,-2
1528278749348535,-28,-36,-2,-4,-13,0,26,0
1528278749350267,-37,2,-19,-15,10,9,5,-5
1528278749350267,19,2,23,2,-10,-11,-9,-4
1528278749371518,16,28,29,4,-2,-1,3,-7
1528278749371518,-9,-14,-3,-1,7,1,-9,31
1528278749373272,-2,39,5,7,2,-9,-6,-6
1528278749373272,-13,-34,-34,-14,-6,1,2,-19
1528278749385221,17,-2,16,10,12,6,6,52
1528278749385221,19,-18,23,6,0,2,0,-14
1528278749393144,13,12,-22,3,-5,-2,1,8
1528278749393144,-14,14,-53,-7,11,9,6,-34
1528278749407364,-19,3,65,24,4,-6,-27,-84
1528278749407364,8,-2,-23,-5,-15,-12,8,90
1528278749416079,4,-26,6,-7,6,3,-8,-25
1528278749416079,-10,-11,12,1,-2,2,16,31
1528278749430055,25,-14,-38,0,14,12,7,-29
1528278749430055,6,25,8,10,-2,-5,-11,-4
1528278749437023,5,-6,6,-16,-17,-14,-15,-9
1528278749437023,-19,15,18,4,1,0,-23,-35
1528278749452980,-47,-43,-13,-13,-15,-9,20,32
1528278749452980,11,14,-10,-2,1,1,-9,-49
1528278749454975,46,22,13,16,11,14,36,122
1528278749454975,23,38,40,5,0,0,5,17
1528278749467191,-32,-23,-29,1,1,-7,-23,-34
1528278749467191,-30,-8,-13,-13,-4,15,0,-34
1528278749475918,-12,-7,14,-3,-4,-17,-7,-25
1528278749475918,-14,-6,14,5,4,-3,-9,-13
1528278749506187,24,20,-13,-11,-11,9,32,56
1528278749506187,5,-3,-1,5,-4,-7,-4,20
1528278749508202,9,1,10,-14,-7,5,-4,-26
1528278749508202,6,-8,-1,11,15,-2,2,23
1528278749513964,-32,-6,-3,-8,-23,-20,-14,-27
1528278749513964,1,-3,-17,-37,-48,-25,-14,-11
1528278749515608,-4,-4,2,23,49,38,13,11
1528278749515608,-5,-3,-2,-24,-15,0,3,0
1528278749526551,1,-3,-20,-9,-45,-17,-16,-15
1528278749526551,-3,0,-8,-26,-10,3,6,-8
1528278749535841,-8,-6,-1,-17,-34,-43,-19,-13
1528278749535841,3,8,39,89,63,52,16,3
1528278749550685,19,18,7,-8,-19,4,6,24
1528278749550685,-4,-6,-1,-3,-33,-25,-21,-26
1528278749558468,14,-4,-16,-14,14,-1,6,37
1528278749558468,-3,-7,-12,-28,-26,-10,0,-6
1528278749573423,0,7,11,30,47,5,-5,-3
1528278749573423,-9,5,5,-7,-8,2,1,-16
1528278749575455,-6,0,17,19,25,13,1,-20
1528278749575455,-3,-9,-8,-13,-10,-7,-2,12
1528278749587606,3,3,-6,2,24,5,-4,-6
1528278749587606,-1,-3,-5,-4,-19,0,6,6
1528278749596363,-7,-5,-9,-15,-19,-1,-4,-12
1528278749596363,13,7,19,61,23,-2,-1,4
1528278749611364,-3,-7,-20,-26,-30,-12,0,22
1528278749611364,1,9,16,11,25,3,-1,-24
1528278749617546,-6,-8,2,32,4,5,0,5
1528278749617546,-11,-18,-49,-55,-42,-17,-4,-9
1528278749633525,5,10,13,-39,-16,1,2,-9
1528278749633525,-20,-13,1,61,58,14,2,3
1528278749634517,17,1,13,-43,-50,-7,0,-3
1528278749634517,3,2,0,-5,6,-8,-9,-3
1528278749647615,-6,5,-13,21,28,16,5,5
1528278749647615,23,9,-8,-55,-35,0,7,8
1528278749672701,-6,-9,-8,4,-10,-8,-9,-28
1528278749672701,-36,4,15,33,22,-3,-11,-20
1528278749673863,16,-29,-30,-43,-35,-3,11,31
1528278749673863,15,1,-22,6,19,2,-8,-16
1528278749676693,-41,-13,17,6,1,-2,-7,-6
1528278749676693,2,1,-8,-46,-36,-9,2,8
1528278749693645,-35,-10,0,16,25,7,-12,-58
1528278749693645,7,-1,-8,31,10,2,1,45
1528278749694904,26,12,-17,-21,-14,3,12,7
1528278749694904,6,-13,-35,-14,-6,0,3,5
1528278749717640,-3,16,66,29,7,-4,-4,-5
1528278749717640,-13,-2,-20,1,-2,2,8,4
1528278749718578,-1,-2,-6,-5,4,-6,-19,-28
1528278749718578,3,-24,5,-7,-9,-17,-24,19
1528278749729809,103,79,10,7,7,25,54,-2
1528278749729809,-75,-87,-70,-19,-8,-5,-6,23
1528278749738525,-15,28,85,25,5,3,8,-9
1528278749738525,-12,-13,-17,-9,-11,0,-13,-16
1528278749753754,-19,-27,-49,-2,6,-2,-13,24
1528278749753754,68,83,107,15,3,-6,-4,-40
1528278749754482,-40,-57,-58,-11,-4,-7,-9,25
1528278749754482,32,-12,-5,-8,-1,11,4,-4
1528278749776014,-55,-7,19,2,1,-2,0,-13
1528278749776014,21,24,-13,2,3,10,22,38
1528278749777716,0,-17,5,25,20,-3,-29,-46
1528278749777716,-9,21,0,-6,-6,2,8,-2
1528278749789997,-12,-8,-24,-7,-4,-4,-22,1
1528278749789997,0,-12,-6,-10,-5,-16,-8,-37
1528278749798651,43,33,29,2,-10,0,14,46
1528278749798651,-10,-16,-13,-19,-18,-17,-10,-19
1528278749813937,6,1,9,17,23,9,4,-9
1528278749813937,-40,-17,3,6,-4,-8,-10,-12
1528278749814592,5,20,3,-8,-9,9,9,-5
1528278749814592,43,8,-1,1,4,7,27,86
1528278749835536,-16,9,4,-5,-9,-7,-12,-15
1528278749835536,27,24,25,30,20,1,-9,-14
1528278749837530,-2,-1,-33,-23,-4,3,0,-15
1528278749837530,-11,-2,17,3,3,13,18,44
1528278749849719,23,8,17,2,-7,-3,-9,0
1528278749849719,-17,-9,-1,9,9,-9,-4,15
1528278749858543,-21,-5,-11,13,6,5,-1,-30
1528278749858543,19,28,22,-6,-13,-15,3,-2
1528278749873841,-12,-30,-27,-6,1,-2,-4,5
1528278749873841,1,1,23,-3,1,4,-2,-22
1528278749875760,-21,-15,-22,6,-4,-8,0,13
1528278749875760,-2,-5,-8,-17,-11,-8,-15,-36
1528278749896683,26,9,8,-7,-2,12,20,41
1528278749896683,-13,2,15,25,5,-8,-19,-23
1528278749897454,2,-4,-2,20,37,11,8,20
1528278749897454,-30,-11,-17,-25,-50,-15,-10,-54
1528278749909460,3,-7,-5,9,38,12,2,40
1528278749909460,6,2,9,10,13,20,9,7
1528278749918457,24,27,28,3,-7,1,-1,3
1528278749918457,-15,-9,6,27,19,-5,-7,-18
1528278749933342,0,-5,-3,-18,-33,-19,-7,-15
1528278749933342,-9,2,-6,-30,-31,-7,3,10
1528278749935340,17,-4,-5,2,-9,-4,0,18
1528278749935340,-5,-2,-4,-5,5,11,6,-10
1528278749955570,1,-3,-11,-23,-42,-15,-5,-4
1528278749955570,-4,1,16,39,108,46,13,9
1528278749957386,-7,-9,-20,-16,-45,-20,-8,-19
1528278749957386,3,19,28,40,75,38,10,0
1528278749969586,-6,-12,-17,-27,-73,-28,-10,4
1528278749969586,8,-12,-27,-19,2,5,2,0
1528278749978263,-2,2,2,-15,34,8,1,-1
1528278749978263,0,1,6,33,6,-6,-5,5
1528278749993183,-11,-1,6,22,19,-5,-12,-44
1528278749993183,-3,-1,-1,-16,-57,-23,-4,14
1528278749995179,-10,-9,-17,-25,-2,0,0,-8
1528278749995179,7,-1,-6,-24,2,5,8,21
1528278750016533,-2,2,3,-1,-7,-2,-3,-12
1528278750016533,9,0,11,33,12,-9,-4,6
1528278750018273,-8,-6,-14,-11,-12,0,2,-3
1528278750018273,-11,-7,-9,-20,-20,-4,-4,-17
1528278750030197,-2,-2,-20,-16,10,4,-1,5
1528278750030197,7,2,15,1,-14,-1,1,8
1528278750039096,-6,0,5,21,8,-6,-4,-2
1528278750039096,-6,-1,-2,-2,-4,-3,-6,-8
1528278750053054,0,-3,-25,-33,2,-3,-1,2
1528278750053054,5,4,10,11,7,0,1,1
1528278750055017,-1,8,5,45,10,1,0,-6
1528278750055017,9,-3,10,-23,-19,-8,-1,10
1528278750075960,-8,-7,-1,22,27,6,0,-9
1528278750075960,-11,-17,-28,-54,-42,-11,0,13
1528278750076958,15,22,15,-11,-9,-1,5,13
1528278750076958,-3,-4,-6,5,11,0,-3,-11
1528278750090203,-16,-6,8,51,30,4,-8,-16
1528278750090203,14,4,20,-8,-7,1,1,22
1528278750114195,2,-2,-10,-7,-6,5,12,29
1528278750114195,13,2,8,-3,-9,-4,-3,-1
1528278750114858,-1,-24,2,-2,6,8,7,0
1528278750114858,-15,-8,-20,-10,-5,1,-6,-25
1528278750115855,-8,-6,-2,-6,-9,-11,-5,-3
1528278750115855,-6,5,5,8,5,-1,-2,-2
1528278750135801,2,-7,-21,-5,2,0,0,0
1528278750135801,0,6,30,6,4,4,3,-3
1528278750138037,-13,-10,-34,-24,-6,-2,-8,-26
1528278750138037,8,1,67,24,0,-3,1,11
1528278750150024,10,23,-17,5,-4,-4,-4,-4
1528278750150024,7,-4,-16,-2,13,3,5,8
1528278750165727,-2,1,-4,-5,-7,-5,-9,-13
1528278750165727,-21,-20,-62,-14,-3,-3,-6,-24
1528278750174109,11,15,71,15,8,2,4,26
1528278750174109,13,3,-29,-25,-22,-8,2,7
1528278750175721,-7,-8,8,28,14,1,-4,-12
1528278750175721,-2,5,-15,0,10,10,3,10
1528278750196486,-4,-3,10,4,9,0,-4,-6
1528278750196486,-17,-1,-17,-16,-16,-7,-5,-31
1528278750197073,16,-4,5,-8,-3,-1,3,33
1528278750197073,-3,3,14,2,-13,-6,1,-14
1528278750218119,-5,-3,-7,-6,-4,-3,-3,-14
1528278750218119,0,1,9,3,2,-1,-5,11
1528278750226007,-6,-4,-8,-7,-7,-2,-2,-16
1528278750226007,-6,-4,-6,-7,-1,-3,-2,1
1528278750234038,-4,-2,-5,-7,-3,0,0,-1
1528278750234038,2,0,0,4,5,0,-3,-9
1528278750234971,1,0,17,18,9,3,-1,-1
1528278750234971,-8,-3,-21,-9,-8,-2,0,-6
1528278750256154,7,-2,3,-4,-5,-8,0,13
1528278750256154,-17,-10,-10,-7,-8,-2,-2,-16
1528278750256926,16,11,7,-7,-3,0,1,17
1528278750256926,1,5,2,4,3,0,0,1
1528278750278961,0,2,-4,-2,-2,-1,-2,-2
1528278750278961,-4,-13,-9,-4,-4,-5,-1,2
1528278750279851,-4,-3,-3,-7,-4,0,-2,-12
1528278750279851,-4,-2,-1,10,4,-4,-6,-3
1528278750293955,0,-1,-2,1,-1,1,2,9
1528278750293955,1,1,-8,-5,-4,-3,-3,-6
1528278750294811,-9,-6,3,3,2,-2,0,10
1528278750294811,10,-2,-10,-9,-2,3,6,19
1528278750315754,1,1,-3,-3,-2,-2,-2,-4
1528278750315754,-1,0,2,0,1,-1,2,4
1528278750317749,-5,-3,-7,-5,-6,-3,-2,-10
1528278750317749,-4,0,0,-5,-7,-6,-6,0
1528278750329718,1,-1,-1,2,1,1,1,-3
1528278750329718,-2,0,2,5,1,0,0,-5
1528278750338732,3,-5,-3,-7,-3,-4,-1,2
1528278750338732,1,1,-1,1,2,-1,2,4
1528278750353692,-3,-1,-2,-2,-1,2,-2,-6
1528278750353692,-1,0,-1,5,1,2,-1,-5
1528278750354652,-10,-5,3,0,1,1,1,-1
1528278750354652,8,1,-5,-5,-5,-3,-5,-9
1528278750375595,4,1,1,1,-1,-1,-1,5
1528278750375595,-2,-1,1,1,0,0,2,1
1528278750377596,3,-1,-2,-4,-2,-2,-3,-4
1528278750377596,-8,-4,-1,-3,-2,1,1,-3
1528278750389558,-1,-2,-1,1,1,-2,-1,3
1528278750389558,2,1,-1,2,3,1,-1,0
1528278750398534,-6,-2,-1,-2,-2,1,-2,-8
1528278750398534,-10,-3,-4,-2,-3,-6,-7,-24
1528278750412497,8,1,0,-2,-3,0,5,24
1528278750412497,4,4,4,4,1,4,2,-3
1528278750419478,0,-1,-3,-3,-5,-7,-7,-6
1528278750419478,-5,-5,-1,-2,-1,8,14,1
1528278750435435,-4,-1,-2,0,-4,-3,-5,-12
1528278750435435,-5,-2,-2,-1,-3,-3,-2,-2
1528278750437430,11,4,1,-1,-1,-3,-3,4
1528278750437430,0,2,-3,0,0,4,1,2
1528278750449398,-3,2,4,-2,2,-4,-2,-2
1528278750449398,-10,-2,-1,0,-3,-3,-2,3
1528278750458374,13,-1,2,-1,0,-1,5,-2
1528278750458374,1,-1,-3,-1,3,8,-1,5
1528278750472336,-3,-5,-2,-1,0,2,0,-3
1528278750472336,-10,-5,-4,-1,-3,-14,-12,-10
1528278750479319,6,1,-2,-3,-2,1,-2,3
1528278750479319,7,11,8,2,3,3,4,8
1528278750495330,-3,-2,-4,-5,-5,-1,-1,-7
1528278750495330,3,4,-1,-2,-3,-4,-8,-1
1528278750497269,-9,-6,-4,0,-4,-4,-1,3
1528278750497269,1,-5,-7,-5,-5,-1,2,4
1528278750509238,-3,2,6,4,8,4,-1,-3
1528278750509238,0,-1,0,0,-1,-1,1,-4
1528278750518274,-7,-3,-5,-2,-3,-4,-7,-5
1528278750518274,6,7,-2,-3,-2,-9,-12,0
1528278750533194,-9,-19,-4,-3,-4,1,10,-1
1528278750533194,4,1,-1,-3,-1,7,4,2
1528278750539216,-3,0,1,1,0,2,-1,-1
1528278750539216,-1,-1,0,1,-3,-17,-13,-3
1528278750556167,2,2,-2,1,7,17,12,1
1528278750556167,7,1,2,3,2,6,4,5
1528278750557163,-4,-1,-1,1,-3,7,3,-2
1528278750557163,-6,-5,-2,-4,-2,-6,-2,-5
1528278750578087,1,-1,-1,0,-4,-17,-23,-2
1528278750578087,0,0,3,2,0,0,11,5
1528278750580048,-4,-2,-3,-6,-1,2,0,-4
1528278750580048,-2,-3,-1,-1,1,0,-2,-1
1528278750592051,-2,-4,-4,0,-1,-3,-3,-1
1528278750592051,1,-1,-2,-2,-1,1,0,-2
1528278750608972,-6,-1,-3,-5,-5,-9,-5,-4
1528278750608972,4,-1,0,2,0,-5,2,3
1528278750615953,0,1,-2,-6,1,14,4,3
1528278750615953,-2,0,-1,-2,-5,-1,0,-4
1528278750616976,-4,-1,-2,-1,-5,-26,-15,-5
1528278750616976,-3,-2,-3,0,-3,-23,-17,-1
1528278750638937,5,7,4,5,8,42,34,8
1528278750638937,1,-3,-2,-1,13,31,9,3
1528278750639891,-2,-2,0,-3,1,6,0,-3
1528278750639891,-7,-5,-3,-1,-8,-19,-13,-5
1528278750651856,-1,0,0,-4,-19,-44,-24,-6
1528278750651856,2,0,-5,-20,-3,-5,0,1
1528278750660833,2,2,8,28,12,32,18,5
1528278750660833,-3,0,2,-12,-3,0,-4,-3
1528278750675812,-6,-2,-1,29,8,-28,-19,-7
1528278750675812,-1,-3,-7,-9,-12,5,-3,-1
1528278750677787,1,2,-1,-21,5,18,19,5
1528278750677787,1,0,0,1,-1,11,10,1
1528278750698752,-2,-2,-2,-5,-2,2,1,-3
1528278750698752,-2,0,1,1,-3,-25,-20,-4
1528278750699962,-1,-4,-7,-14,-10,-14,-10,-3
1528278750699962,-1,-1,1,8,2,8,10,0
1528278750711951,-2,-3,-3,-8,0,-3,-4,-3
1528278750711951,0,1,1,16,-2,-19,-14,-1
1528278750721014,2,6,3,-1,1,-3,-10,2
1528278750721014,3,4,3,9,6,22,21,6
1528278750736056,0,0,2,-11,4,28,7,0
1528278750736056,-3,-6,-3,-1,2,6,12,0
1528278750738191,-3,-4,-2,-7,-5,-19,-9,-4
1528278750738191,-1,-3,-5,4,2,2,-4,-2
1528278750758217,-2,1,-1,-15,-8,-8,-1,-1
1528278750758217,-1,-4,-4,-7,-8,-4,-2,-2
1528278750760208,0,0,0,32,13,1,2,-1
1528278750760208,-4,-1,-7,-11,-6,-7,-7,-2
1528278750781408,2,3,4,0,-3,-2,-1,0
1528278750781408,-2,-2,0,3,0,-1,1,1
1528278750783189,0,1,1,2,-9,-5,-1,-1
1528278750783189,-2,-7,-2,-20,6,6,1,-3
1528278750796498,-3,-8,-15,-13,-6,-1,1,-2
1528278750796498,2,6,8,2,-2,-4,0,2
1528278750797415,-5,-2,-1,11,0,-3,-4,-4
1528278750797415,0,-1,3,3,-2,5,1,0
1528278750818605,-2,1,3,1,-3,-4,-3,-2
1528278750818605,4,-3,3,1,4,2,3,2
1528278750819365,-5,5,-6,-12,-7,-4,-5,-5
1528278750819365,-3,-3,-2,3,-4,-2,-4,-2
1528278750832321,0,2,3,-4,-1,-4,-1,-1
1528278750832321,-5,-5,-8,1,-2,-3,-4,-3
1528278750841297,0,-6,0,4,1,3,3,1
1528278750841297,-3,2,-1,8,-1,-4,-3,-2
1528278750856485,-2,-5,1,12,2,0,-1,0
1528278750856485,0,2,1,-4,-1,1,0,-2
1528278750857255,0,-1,-4,-17,-3,1,1,-1
1528278750857255,-2,-3,-1,-3,-2,-1,-1,0
1528278750879202,-1,-2,-1,9,-1,-1,-2,-3
1528278750879202,0,1,-3,-14,0,-3,-4,-1
1528278750880193,-1,-3,-1,-2,1,1,1,-1
1528278750880193,-2,-4,-2,8,0,-1,-3,-2
1528278750892381,2,4,1,-8,-2,-1,-2,0
1528278750892381,-1,0,-6,-27,-11,-5,-2,-1
1528278750901138,-1,-2,9,36,20,5,3,1
1528278750901138,0,-2,-3,7,-1,0,-1,-1
1528278750916100,0,-1,0,3,-2,-4,0,-1
1528278750916100,-3,-1,0,4,-2,0,-3,-1
1528278750917095,0,-1,-3,-17,-7,0,2,1
1528278750917095,0,1,2,-3,-2,-2,0,-1
1528278750939048,1,-2,-6,-1,-1,-3,-3,0
1528278750939048,-1,0,1,7,0,-1,-1,0
1528278750940597,1,-1,0,-8,-2,0,0,1
1528278750940597,0,-1,-2,2,1,-1,-2,-2
1528278750951892,-1,-1,-4,-11,-4,-1,-1,0
1528278750951892,-1,0,0,7,2,0,-1,0
1528278750960545,-1,-2,-3,-3,-1,-3,-2,-2
1528278750960545,0,-3,-1,-7,-3,0,-2,0
1528278750975509,-1,-1,0,-1,-1,0,-1,0
