timestamp,emg1,emg2,emg3,emg4,emg5,emg6,emg7,emg8
1528444832212981,-4,-3,-5,-14,-26,-65,-42,-11
1528444832212981,-2,1,5,7,11,31,19,0
1528444832228938,2,1,0,6,19,69,41,9
1528444832228938,8,3,4,4,13,9,3,10
1528444832242901,4,3,2,1,11,31,13,1
1528444832242901,-5,0,0,5,9,25,2,-5
1528444832250879,-5,-1,-2,-7,-19,-54,-38,-4
1528444832250879,1,-4,-6,-10,-11,-29,-5,-2
1528444832266855,-1,-4,-5,-9,-3,-16,-11,9
1528444832266855,-2,-3,-4,-16,-45,-83,-40,-5
1528444832287779,4,5,6,17,26,82,36,5
1528444832287779,-3,-2,-3,1,14,15,-6,-9
1528444832295786,-9,-5,-5,-10,-14,-41,-24,-2
1528444832295786,2,-4,-6,-14,-24,-35,-9,-5
1528444832310719,6,8,6,1,-5,-10,1,8
1528444832310719,-1,2,4,13,20,62,44,3
1528444832318696,-5,2,1,0,-11,-4,-20,-14
1528444832318696,2,-3,-4,-2,22,-13,-2,8
1528444832333696,-3,-4,-6,-15,-19,-29,-36,-8
1528444832333696,0,2,4,-5,5,16,5,-24
1528444832340640,3,2,4,18,18,39,35,28
1528444832340640,-4,2,3,2,-1,10,-3,-13
1528444832355598,-2,-5,-6,-9,-3,24,11,-9
1528444832355598,3,8,10,6,20,42,23,2
1528444832363577,1,4,4,13,33,42,24,-4
1528444832363577,5,-5,-4,0,-15,-32,-15,25
1528444832370559,0,-3,0,-2,-23,-75,-41,-11
1528444832370559,2,0,-2,-5,5,64,28,9
1528444832385518,-5,4,4,-6,15,-24,-7,-5
1528444832385518,0,3,4,8,22,64,10,1
1528444832393540,8,-1,-2,-16,-12,-31,15,13
1528444832393540,-2,-3,8,14,-14,-17,-40,-14
1528444832408493,2,0,14,16,30,37,32,24
1528444832408493,6,0,2,-6,-16,-30,9,-1
1528444832430400,-9,-12,-18,-28,-35,-13,-20,11
1528444832430400,13,10,10,17,-13,-38,-12,-6
1528444832438411,-8,2,-8,-7,4,38,16,4
1528444832438411,-2,-3,0,-1,4,23,10,3
1528444832460320,3,11,0,-18,-22,-17,-14,-20
1528444832460320,-9,2,7,23,34,5,2,-11
1528444832468297,6,-3,-3,-1,-8,-14,-17,-3
1528444832468297,-3,-3,5,-2,-5,2,-6,8
1528444832483258,1,3,15,27,8,5,-4,-1
1528444832483258,-2,0,2,12,13,-22,-20,-21
1528444832490238,-9,-21,-19,-14,-15,-4,-6,-17
1528444832490238,-6,-10,-20,-23,-25,28,2,-1
1528444832498218,5,2,-4,-8,13,24,9,13
1528444832498218,1,6,-3,-15,-16,-8,9,8
1528444832521156,8,0,-10,-8,14,39,29,42
1528444832521156,-4,9,2,-6,-8,-9,0,3
1528444832536115,-7,2,-13,-25,-23,-14,-19,-38
1528444832536115,-4,-24,-10,-7,-3,6,13,19
1528444832551078,-6,-2,1,-3,-3,-7,-9,-12
1528444832551078,9,10,22,56,65,43,15,15
1528444832558058,-1,11,23,44,41,13,-7,-20
1528444832558058,-3,2,-16,-13,-4,-13,-2,-14
1528444832566037,-2,-7,-5,-16,-3,13,16,24
1528444832566037,6,-3,-3,-39,-57,-31,-13,10
1528444832573017,-4,4,-1,-6,0,-13,-3,-1
1528444832573017,-1,14,25,44,32,14,-5,-22
1528444832587978,-2,-5,-5,-10,-16,-18,-16,-18
1528444832587978,-2,-8,12,24,-11,-14,-10,1
1528444832602939,0,2,-4,16,8,16,19,6
1528444832602939,-4,2,-3,-7,-8,-16,-11,-23
1528444832610917,5,7,3,-4,2,2,2,-4
1528444832610917,-1,-2,-14,-18,2,6,4,9
1528444832632870,-5,-5,2,4,-2,1,1,6
1528444832632870,3,2,1,5,-9,-7,-1,-22
1528444832640840,0,-16,-8,-4,-4,2,4,20
1528444832640840,17,3,2,-5,2,1,7,20
1528444832655823,-5,4,9,5,-7,-4,-12,-42
1528444832655823,-13,4,-10,-8,-3,-7,-6,-2
1528444832670755,33,-12,3,10,9,12,22,14
1528444832670755,-8,6,-15,-36,-16,-6,1,19
1528444832677737,1,1,9,16,-3,-3,2,13
1528444832677737,-9,4,8,-3,-5,-10,-15,-36
1528444832685715,-2,2,2,-2,0,2,-3,-6
1528444832685715,2,4,-15,-14,-12,-9,-8,1
1528444832693694,15,-4,-13,-14,-6,-1,-3,-1
1528444832693694,-7,-2,-24,-12,0,3,-1,13
1528444832708734,-3,-8,22,-1,1,1,7,42
1528444832708734,6,11,8,3,-3,-2,-2,-19
1528444832723614,10,-1,-13,-3,-1,-5,-10,16
1528444832723614,-1,-1,2,-5,-3,-2,0,2
1528444832730605,-10,-18,-11,4,-4,-6,9,-29
1528444832730605,3,7,-5,2,5,3,-10,3
1528444832745557,-18,0,8,3,6,7,11,-7
1528444832745557,7,-8,-10,-5,-7,-5,9,17
1528444832753534,-5,-2,-10,-13,-3,1,-16,19
1528444832753534,6,-16,4,-4,-4,-6,2,-12
1528444832768495,-7,-1,-4,0,0,4,9,-13
1528444832768495,-5,0,1,3,-4,-2,-5,-7
1528444832783454,3,-6,-7,-7,-4,1,6,-16
1528444832783454,-5,4,8,-7,-10,-12,-7,-2
1528444832790436,-5,5,2,0,-7,-8,0,-9
1528444832790436,5,-3,-1,20,33,29,11,2
1528444832805395,-8,-2,6,2,-1,-2,9,31
1528444832805395,7,8,12,-6,-22,-18,-8,6
1528444832813374,-2,-5,-11,0,18,3,-11,-7
1528444832813374,-12,-14,-10,2,-5,-8,-3,-9
1528444832828340,0,8,11,7,16,8,2,-2
1528444832828340,-2,-1,-4,-18,-6,-4,3,10
1528444832843294,-8,4,6,0,-6,2,-1,-7
1528444832843294,13,8,12,2,4,3,2,15
1528444832850277,-2,-12,-22,5,-9,0,-5,-8
1528444832850277,-5,-15,0,6,8,6,7,12
1528444832866233,-9,-3,-10,-13,-6,-2,-2,-17
1528444832866233,1,2,9,4,-20,-8,-4,-2
1528444832873214,13,6,-3,-10,1,1,3,7
1528444832873214,0,1,-4,-13,-14,-11,-8,5
1528444832888176,-2,-1,-1,2,5,1,-2,-5
1528444832888176,-5,-4,-8,2,9,2,-5,-7
1528444832896154,-2,9,3,-8,-10,-6,-5,-13
1528444832896154,-2,-4,-9,-24,-45,-21,-3,17
1528444832903135,-1,-4,11,48,75,27,6,-6
1528444832903135,4,10,-3,-20,-2,-7,-2,-39
1528444832911114,-4,9,1,3,13,1,-4,38
1528444832911114,-1,-3,7,9,-21,-18,-6,-7
1528444832933101,-2,-7,6,41,48,31,12,0
1528444832933101,1,-4,3,-16,-6,-4,-2,-4
1528444832941035,-2,1,-4,-16,-15,-5,2,-11
1528444832941035,0,9,-5,-16,-7,-2,-2,1
1528444832955993,-4,-3,-5,-13,-21,-10,-6,-1
1528444832955993,-7,-12,-22,-20,-13,-4,2,9
1528444832962975,-2,-4,-4,-6,-16,-9,-6,-32
1528444832962975,1,4,11,20,21,10,10,55
1528444832970955,18,6,0,3,-12,-5,2,-7
1528444832970955,-16,4,-1,-7,1,4,1,20
1528444832977935,-4,-11,5,-4,-8,-7,-3,-24
1528444832977935,-1,3,-6,4,9,0,-15,21
1528444832986057,0,0,0,-14,-6,9,14,6
1528444832986057,13,1,12,24,1,-4,6,7
1528444832993039,-10,1,-20,-7,-2,-1,-10,-8
1528444832993039,-6,0,9,14,7,1,-7,-22
1528444833015868,48,10,18,-26,-20,-16,-12,16
1528444833015868,-31,1,-2,1,-1,2,-9,-12
1528444833022816,-10,-2,1,0,3,9,21,21
1528444833022816,-7,-17,-18,-14,2,2,3,30
1528444833030795,-5,-2,-6,0,-15,-12,-6,-6
1528444833030795,12,-5,-13,0,3,2,-6,-39
1528444833038825,13,2,32,15,9,4,7,49
1528444833038825,12,27,14,0,6,-5,-15,-65
1528444833053788,-19,-24,-9,-9,-7,-1,17,52
1528444833053788,-8,8,2,-3,-6,-12,-14,-15
1528444833061059,-9,-1,-15,2,12,17,6,-21
1528444833061059,23,1,14,11,6,9,22,0
1528444833068871,-14,1,-13,-13,-6,-2,-20,-37
1528444833068871,7,5,4,-13,-24,-10,8,15
1528444833076013,1,-6,7,15,25,-4,-17,-5
1528444833076013,-8,-5,-2,-9,-13,-3,0,-15
1528444833083839,-8,6,-3,7,8,1,-10,-35
1528444833083839,5,-3,2,-6,-7,7,15,30
1528444833090979,6,13,12,8,-10,-3,-2,-2
1528444833090979,-7,-9,-20,-30,-20,-10,-1,-4
1528444833105933,-10,9,7,24,9,-6,-7,-15
1528444833105933,5,9,15,18,10,2,-5,12
1528444833114751,0,-11,-12,-11,-12,-5,-6,-14
1528444833114751,1,-4,-14,-24,-3,8,5,-9
1528444833128780,-4,-10,-4,-11,-37,-14,-5,6
1528444833128780,8,11,28,38,28,2,-4,5
1528444833143791,-13,-22,-30,7,40,8,-5,-23
1528444833143791,-5,-2,0,-18,-29,-15,-5,24
1528444833150792,9,-7,-19,-18,-1,9,10,8
1528444833150792,-9,-8,6,-20,-26,-11,-13,-13
1528444833158783,11,16,13,14,7,0,2,7
1528444833158783,-2,6,-10,5,8,15,10,3
1528444833173593,-17,-29,-5,13,10,-7,-6,-12
1528444833173593,3,1,0,4,13,2,-1,0
1528444833180574,5,13,16,0,-19,-12,-2,1
1528444833180574,-3,-5,-16,-23,-18,-13,-9,-12
1528444833195704,1,4,-5,-27,-23,-5,4,8
1528444833195704,2,-2,10,27,20,11,2,1
1528444833203678,-3,6,-7,-18,-6,-4,-5,-5
1528444833203678,0,-1,2,9,-5,4,4,3
1528444833210663,1,-13,-10,5,7,4,5,-28
1528444833210663,1,6,4,-4,4,0,1,4
1528444833225619,-3,-2,18,38,13,3,0,-3
1528444833225619,1,3,-7,-8,5,5,3,2
1528444833233814,0,3,12,-4,-14,-2,0,-12
1528444833233814,1,-9,-7,8,21,9,3,-14
1528444833248785,6,13,3,-10,-10,-3,1,17
1528444833248785,0,-10,-13,-15,-12,-5,-1,-1
1528444833255749,-3,4,7,16,3,4,3,7
1528444833255749,-2,-1,6,11,4,-1,-3,-14
1528444833263802,-4,-3,-5,-5,6,3,-11,41
1528444833263802,-4,5,3,-5,4,3,10,-8
1528444833270925,10,-13,-15,-23,-15,-8,-1,-2
1528444833270925,-1,9,2,3,-2,-4,-2,31
1528444833285780,-9,2,11,15,12,3,-8,-44
1528444833285780,-4,-12,3,4,6,6,6,11
1528444833293837,7,1,-7,-15,-10,-4,5,66
1528444833293837,0,-8,7,10,4,2,-1,-19
1528444833308352,-1,9,-5,-4,-1,1,8,-6
1528444833308352,-1,7,7,14,-4,-9,-12,-10
1528444833316285,-1,-5,5,13,2,-2,-4,-14
1528444833316285,0,3,-10,-16,-11,5,6,8
1528444833331153,-2,1,-6,-6,-3,1,-1,-22
1528444833331153,0,-2,2,2,-8,-7,-4,34
1528444833346252,-6,-1,0,-12,-14,-1,4,-16
1528444833346252,-8,-5,-10,-8,-11,-11,-20,-24
1528444833353104,4,7,3,2,4,-7,-22,4
1528444833353104,6,10,4,4,15,13,18,18
1528444833368195,26,-16,-4,-9,-10,1,16,34
1528444833368195,-47,7,2,3,2,-8,-3,50
1528444833376017,-9,-11,2,4,4,6,-1,-32
1528444833376017,-13,-3,-9,0,4,2,-8,-43
1528444833397956,-16,-2,-9,0,-6,-9,-8,-4
1528444833397956,8,-2,-1,-7,-10,-4,-5,12
1528444833405933,-15,9,-8,-22,-34,-5,3,-16
1528444833405933,18,12,2,4,33,16,1,-23
1528444833421058,-3,14,29,13,-10,-16,-7,1
1528444833421058,6,-27,-24,9,8,9,1,-9
1528444833428882,-7,4,-10,-26,-9,1,1,-10
1528444833428882,6,-6,7,-14,-18,-5,6,5
1528444833443862,1,-3,-18,-26,-41,-4,5,22
1528444833443862,-2,7,23,62,76,21,1,-5
1528444833458164,5,-3,-14,-30,-3,12,20,7
1528444833458164,-2,-18,-7,-21,-26,-16,-10,-3
1528444833466140,-5,21,-1,-14,0,-4,-6,-13
1528444833466140,7,-7,3,17,-8,-3,2,3
1528444833480938,-2,-18,-11,4,-5,-1,-3,16
1528444833480938,1,5,11,1,-19,-5,-3,-11
1528444833488077,3,9,25,47,70,21,-1,0
1528444833488077,7,3,-18,-29,-15,-9,-3,15
1528444833503037,-9,-14,-16,-13,8,9,1,-13
1528444833503037,0,10,9,8,3,2,-1,-2
1528444833518840,8,2,-10,-28,-14,-6,0,0
1528444833518840,-7,-7,-13,-17,-29,-18,-6,-1
1528444833526030,2,0,4,-3,13,17,8,-37
1528444833526030,-3,3,-16,-9,-5,-3,4,28
1528444833541197,0,-3,9,12,14,7,0,3
1528444833541197,-3,8,13,-4,-25,-18,-9,-4
1528444833548269,2,-7,-13,-18,-11,-8,-3,-7
1528444833548269,0,0,-6,-7,3,5,4,-25
1528444833563356,-7,10,38,48,18,-4,-2,9
1528444833563356,4,-15,-11,-5,1,5,2,-3
1528444833578160,1,2,6,52,63,25,4,-7
1528444833578160,-2,9,4,1,4,0,0,28
1528444833586296,1,-5,-5,-7,-28,-15,-6,11
1528444833586296,5,1,2,-6,8,1,-3,-4
1528444833601235,-6,3,-1,-4,-2,2,4,-17
1528444833601235,9,1,2,11,17,5,5,9
1528444833608210,-8,-6,-6,-21,-19,-8,0,-45
1528444833608210,-3,-11,-5,5,-6,-5,-8,61
1528444833623191,-1,2,-14,-13,-8,-6,4,8
1528444833623191,4,3,2,-10,5,3,-2,-28
1528444833638360,6,-3,1,-2,-7,-11,-4,6
1528444833638360,-1,8,-6,-17,-2,7,-1,-2
1528444833645543,-5,-20,-9,-2,3,0,1,44
1528444833645543,6,11,8,11,6,5,5,-19
1528444833661367,1,5,-2,-11,-5,2,-1,-7
1528444833661367,-14,-19,14,1,-14,-13,0,2
1528444833668477,8,18,0,5,2,-2,-8,1
1528444833668477,-8,-10,11,5,4,7,10,-29
1528444833683435,12,-4,-11,-12,-10,-5,-15,28
1528444833683435,-1,-1,-9,-11,-2,1,4,-8
1528444833698438,6,-7,4,3,-5,-6,-2,9
1528444833698438,-5,6,-1,-5,2,-2,-2,-15
1528444833705575,1,-4,0,4,-3,-1,4,13
1528444833705575,3,7,2,12,6,1,-3,16
1528444833721410,-9,0,-1,-4,-2,-4,-12,-72
1528444833721410,5,0,-5,6,5,6,3,14
1528444833728514,-6,-3,0,-9,-7,-5,2,13
1528444833728514,7,-5,-5,-6,-1,2,-5,1
1528444833743475,-4,0,-4,-1,2,1,4,10
1528444833743475,-3,4,3,3,-4,-4,4,-15
1528444833758642,-2,-5,-11,-6,-6,-2,4,23
1528444833758642,2,1,-3,0,-1,-3,-7,1
1528444833765622,-9,0,0,-3,-2,1,1,-13
1528444833765622,-1,-22,1,-5,-7,-6,-1,10
1528444833780445,-2,6,0,-6,-19,-6,3,-1
1528444833780445,-2,0,0,7,20,10,7,9
1528444833788766,4,0,-3,-6,-11,-9,-12,-8
1528444833788766,3,8,-1,0,-3,-3,-7,-3
1528444833803576,3,6,12,-1,3,7,6,8
1528444833803576,4,2,-1,0,-3,-1,-8,9
1528444833818538,-2,-2,-3,3,0,-2,-4,-7
1528444833818538,-2,0,9,1,-2,-4,-2,0
1528444833825537,0,-5,-2,1,1,4,9,6
1528444833825537,4,5,0,0,-2,0,0,0
1528444833848439,-2,1,-2,-3,0,-2,-8,9
1528444833848439,-5,-4,3,3,-2,0,5,-8
1528444833855421,1,0,3,2,-2,-3,-3,0
1528444833855421,-7,2,-3,3,4,-1,-3,1
1528444833870381,-1,0,4,-2,-1,1,4,-6
1528444833870381,0,-3,-13,-8,-8,-6,-9,-1
1528444833878359,3,-2,3,2,4,1,2,2
1528444833878359,1,4,11,7,6,5,9,6
1528444833893319,3,-1,-7,-2,-1,-3,1,1
1528444833893319,-6,-6,-12,-16,-17,-8,-3,-3
1528444833908279,-4,-15,-5,-7,-6,-5,-1,-3
1528444833908279,-1,14,2,-8,-20,-7,-4,2
1528444833923239,-5,-12,2,0,2,-2,-5,-9
1528444833923239,6,12,-1,-6,-6,-4,-5,0
1528444833930236,1,2,0,-3,-3,1,0,-2
1528444833930236,-6,-10,-3,0,0,0,3,-4
1528444833946198,-7,-1,3,-3,-6,-6,2,-16
1528444833946198,1,2,6,8,7,10,1,19
1528444833961138,-2,-14,-3,-5,-6,-4,-7,-5
1528444833961138,-5,2,-3,0,-5,-4,1,-6
1528444833968119,-1,6,6,8,15,3,-3,3
1528444833968119,-3,2,-8,-8,-3,0,-2,-1
1528444833983079,1,0,-1,-2,-4,-4,-3,1
1528444833983079,-2,-9,0,2,4,0,5,0
1528444833991058,3,1,0,2,-1,-2,6,8
1528444833991058,0,-3,-1,-3,-7,-2,-1,-5
1528444834006020,-4,2,-6,2,0,-2,-2,3
1528444834006020,4,-3,-8,1,8,6,4,-1
1528444834021013,-2,-10,-12,1,3,4,-2,2
1528444834021013,0,5,7,-4,-4,-3,-1,-2
1528444834027996,2,-2,-4,-7,0,-1,1,2
1528444834027996,5,-5,-16,-6,-6,-5,-4,5
1528444834050953,2,11,8,9,13,9,3,2
1528444834050953,-9,-11,-3,1,-2,-4,-3,-7
1528444834057934,-5,-2,18,6,0,-3,-3,-2
1528444834057934,8,8,3,-7,-10,-5,-3,1
1528444834072893,2,6,-2,-1,-2,-3,1,1
1528444834072893,-2,-8,-3,-11,-13,-6,-3,-3
1528444834087855,12,14,8,7,12,14,11,6
1528444834087855,-1,0,-7,-1,4,0,-3,-3
1528444834104809,-2,0,-5,-2,9,1,-2,-1
1528444834104809,1,13,18,2,-4,0,9,2
1528444834110794,-2,6,-8,-7,-7,-9,-4,-2
1528444834110794,3,-7,-9,15,25,23,14,6
1528444834133799,0,-5,6,-5,-5,-5,-1,1
1528444834133799,-2,0,3,3,4,3,-2,-1
1528444834148830,-4,3,15,-1,-12,-10,-6,-2
1528444834148830,4,5,-1,13,30,19,6,3
1528444834155972,-2,-12,-15,-7,-1,-3,-2,0
1528444834155972,3,4,1,-2,-4,-3,-1,0
1528444834170994,-5,1,1,-3,-2,-3,-3,-3
1528444834170994,-4,-9,-2,-4,-11,-7,-2,-1
1528444834185948,0,-8,-4,1,-3,-4,-1,1
1528444834185948,-2,-4,1,0,-1,0,0,0
1528444834200762,-1,-2,-3,-1,-1,2,1,0
1528444834200762,0,2,0,3,0,-1,-3,0
1528444834208835,0,3,3,0,7,3,1,1
1528444834208835,-1,-2,1,-2,-2,-3,-6,-2
1528444834223788,-2,-2,-3,1,0,1,-2,-3
1528444834223788,0,-1,-4,-1,0,-2,-8,-5
1528444834230803,-2,2,2,-1,0,0,1,0
1528444834230803,0,1,1,1,2,-3,-15,-10
1528444834245902,-3,-1,-2,0,-1,3,1,3
1528444834245902,6,-1,-2,-2,-3,-3,13,6
1528444834260992,-3,-1,-5,-1,-1,-2,-19,-9
1528444834260992,1,2,2,-4,-5,-3,11,4
1528444834267974,4,1,1,4,4,4,5,4
1528444834267974,0,-1,0,0,0,-2,-2,0
1528444834282998,1,4,-3,-3,-5,-3,3,0
1528444834282998,-7,-17,-11,-6,-6,-1,-3,-2
1528444834291106,4,3,0,0,1,2,2,1
1528444834291106,-5,0,-1,-2,-5,-4,-3,-8
1528444834306074,0,-1,0,1,1,-1,-1,-1
1528444834306074,-1,8,3,1,3,1,-1,-6
1528444834321054,0,3,2,0,2,0,3,-1
