timestamp,emg1,emg2,emg3,emg4,emg5,emg6,emg7,emg8
1528446504115669,-3,0,0,0,0,1,-1,-2
1528446504115669,0,-1,0,-2,-1,1,0,-2
1528446504115669,0,-2,-2,0,-2,-1,-2,-3
1528446504115669,-1,0,-2,0,0,-1,-1,-1
1528446504116666,0,-2,-2,-1,-1,-1,-1,0
1528446504116666,-2,-1,-1,-1,-1,-1,-2,-1
1528446504117664,0,-2,-2,-1,-1,-1,-1,-1
1528446504117664,-2,1,-1,0,-2,0,-1,-1
1528446504137610,0,-2,-1,-2,-1,-2,-1,-2
1528446504137610,0,-2,-2,0,-1,-1,0,-2
1528446504137610,-2,0,0,-2,1,-2,-2,-2
1528446504137610,-2,-3,-1,-1,-3,-2,-2,-1
1528446504145589,-1,-1,0,-1,-2,-1,-2,-1
1528446504145589,0,-1,0,0,-2,-1,-1,1
1528446504161547,-3,0,-1,0,-1,0,-1,-1
1528446504161547,-1,-2,-2,-1,-1,-1,-1,-2
1528446504165550,1,-1,-1,0,-1,0,-2,-1
1528446504165550,-1,-1,-1,-2,-1,-2,-1,0
1528446504180495,-1,-1,-3,-2,-1,-3,-1,0
1528446504180495,-1,-2,0,0,0,0,-2,0
1528446504192464,0,-1,-2,0,0,-2,0,0
1528446504192464,-1,-1,-1,-1,0,-3,0,0
1528446504204430,-1,1,-1,-1,-2,0,-1,0
1528446504204430,-2,-2,-3,-2,-3,-3,0,-2
1528446504251305,-1,-1,-2,0,-1,0,0,0
1528446504251305,0,1,-1,-1,-1,-4,-2,-2
1528446504253300,-1,-2,0,-1,-2,0,0,-1
1528446504253300,0,-1,-1,-1,-1,-1,-1,-1
1528446504253300,0,0,-1,0,-1,0,-1,1
1528446504253300,0,-2,-1,-2,-1,0,-1,-2
1528446504257290,0,0,-3,-1,-1,-3,-2,-1
1528446504257290,0,-1,0,0,-2,-1,-1,-1
1528446504257290,-3,0,-1,-1,-1,-1,-1,-1
1528446504257290,-1,-1,-2,0,0,0,-1,0
1528446504263273,0,-3,-1,0,-1,-2,-2,-1
1528446504263273,-2,-1,-1,-2,-1,-1,-2,-3
1528446504270254,-1,-2,-1,-1,-1,-2,-2,-2
1528446504270254,-2,-1,-1,-1,-1,-1,-2,0
1528446504285214,-1,-1,-2,0,-1,-2,-2,-2
1528446504285214,-2,-2,-2,0,-1,-1,-1,0
1528446504306158,-2,-2,-1,-2,0,-1,-1,0
1528446504306158,0,0,-1,0,-2,-1,0,-2
1528446504317129,0,0,0,-2,0,-1,0,-2
1528446504317129,-2,-2,-2,-2,-2,-4,-2,-2
1528446504318126,-1,-1,-2,0,-2,-1,-1,-2
1528446504318126,-2,-2,0,0,-2,0,1,-2
1528446504331091,-1,0,-1,-2,-1,-2,-1,-1
1528446504331091,0,0,-1,-1,1,0,-1,-1
1528446504332088,-1,0,0,-1,-1,-1,-2,-1
1528446504332088,-1,-1,-2,-1,-1,-1,-1,-1
1528446504354030,-2,-1,-2,1,-1,0,-2,-1
1528446504354030,-3,-2,-2,1,0,-2,-1,0
1528446504355028,-1,0,-1,-1,1,-1,-1,0
1528446504355028,0,-2,-1,-1,0,-2,-2,-2
1528446504376969,-2,-1,-1,-2,-1,0,-1,-2
1528446504376969,0,0,-1,-1,-3,-1,-1,-1
1528446504377966,0,-2,-2,-1,-3,-3,-2,-2
1528446504377966,-1,-1,-2,-1,-2,-1,0,-2
1528446504390931,1,0,0,-1,-3,-1,-1,-2
1528446504390931,-1,-2,1,0,-1,-1,0,0
1528446504391930,0,-2,-1,-1,-2,-1,-1,-2
1528446504391930,-3,-1,-1,-2,0,1,0,0
1528446504413870,-1,0,-1,0,0,-1,0,0
1528446504413870,-1,-1,-1,-1,0,0,0,-1
1528446504414868,0,0,0,-1,0,0,-1,-1
1528446504414868,-1,-1,0,-2,-1,-2,-2,0
1528446504436813,-1,-1,0,-2,0,0,-1,-1
1528446504436813,0,-2,-2,-1,1,0,-1,0
1528446504437807,-2,-2,-3,-1,-1,-4,-1,-1
1528446504437807,-1,0,0,-2,0,-1,-1,0
1528446504450773,-1,0,-2,-2,0,-1,0,-1
1528446504450773,-1,-1,-1,-1,-2,-2,-2,-2
1528446504451769,-1,-1,-1,0,-3,-2,-1,0
1528446504451769,-2,0,-2,-1,-1,-2,-2,0
1528446504473719,-1,-1,0,1,-1,-1,-1,1
1528446504473719,-1,0,-1,-3,-1,0,0,0
1528446504474724,-1,-1,0,-1,0,1,-1,-2
1528446504474724,0,-1,-1,0,-3,-1,-2,-2
1528446504495707,0,-2,-1,-1,-1,0,1,-1
1528446504495707,-1,0,-2,-1,-1,-2,-1,-1
1528446504503631,-1,-2,-1,-2,-1,-2,0,-1
1528446504503631,-1,0,0,-2,-2,1,-2,-1
1528446504511651,-1,-2,-2,-1,-2,-2,-2,-1
1528446504511651,-2,-1,0,0,-2,-2,-1,-2
1528446504511651,0,1,0,-1,-1,-1,-1,0
1528446504511651,0,-1,-1,-2,-1,0,-1,-1
1528446504533578,-3,-1,0,-1,-1,-2,-1,-1
1528446504533578,-2,-1,-1,-1,-1,-1,-1,-2
1528446504534549,-2,0,-2,0,-2,0,-1,-3
1528446504534549,0,-2,0,0,-1,-1,-1,0
1528446504556491,-1,1,0,-3,-2,-2,-2,0
1528446504556491,0,-1,-1,-1,0,-2,-1,-2
1528446504557492,-1,-1,0,-1,-1,-1,1,-1
1528446504557492,0,-1,-2,-1,0,-1,-1,-2
1528446504571451,0,-1,-2,1,-1,1,-1,-1
1528446504571451,-1,-1,-1,-1,0,0,-1,-1
1528446504586438,-1,0,-1,-3,0,-2,-2,-1
1528446504586438,-1,-2,-1,1,-1,-2,-1,-1
1528446504593391,-1,0,-1,1,-2,1,0,1
1528446504593391,0,-1,-2,-4,-4,-1,-2,-2
1528446504594390,1,-2,-1,0,-1,-1,0,-2
1528446504594390,0,-2,-1,-1,0,-2,0,0
1528446504617354,0,-2,-1,-1,-1,-1,-2,0
1528446504617354,-1,-1,-1,0,0,0,-1,1
1528446504617354,-2,-3,-1,-1,-1,0,-2,-1
1528446504617354,-1,-1,0,0,-1,-1,-1,0
1528446504630293,-1,-2,-1,0,0,-1,-1,0
1528446504630293,0,-2,-1,0,-1,0,-2,-1
1528446504638316,-1,-1,-1,0,-1,0,-2,-1
1528446504638316,-1,-2,-2,0,-1,0,-1,-2
1528446504654281,-1,-1,-1,-1,-1,-2,1,-2
1528446504654281,-1,0,0,1,-3,-2,-2,-1
1528446504655227,-1,-1,-2,-3,0,-1,-1,-1
1528446504655227,-2,-2,-1,-2,-1,0,1,0
1528446504677194,0,0,-1,0,-1,-3,-1,0
1528446504677194,0,-2,-1,-1,0,0,-1,-1
1528446504678182,0,0,0,-1,-1,-1,-1,-1
1528446504678182,-1,0,-2,-1,0,-1,-1,-1
1528446504690134,0,-2,-2,-3,-1,-3,-3,-2
1528446504690134,-1,-1,-1,-1,0,0,0,-1
1528446504699162,-3,-1,-2,-1,-1,-1,-1,-1
1528446504699162,-1,0,-1,-1,0,-1,-1,-3
1528446504714117,-1,-1,-2,-1,-2,-1,-2,-1
1528446504714117,-1,-2,-1,0,-1,-2,-1,-1
1528446504715098,-1,-2,0,0,-2,0,-2,-1
1528446504715098,0,0,-2,-1,1,-1,-1,-2
1528446504743989,-3,-1,-2,0,1,1,-1,-2
1528446504743989,-1,-2,-1,-2,0,0,1,-2
1528446504744986,-1,0,-2,-3,-2,-2,0,-2
1528446504744986,-2,-2,-1,-1,-2,-2,-2,0
1528446504751004,-2,1,0,0,0,0,-1,-1
1528446504751004,0,0,0,-1,0,-1,0,1
1528446504758949,-1,-2,0,0,0,-1,-1,-1
1528446504758949,0,-1,-2,-1,-1,-1,0,-1
1528446504774906,-2,-3,0,-1,-1,-2,-2,-1
1528446504774906,-2,0,-1,-2,-2,-1,0,0
1528446504774906,0,1,-3,0,0,-2,0,-2
1528446504774906,-2,-1,-2,0,-2,-1,-2,0
1528446504797102,-1,-1,1,-1,-2,1,0,-2
1528446504797102,-1,-1,-2,-2,-2,-1,0,-3
1528446504797849,0,-1,0,-2,-1,1,-1,-1
1528446504797849,-1,-2,-1,-3,-2,-1,-1,-3
1528446504810842,0,-1,-2,-1,0,-1,0,-1
1528446504810842,-1,-2,-1,-1,-2,0,-2,-3
1528446504818819,-2,-1,-1,-1,0,-1,-1,-1
1528446504818819,-2,1,-1,-2,-3,0,-1,-1
1528446504834746,-1,-2,-1,-2,-1,-1,0,0
1528446504834746,-2,-1,-1,0,-1,-2,-1,-1
1528446504834746,-2,0,-1,1,0,-1,-1,-1
1528446504834746,0,-1,1,-2,-1,-1,-1,-1
1528446504864669,0,-2,-1,-2,-1,-2,-1,-1
1528446504864669,-1,0,-1,-2,-1,-1,-1,0
1528446504865668,-1,0,-2,-2,0,-1,-1,-1
1528446504865668,0,-2,0,0,-2,-1,-1,-2
1528446504870650,-2,0,-2,-1,-2,0,0,-1
1528446504870650,0,-2,1,-1,0,-1,-1,-2
1528446504879678,-1,-1,-2,-2,-2,-1,-1,1
1528446504879678,-1,-1,-1,0,0,-1,-1,-3
1528446504894586,-1,1,-3,0,-2,-2,0,-2
1528446504894586,-2,-1,0,0,-1,-2,-2,-1
1528446504895584,0,-1,-1,-1,-1,-2,0,-1
1528446504895584,0,-1,-2,-1,-1,-1,0,0
1528446504916788,0,-2,-1,-2,-1,1,-1,0
1528446504916788,-1,-2,-3,-1,-2,0,-1,0
1528446504917535,2,0,1,0,-3,-1,0,0
1528446504917535,-2,1,-2,-1,-1,-1,-3,-1
1528446504940128,-1,0,-2,-1,-1,-1,-1,0
1528446504940128,-1,-1,-1,-2,0,-2,-1,-1
1528446504940755,-1,-2,-1,-3,-1,1,-1,-1
1528446504940755,-1,-1,-2,-3,-1,0,0,0
1528446504954716,0,0,-2,-1,-2,-2,-2,-2
1528446504954716,-2,-1,-2,-1,-1,-1,-2,0
1528446504955714,-2,0,-1,-1,-1,-2,-1,-1
1528446504955714,0,-1,-1,-2,-1,-1,-1,0
1528446504976689,-1,0,-1,0,-2,0,0,-2
1528446504976689,1,-1,0,-2,-1,-1,0,0
1528446504977660,-2,-1,-2,-2,-2,0,-1,0
1528446504977660,0,0,-1,-1,0,-1,0,0
1528446504990651,-2,-3,0,-2,-2,-2,-1,0
1528446504990651,-1,-1,0,-2,0,-3,0,-1
1528446504999597,0,-1,-2,0,-2,1,-1,-1
1528446504999597,0,-1,0,0,0,0,0,-3
1528446505013607,1,-2,0,0,-1,0,-2,-2
1528446505013607,-1,-1,-3,0,-1,0,-1,1
1528446505020540,-1,0,-2,-1,-2,-1,-1,-1
1528446505020540,-2,-2,-2,-1,-2,-3,-2,1
1528446505036498,-1,0,0,-1,0,-2,-1,0
1528446505036498,-2,0,-1,-1,-2,-3,0,-1
1528446505038493,0,0,-2,-1,1,-1,-2,-3
1528446505038493,-1,-1,0,-2,-1,-1,0,-2
1528446505059491,-2,-2,-2,-2,-2,-2,0,-2
1528446505059491,-1,-1,-1,-1,-2,-1,-2,-2
1528446505061434,0,-1,0,-1,-1,-3,-1,-2
1528446505061434,-1,-2,-1,1,-1,0,-2,0
1528446505074162,-2,-2,-2,-1,-2,-2,-1,0
1528446505074162,-1,-1,-3,-2,1,1,0,0
1528446505081245,1,-2,0,-2,-3,-1,-1,-1
1528446505081245,-1,-2,0,-2,-1,0,-2,-3
1528446505097360,0,1,-1,0,-1,0,-1,0
1528446505097360,-1,-1,-2,-2,-1,-1,-1,-1
1528446505099271,-2,-1,-1,0,-2,-1,-1,-1
1528446505099271,-1,-2,-1,-1,-2,-2,-1,-2
1528446505118279,-3,-1,-1,-2,-1,-1,0,-1
1528446505118279,-2,-1,0,-2,-1,0,-1,0
1528446505143837,-1,-1,0,0,0,0,-2,0
1528446505143837,0,0,-2,-2,-1,0,-1,-2
1528446505146180,0,-3,-1,-1,1,-1,-3,-1
1528446505146180,0,0,1,-1,-2,-3,-1,-2
1528446505148917,-1,-2,-2,-1,-1,-3,-1,-1
1528446505148917,-1,1,0,-1,-1,0,-3,1
1528446505157161,-1,1,-1,-2,0,-1,1,0
1528446505157161,0,-1,-2,0,-1,1,-1,0
1528446505158779,-1,-4,-1,-1,0,-1,-1,0
1528446505158779,-1,0,-1,-1,-1,0,0,-2
1528446505179874,0,-1,-2,-2,-1,-2,-2,-1
1528446505179874,-3,-1,-2,0,0,0,-4,0
1528446505181825,-2,1,0,1,-1,-1,0,0
1528446505181825,-2,0,-2,0,-1,-1,0,0
1528446505194765,-1,-1,-1,0,-1,0,-1,-1
1528446505194765,1,-1,-1,1,-1,0,-1,-1
1528446505196743,0,-1,-2,-1,-2,0,-1,-2
1528446505196743,-2,0,0,-2,-2,-3,-1,-2
1528446505215464,0,-1,-1,0,-1,-2,0,-2
1528446505215464,1,-1,-1,-2,-2,-1,0,-1
1528446505224440,-1,-1,-1,-1,-2,0,-1,-3
1528446505224440,0,-2,0,-1,-1,-1,-1,-2
1528446505239675,-1,0,-2,-1,-1,1,-1,-2
1528446505239675,-1,-2,-1,0,-1,0,-1,-2
1528446505240675,-2,0,0,0,0,-2,-2,-2
1528446505240675,0,-2,-1,-2,0,-1,-1,-2
1528446505260612,-2,-2,0,0,0,-1,-2,0
1528446505260612,-2,-1,-1,-2,-1,-2,-1,0
1528446505269604,0,-1,-1,-1,-2,0,-1,-2
1528446505269604,-1,-3,-1,-1,-1,0,-2,-3
1528446505275572,-1,-1,-1,-1,-1,-1,-1,0
1528446505275572,-1,0,-3,-3,-2,-1,-1,-3
1528446505284549,-1,-1,-1,-1,-1,-3,0,1
1528446505284549,-1,0,-2,-1,-1,-2,-1,1
1528446505307487,-1,-1,-3,-1,-2,0,-3,1
1528446505307487,-2,-2,0,-2,1,-2,-1,1
1528446505308486,0,-1,-2,-1,-1,1,0,1
1528446505308486,0,-1,-1,0,0,-1,-1,1
1528446505321463,-1,-1,-1,-1,-2,-1,0,-1
1528446505321463,0,-2,-1,0,-1,-1,-1,-2
1528446505323446,-1,-2,-1,-3,-2,0,-1,-1
1528446505323446,-2,-2,-2,-2,0,-1,-3,0
1528446505335413,-1,-1,-1,-1,-3,1,-2,-1
1528446505335413,1,-1,-1,1,-1,0,-2,-2
1528446505345421,-1,-1,-3,0,0,-2,-2,-1
1528446505345421,-1,0,0,-1,-1,0,0,-1
1528446505359660,-1,0,-1,-1,0,-1,-2,0
1528446505359660,-3,-1,-1,-2,0,-2,-1,2
1528446505361900,0,0,-1,-1,-1,-1,-1,0
1528446505361900,-1,-1,-2,-1,-1,-1,-1,-1
1528446505382618,1,-2,0,-2,-2,-1,-2,-1
1528446505382618,0,1,0,-1,-1,0,0,0
1528446505383596,-1,-1,-1,-1,1,0,-2,-1
1528446505383596,-1,-1,0,-1,0,-1,0,0
1528446505395712,0,0,0,-2,-1,0,0,0
1528446505395712,-2,-2,-1,-1,-1,-2,-2,-1
1528446505404716,0,-2,-2,-1,-1,-3,0,-2
1528446505404716,1,-1,-1,-1,0,-1,-1,-3
1528446505419678,-2,-2,-2,-1,-2,0,0,-1
1528446505419678,-1,-1,0,0,0,-1,0,0
1528446505420683,-1,1,0,-1,-2,0,-2,-1
1528446505420683,-1,-2,-1,0,-3,-1,0,-1
1528446505441620,0,-1,-1,-1,0,-2,-2,-2
1528446505441620,-1,1,-2,-2,-2,-2,-1,-2
1528446505448601,0,-2,0,-1,-2,0,0,-1
1528446505448601,0,-2,-2,-1,0,-1,-1,-1
1528446505455829,0,0,-2,-1,1,0,-1,-1
1528446505455829,0,-1,-1,-1,-1,0,-1,-1
1528446505464554,-3,-2,-1,-2,0,-1,-1,-1
1528446505464554,-1,-1,-3,0,-1,-1,-2,-2
1528446505479832,-1,-2,-2,-2,0,-2,-3,-1
1528446505479832,-2,-2,0,0,0,-2,0,-1
1528446505480798,-1,0,-2,-2,-2,-2,1,-1
1528446505480798,-1,-2,-1,-2,-2,-1,0,-1
1528446505501743,0,-1,-1,0,1,-2,-3,-2
1528446505501743,0,0,-1,-2,0,-2,0,-2
1528446505503781,-2,-2,-1,-2,-2,-2,-1,-1
1528446505503781,-1,0,-2,-2,0,-2,-2,-1
1528446505515752,0,-1,-2,0,-3,0,0,-1
1528446505515752,1,0,0,-2,-2,0,-1,0
1528446505524681,-1,-2,-2,1,-2,-2,-2,0
1528446505524681,-1,-1,-1,-2,0,-1,0,0
1528446505539640,-2,-2,-1,-1,0,-1,0,-1
1528446505539640,-1,1,-2,0,-3,-3,-2,-1
1528446505540664,-1,-2,-1,-2,1,-1,-1,0
1528446505540664,-1,-2,-1,0,0,-2,0,0
1528446505561583,-3,-1,-1,-1,-3,-2,0,-1
1528446505561583,-1,-1,-1,-2,0,-1,-1,-1
1528446505563578,-1,-2,-1,1,-1,-2,0,-1
1528446505563578,1,-1,0,-1,-3,0,-1,0
1528446505584538,-1,-1,-2,-1,-2,-1,0,0
1528446505584538,-3,-2,0,-1,-3,-1,-2,-1
1528446505586550,-2,0,-1,-1,-1,0,-1,-1
1528446505586550,0,-2,-1,-1,-2,0,0,-1
1528446505598536,0,0,1,0,0,-1,-2,-2
1528446505598536,0,-2,-2,-2,0,-1,-1,-2
1528446505613496,1,0,0,-1,-3,-2,-1,-2
1528446505613496,-2,1,-2,-1,-1,1,-1,-2
1528446505622419,-1,-3,-1,-1,0,-3,-2,1
1528446505622419,0,-2,-2,-1,0,-2,0,-1
1528446505623424,0,1,-1,-1,-1,-2,-1,0
1528446505623424,-1,-2,0,-2,0,-1,0,0
1528446505644361,0,-1,-2,0,-1,0,0,-1
1528446505644361,-2,-1,1,-1,-1,-2,-1,-3
1528446505646356,0,-2,-1,-2,0,-1,1,-2
1528446505646356,0,-2,-1,0,-1,-1,-1,-2
1528446505659327,-1,0,-2,0,1,1,-1,-1
1528446505659327,-1,-1,-1,-1,-2,0,0,0
1528446505661315,1,-1,-1,-2,-1,-1,-2,0
1528446505661315,-1,-1,0,0,-2,-3,0,-2
1528446505682304,-2,1,0,-1,-2,0,-1,-2
1528446505682304,0,-2,-3,0,-1,-1,0,-1
1528446505683276,-1,-2,-1,0,-1,-2,-1,-1
1528446505683276,1,-1,-2,-1,-1,1,-2,0
1528446505704255,0,-1,-2,-3,-2,-1,-1,-3
1528446505704255,-1,0,-2,-1,-1,-1,-1,0
1528446505706196,-2,-2,-1,-1,-2,-1,-1,-2
1528446505706196,-2,-1,-1,-2,0,0,-1,-2
1528446505719161,-1,-3,-1,0,-1,-2,-1,0
1528446505719161,-1,0,0,0,1,-1,-2,-2
1528446505725198,-1,0,-2,-1,-1,-2,-1,-2
1528446505725198,-3,-1,0,-1,-2,-1,0,1
1528446505742154,0,-2,-1,-1,0,-1,1,0
1528446505742154,-1,-1,-2,0,-2,-1,0,-2
1528446505743152,-1,-3,0,-1,-1,1,0,0
1528446505743152,0,-1,-1,-1,-1,0,-3,-1
1528446505764096,0,0,0,-1,-2,-1,-2,-2
1528446505764096,-1,-3,-2,-2,-1,0,-1,0
1528446505766040,-1,-1,-1,0,0,-3,-1,-2
1528446505766040,-1,0,-1,0,-1,-1,-1,-1
1528446505779001,-2,-1,-1,-2,-1,-2,0,-2
1528446505779001,-2,-2,0,0,-1,-1,-3,0
1528446505785984,-1,-1,-1,-1,-1,-1,-2,0
1528446505785984,0,-1,0,-1,-1,-4,-1,1
1528446505801942,0,0,0,-2,-1,-1,0,0
1528446505801942,0,0,-2,-3,0,1,0,-1
1528446505803934,-2,-1,-3,-3,-2,0,-1,-3
1528446505803934,0,-3,-1,0,-2,-2,-1,-1
1528446505824879,-1,-1,-2,-2,-2,-1,0,-1
1528446505824879,-2,-1,0,0,-1,-1,-1,-1
1528446505825882,-3,-2,-2,-1,0,-1,-2,-1
1528446505825882,0,0,-1,-1,-1,-1,-2,-1
1528446505838845,-1,-1,0,-1,0,1,-2,-1
1528446505838845,0,1,-2,-2,-2,-1,0,-2
1528446505846071,0,-2,-2,0,0,-1,-1,1
1528446505846071,1,0,-1,-2,-2,-1,-1,-1
1528446505862035,1,-1,0,-1,-1,-2,-2,-1
1528446505862035,-1,-1,-2,-1,-2,-2,-2,-1
1528446505864030,-2,0,-1,-2,-2,1,0,0
1528446505864030,-3,-1,-1,0,0,1,0,-1
1528446505884971,0,-1,-1,0,-1,-2,-1,-2
1528446505884971,1,0,0,-1,-1,-2,-1,-1
1528446505886966,0,-2,-2,0,-1,0,-1,-1
1528446505886966,-2,0,-2,0,-2,-2,-1,1
1528446505899485,-2,0,-1,0,0,0,-1,0
1528446505899485,-1,-2,0,-2,-1,-1,-1,-1
1528446505906303,0,-1,-1,0,-3,-3,-1,-1
1528446505906303,0,1,0,-2,-1,-1,-2,-1
1528446505922172,-1,-2,-1,-1,-1,-1,0,-1
1528446505922172,-1,0,-1,0,-3,-1,-1,-1
1528446505923170,-1,0,-1,-1,-1,-1,-2,1
1528446505923170,0,-1,-1,0,-2,-1,0,-2
1528446505945238,-1,-1,-1,-3,1,-1,-1,0
1528446505945238,-2,-1,-1,-1,-1,1,-1,-1
1528446505946187,-1,-1,-1,-1,-1,-1,0,-1
1528446505946187,-1,-1,-2,0,1,-1,-1,-2
1528446505958155,-1,0,-2,-1,-2,0,-2,-1
1528446505958155,0,-1,-1,-1,0,-2,-1,-2
1528446505974374,-1,1,0,-2,-1,0,0,-1
1528446505974374,-2,-1,-2,-1,-1,1,0,-1
1528446505982353,0,-3,1,-2,-2,-1,0,-2
1528446505982353,-2,-2,-2,-1,-2,-2,-1,0
1528446505983349,-1,-2,-1,-1,0,-1,0,-1
1528446505983349,0,-1,-1,0,-1,0,0,0
1528446506005154,-2,0,-1,0,-1,-3,-1,0
1528446506005154,-2,-1,-1,-1,-1,-2,-1,1
1528446506006057,0,0,-2,-1,0,-3,-1,-2
1528446506006057,-1,-2,-1,-2,-1,-1,-2,-1
1528446506018296,-1,-2,-1,-1,-2,-1,-1,0
1528446506018296,-1,-1,-1,0,0,-1,0,-1
1528446506027269,-1,-1,0,-2,-3,0,-2,-1
1528446506027269,-1,-1,-3,0,-2,-2,-2,0
1528446506042229,-2,-2,0,0,-2,-1,-1,-2
1528446506042229,-1,0,-1,-2,0,-1,-1,0
1528446506043226,0,1,-2,0,-1,-2,-2,-2
1528446506043226,0,-1,-1,-3,0,-1,-1,-1
1528446506065499,-1,-1,-2,0,-1,-1,0,-1
1528446506065499,-1,-2,-1,0,0,-1,-1,-2
1528446506072039,-2,-1,-1,-1,-1,-1,0,-1
1528446506072039,-2,0,0,-2,0,-1,-1,-2
1528446506078270,-1,0,-1,-2,-1,-1,-1,-1
1528446506078270,1,0,-1,0,-2,1,0,-1
1528446506087034,-1,-2,-1,-2,-1,-1,-1,-2
1528446506087034,-2,-1,0,-2,-3,-2,-1,-3
1528446506101981,-1,0,-1,-2,-1,0,1,-1
1528446506101981,-1,-2,-1,0,0,-2,-1,0
1528446506103956,-1,-1,0,0,-2,-1,-2,-1
1528446506103956,-1,-2,0,0,-2,0,-2,-1
1528446506124913,-1,-2,-2,-1,-3,-1,-1,0
1528446506124913,-1,-1,-1,-1,-2,-1,0,-1
1528446506125982,-2,0,-1,0,0,-1,0,2
1528446506125982,0,-1,-2,0,0,-2,-1,-2
1528446506138129,-1,-2,-2,0,-1,0,-2,-2
1528446506138129,0,-2,0,-1,-3,-2,-1,0
1528446506154820,-2,-1,0,-1,1,-1,-1,-1
1528446506154820,-1,-2,-1,1,0,-1,-1,-2
1528446506162066,-1,-1,-1,2,-1,0,-1,-1
1528446506162066,-1,1,-2,-1,-2,-1,0,-1
1528446506163796,0,-2,-1,-1,-1,-1,-1,-1
1528446506163796,1,-2,-2,-2,-2,-1,0,0
1528446506192028,0,-1,-1,-2,-2,-2,-1,-1
1528446506192028,-2,-3,-1,-2,0,-1,-3,-1
1528446506194286,0,-1,0,1,-2,-1,0,0
1528446506194286,-1,-1,-1,-1,-1,-1,-1,-1
1528446506198282,0,-2,-3,-1,-2,0,-2,0
1528446506198282,-1,-1,-2,-1,-2,-2,-1,-2
1528446506207416,1,-2,-1,-2,-2,1,-1,-2
1528446506207416,-1,0,0,-1,-1,-1,1,0
1528446506222643,-1,0,0,-2,1,-1,-2,0
1528446506222643,-1,0,-1,0,1,-1,0,0
1528446506223373,0,0,-1,-1,-1,0,-1,1
1528446506223373,0,-1,-3,-1,-3,-1,0,1
1528446506243891,1,-2,-2,0,-2,-2,-1,-2
1528446506243891,-1,0,-1,-1,-1,0,-1,0
1528446506252417,-1,-2,0,0,-2,0,-2,-1
1528446506252417,-1,-1,-1,0,0,-3,-1,-1
1528446506258817,-1,0,-1,-2,1,-2,0,0
1528446506258817,-1,-1,-2,-1,0,0,-1,-1
1528446506267831,-2,-1,-2,-3,-2,-2,-1,-1
1528446506267831,0,0,-1,-3,-2,0,-4,-2
1528446506282218,0,-1,-1,-1,0,-1,0,-1
1528446506282218,-2,0,-1,-2,0,0,-1,-1
1528446506283942,-2,0,-1,-1,-1,-3,0,-2
1528446506283942,-3,0,0,0,-1,-3,-1,-1
1528446506305281,-2,-1,-2,-1,-1,-1,-1,0
1528446506305281,-1,0,-1,0,-2,-1,0,0
1528446506306170,-2,0,-1,-1,-2,-1,0,-2
1528446506306170,-2,-1,-2,-1,-1,-2,-1,-1
1528446506318175,0,-3,-2,0,0,-2,0,0
1528446506318175,0,-1,-3,-1,-2,-2,0,-3
