timestamp,emg1,emg2,emg3,emg4,emg5,emg6,emg7,emg8
1528186354880664,-1,0,1,0,1,-1,1,-1
1528186354880664,-1,0,-1,0,-1,-2,-2,-1
1528186354884653,-1,-1,0,0,-2,-1,0,-1
1528186354884653,0,-1,-1,0,-1,1,-1,-2
1528186354887645,-1,1,-1,0,0,-1,-2,-1
1528186354887645,0,-2,1,-2,1,-1,-1,-1
1528186354888643,-1,-2,-1,-1,-3,0,-1,-1
1528186354888643,-1,-4,-2,-1,-1,-1,-1,-1
1528186354889640,-2,-1,1,0,-2,-3,0,0
1528186354889640,1,0,-5,-1,-2,-1,-1,-1
1528186354905598,0,-3,-2,-1,1,-1,-1,-1
1528186354905598,-1,-1,-2,-3,-1,-2,-1,-2
1528186354915571,0,-2,0,-2,-1,1,-2,-2
1528186354915571,0,0,3,-3,-1,-3,-1,-1
1528186354921555,-1,-1,-2,-1,0,-1,-1,0
1528186354921555,-2,1,5,4,0,-1,-1,0
1528186354935518,1,2,0,0,0,-1,1,1
1528186354935518,-3,-6,-1,4,-1,1,-1,-1
1528186354950478,-2,1,1,1,0,-1,-1,-2
1528186354950478,-3,-3,-7,-7,-3,-2,-1,-1
1528186354951475,-1,-2,1,1,1,-2,-1,-1
1528186354951475,-1,-1,-7,-3,0,-1,0,-1
1528186354997353,0,0,-2,-5,-1,1,0,-2
1528186354997353,-1,0,-1,8,1,0,1,1
1528186354998350,-1,-2,1,-2,-1,-2,-1,-1
1528186354998350,-1,-3,-4,0,-3,-3,-1,0
1528186354999347,-1,-1,-3,-4,-6,-2,-2,-1
1528186354999347,-3,-2,0,-5,2,1,0,-3
1528186355002339,-1,0,4,1,1,0,1,0
1528186355002339,-1,0,-3,-1,-4,1,0,-2
1528186355010317,-1,-1,0,8,6,1,-1,-1
1528186355010317,-2,-2,6,-5,-3,-1,-1,-2
1528186355019293,-1,-3,-13,-2,-1,-3,-2,-1
1528186355019293,-2,-2,-5,0,1,1,-2,-2
1528186355025278,0,2,14,0,0,-2,-2,0
1528186355025278,1,2,-4,-3,-2,1,-1,1
1528186355041235,-1,-2,3,-5,-5,-3,-3,-2
1528186355041235,-1,-1,1,22,5,0,1,-1
1528186355047219,-1,-1,-6,-9,-9,-6,-4,-1
1528186355047219,-1,-4,-2,7,5,1,-1,-3
1528186355070158,-1,-2,-3,-7,-2,1,0,-1
1528186355070158,0,2,8,0,-2,0,-1,-1
1528186355071155,0,1,-4,7,3,1,1,1
1528186355071155,-1,-2,0,5,1,-4,-3,-1
1528186355086121,-1,1,-6,-21,-12,-4,-3,-2
1528186355086121,-2,-1,3,16,5,-2,-2,-4
1528186355086121,-2,-3,-2,0,4,0,-2,-3
1528186355086121,-1,3,2,7,-2,1,1,-1
1528186355108056,-1,0,-3,3,8,4,1,0
1528186355108056,-1,1,16,22,5,3,3,0
1528186355109054,0,-4,-17,-16,-1,-2,1,-1
1528186355109054,0,0,12,9,-4,-16,-5,0
1528186355130996,-6,-11,-31,-48,-22,-2,-5,-3
1528186355130996,3,4,13,4,5,2,-2,-2
1528186355130996,-2,-3,5,5,17,12,5,0
1528186355130996,-3,-3,-14,-18,-11,3,1,2
1528186355145954,2,5,17,29,23,1,1,-5
1528186355145954,0,0,-7,-15,-14,-11,0,3
1528186355146955,-1,-2,-1,15,10,4,-3,1
1528186355146955,-1,-3,-2,0,2,1,0,5
1528186355167897,-1,0,5,2,-7,-12,-4,0
1528186355167897,-2,-4,-6,-20,-5,0,1,0
1528186355168894,0,-1,-9,-6,5,6,0,-4
1528186355168894,-1,0,12,6,-3,-2,-2,-4
1528186355190874,0,1,-5,2,-21,-15,-3,1
1528186355190874,-2,-1,2,11,30,9,-1,-3
1528186355191833,-4,-1,2,-22,-34,-18,-6,-2
1528186355191833,-2,-2,0,28,54,26,3,-7
1528186355206792,1,-3,2,13,11,20,9,4
1528186355206792,-3,-5,-10,-4,-11,-11,-5,-3
1528186355207791,0,5,5,-4,-26,-14,-3,-5
1528186355207791,0,2,-10,-33,-10,-5,-4,-4
1528186355227753,-6,0,17,33,6,-12,-10,-8
1528186355227753,-3,-7,-5,-37,-15,3,2,0
1528186355228734,-4,-5,-12,13,-16,-11,-6,-24
1528186355228734,8,5,4,-1,-2,-1,6,20
1528186355250720,-2,-3,12,2,-3,-16,-2,0
1528186355250720,6,1,-4,17,26,27,4,10
1528186355251676,-5,3,1,3,-11,-7,-7,-5
1528186355251676,-1,-3,0,-7,-15,-19,-6,-8
1528186355265636,0,1,-8,8,14,18,2,-3
1528186355265636,-1,-10,-11,-48,-21,-17,0,3
1528186355266634,3,1,15,19,36,29,11,9
1528186355266634,-1,-4,-14,2,-6,3,0,3
1528186355288610,-1,0,-5,13,0,-5,-5,-3
1528186355288610,-8,-1,-9,-36,-13,-18,-2,-10
1528186355288610,1,2,9,24,-3,5,4,-1
1528186355288610,0,-3,4,-22,0,-3,-10,-7
1528186355310520,1,-3,-2,-7,-11,-5,11,-4
1528186355310520,1,7,4,20,-6,-13,-10,4
1528186355311513,-1,-6,5,0,13,5,2,8
1528186355311513,-15,-1,2,20,-1,11,-7,-17
1528186355325476,7,2,-8,-1,15,26,24,8
1528186355325476,3,-3,-11,-41,-16,5,3,23
1528186355326489,-1,-9,-24,-17,-12,-33,-7,6
1528186355326489,2,4,4,32,8,2,-9,-10
1528186355348417,-6,-4,8,-18,10,3,-16,-15
1528186355348417,-3,-4,-20,-5,-27,-21,9,21
1528186355349412,-3,-7,1,0,7,4,-2,0
1528186355349412,-2,5,-7,-29,-9,3,3,1
1528186355370356,2,1,9,29,2,1,1,-3
1528186355370356,4,7,1,35,15,7,3,-18
1528186355371364,-6,-10,-5,-42,-19,-7,-7,-1
1528186355371364,-1,-1,-3,-9,-2,-10,5,-1
1528186355385320,1,0,1,-9,-18,-11,-8,1
1528186355385320,-1,0,0,8,6,8,-3,-6
1528186355386312,1,0,-13,-31,10,16,4,-1
1528186355386312,0,1,32,19,-7,-4,6,12
1528186355408254,-1,-5,-44,-29,-16,-10,-11,0
1528186355408254,-8,-1,5,8,-17,-20,-8,-10
1528186355409304,11,5,4,-11,7,8,10,-6
1528186355409304,2,-4,-3,28,15,-3,0,10
1528186355430235,-3,5,9,4,-6,-3,1,4
1528186355430235,0,-9,-10,-26,-1,2,-5,-2
1528186355431192,-2,2,-2,1,15,10,-3,-3
1528186355431192,-2,-8,-21,-45,-27,-8,-2,-9
1528186355445155,-4,-4,4,10,-17,-12,-7,0
1528186355445155,1,1,2,32,66,33,7,-5
1528186355446170,0,11,4,6,-18,-14,-6,0
1528186355446170,-1,-8,-7,-3,3,3,-2,1
1528186355468094,-3,-1,1,-16,-4,1,0,-2
1528186355468094,-5,-1,6,-2,-23,-3,-3,-6
1528186355476107,3,8,11,51,7,-10,5,8
1528186355476107,7,-6,-7,-30,5,1,-3,-5
1528186355491071,-7,-9,-29,-43,-21,-2,-2,-2
1528186355491071,1,11,18,24,10,1,-2,-7
1528186355491071,-5,-16,-13,-20,-3,-4,-3,4
1528186355491071,-3,4,6,31,6,0,2,-3
1528186355506028,2,0,4,-30,-5,1,0,-3
1528186355506028,-1,-5,-13,-4,-4,0,1,7
1528186355506028,-5,0,-4,-20,-3,1,-3,-4
1528186355506028,0,4,8,23,6,-3,-1,2
1528186355529930,1,-3,-6,-14,7,1,-2,-1
1528186355529930,0,3,11,10,-19,-5,-4,-7
1528186355530927,-2,-2,15,20,16,-3,-2,-1
1528186355530927,-3,-9,-27,-33,-4,0,1,-4
1528186355550873,-2,4,11,1,4,-1,3,7
1528186355550873,-4,-7,-12,-22,0,6,-6,-10
1528186355551870,-1,3,-10,6,-10,-6,-3,5
1528186355551870,0,3,10,24,10,10,6,1
1528186355565848,9,5,12,1,-10,-8,-4,5
1528186355565848,0,-8,-5,19,8,-7,-1,-2
1528186355566832,0,2,5,-34,-24,1,0,-2
1528186355566832,-5,-3,-18,20,-4,-2,-2,-2
1528186355588771,-3,-4,5,10,29,12,3,-1
1528186355588771,-1,0,5,24,-13,-12,-5,-3
1528186355596752,-2,-2,-13,-45,1,2,-1,-4
1528186355596752,5,6,9,22,8,1,3,5
1528186355617694,-7,-4,-3,-21,-8,-1,-1,-2
1528186355617694,-4,-9,5,17,-13,-4,-7,-9
1528186355626674,0,4,-3,58,9,-2,-3,-4
1528186355626674,5,-3,4,-73,-22,-6,1,9
1528186355628702,-2,-8,0,7,4,0,-7,-14
1528186355628702,-9,19,-1,12,17,1,9,3
1528186355629663,-2,-16,-3,17,-7,-1,-5,-4
1528186355629663,4,13,5,-4,-9,-7,0,0
1528186355648613,-4,-10,1,21,-5,-2,-4,-8
1528186355648613,6,-6,7,5,-4,-3,-4,4
1528186355648613,1,-2,-8,-8,0,1,2,8
1528186355648613,-7,-1,-6,-35,-3,0,-3,-9
1528186355687508,-7,-7,-26,-28,-11,-14,-5,-5
1528186355687508,2,6,15,-10,11,12,4,2
1528186355688506,1,2,-1,20,11,4,0,-3
1528186355688506,-5,-7,5,21,-17,-5,0,-1
1528186355690500,-4,-3,15,58,12,-1,-2,0
1528186355690500,-3,-5,-12,-83,-7,-3,-3,-5
1528186355692495,11,5,5,24,11,3,-2,3
1528186355692495,-8,-8,-10,-6,-11,0,7,15
1528186355708452,4,11,5,-11,7,7,2,3
1528186355708452,-3,-18,-6,-4,-27,-13,-12,-14
1528186355709450,-7,-1,-12,-25,18,8,3,-9
1528186355709450,6,4,7,24,2,-5,-4,2
1528186355730394,3,20,5,-12,3,4,1,2
1528186355730394,9,-5,-3,7,0,-4,-1,-7
1528186355731391,-30,-3,-4,-9,-20,-11,-4,-4
1528186355731391,18,-4,-3,-4,-3,-4,-8,-2
1528186355747395,-27,-3,-7,-11,17,8,5,3
1528186355747395,0,5,2,3,-14,-12,-8,-20
1528186355752384,-6,-4,1,10,9,-1,-6,-7
1528186355752384,5,2,37,40,16,11,16,12
1528186355768337,13,1,-5,26,-20,-17,-8,4
1528186355768337,-1,8,0,-53,-8,6,1,8
1528186355769335,-2,-6,10,72,11,3,4,-4
1528186355769335,-4,-8,5,-4,-10,-2,-5,7
1528186355790233,0,-16,-22,-20,-5,-1,-8,-19
1528186355790233,3,14,-11,5,6,1,8,22
1528186355791230,1,-6,15,-6,-5,-8,-5,-7
1528186355791230,-14,-3,-30,-21,11,0,2,-13
1528186355805246,7,-1,-12,-3,15,11,6,20
1528186355805246,9,-7,10,9,-3,1,-4,-18
1528186355812229,-12,8,-7,-30,-8,-6,-1,16
1528186355812229,12,-4,-16,8,18,10,-2,-5
1528186355828186,-4,-7,-15,-43,-16,-7,-1,-9
1528186355828186,-3,1,-4,-13,12,5,-1,10
1528186355829140,12,3,4,19,-12,-6,-2,2
1528186355829140,-15,-1,-3,-1,-20,-8,-7,-23
1528186355851071,-4,-8,38,37,8,-2,8,19
1528186355851071,-2,-4,-3,38,18,0,-8,-18
1528186355852113,30,12,16,-3,-1,4,20,35
1528186355852113,-26,-14,-12,-1,-14,-6,-11,-3
1528186355865042,-5,4,5,-14,7,4,-6,-19
1528186355865042,-13,-7,11,32,9,-8,6,14
1528186355881039,-8,-1,-17,-36,-16,5,-4,-17
1528186355881039,20,4,6,5,-5,-2,3,9
1528186355888128,10,14,-6,-16,-6,11,-3,-8
1528186355888128,-7,-8,-21,14,12,2,-6,-15
1528186355888984,-1,-6,9,-1,9,3,2,2
1528186355888984,-3,-1,-22,-38,0,1,1,-1
1528186355910913,-5,-4,-12,-36,-19,-15,-5,8
1528186355910913,4,6,1,46,-18,-1,13,-2
1528186355911911,2,-3,0,25,19,6,-7,-1
1528186355911911,-15,-18,7,10,-8,-8,-15,-27
1528186355926034,0,17,1,-11,5,-5,1,0
1528186355926034,-5,-11,5,2,-21,-2,0,0
1528186355941015,2,2,-15,-35,2,-6,-8,-12
1528186355941015,5,5,7,-30,1,1,6,12
1528186355947855,0,3,7,30,3,-8,-4,-7
1528186355947855,-5,-10,-45,-54,-16,-3,-7,1
1528186355948832,0,-4,12,-5,-39,-14,4,6
1528186355948832,-6,-4,-11,-8,22,14,-8,-11
1528186355970929,-1,-4,3,22,19,9,-3,-13
1528186355970929,17,21,3,-9,21,3,0,13
1528186355971926,-12,-23,12,26,-6,-7,2,12
1528186355971926,-10,-5,3,-6,-12,-12,-4,-11
1528186355993712,-1,6,2,2,-6,1,5,6
1528186355993712,-4,-23,1,-16,-6,-6,-10,-19
1528186355994710,6,11,-4,23,6,-1,-7,17
1528186355994710,3,16,11,-38,-34,-13,6,-2
1528186356016672,12,-11,16,63,30,9,8,11
1528186356016672,3,17,0,-35,3,9,7,3
1528186356016672,-10,-3,3,6,37,20,-6,-22
1528186356016672,-4,-20,-13,21,-5,-1,4,9
1528186356030617,7,2,-1,-23,-15,-9,-5,12
1528186356030617,-1,36,16,37,-19,-8,-10,-9
1528186356038621,-11,-27,-25,-79,-9,-11,-22,-28
1528186356038621,7,20,2,19,13,-1,-18,6
1528186356053708,-1,-23,-10,-11,-2,17,50,28
1528186356053708,-9,-17,13,-12,-9,-11,-3,6
1528186356054558,1,18,4,3,2,1,-19,-9
1528186356054558,-7,4,12,2,15,3,0,-16
1528186356076647,4,2,-4,7,19,21,5,3
1528186356076647,1,8,27,46,14,6,4,8
1528186356077488,-3,1,-51,-58,-45,-22,-12,-14
1528186356077488,-5,-10,1,-2,-13,-3,3,-8
1528186356090609,21,-2,-10,-12,7,-2,-18,27
1528186356090609,5,8,12,12,15,9,28,-12
1528186356091451,-21,-21,-10,1,-2,-3,-2,-10
1528186356091451,-1,9,3,2,-8,-8,-1,-2
1528186356114415,-15,-12,-21,-18,-23,-8,-2,-5
1528186356114415,0,13,-10,-24,11,-2,-36,-17
1528186356114415,12,-11,5,3,5,9,17,11
1528186356114415,14,8,0,-1,-8,-12,7,15
1528186356136487,-11,-4,-4,-15,-17,-11,-12,-18
1528186356136487,-8,-32,-29,-13,20,17,-9,-18
1528186356143312,10,17,15,17,-12,-4,22,18
1528186356143312,-11,-2,-8,13,25,16,-1,11
1528186356159421,20,20,16,43,-2,-9,-11,-20
1528186356159421,-2,-5,-1,-12,5,0,7,30
1528186356160293,-5,-5,2,19,-5,-5,6,-14
1528186356160293,-1,1,-1,-5,-6,4,-3,-10
1528186356173264,-4,-7,3,25,6,-6,-10,-8
1528186356173264,-5,2,-7,-11,-8,-3,5,14
1528186356174240,7,-29,5,41,21,4,4,-7
1528186356174240,3,43,25,13,1,0,17,12
1528186356196171,-38,-39,-25,-36,-13,-4,-15,-26
1528186356196171,5,-23,-2,-2,-7,1,7,13
1528186356197168,13,13,-17,-15,-7,-8,-4,9
1528186356197168,-21,-17,-24,-16,6,3,-4,-4
1528186356211257,-8,17,-12,6,-16,-10,-1,15
1528186356211257,5,5,16,-18,-13,-6,-4,-12
1528186356211257,-4,6,22,35,17,17,10,19
1528186356211257,10,-2,0,-3,-5,-6,-4,-26
1528186356235067,-3,5,-9,-24,-10,-2,5,13
1528186356235067,-11,-16,-2,2,-5,-11,-10,-6
1528186356236112,4,21,16,10,6,5,7,-12
1528186356236112,13,-12,10,12,9,4,-6,23
1528186356257047,-22,-28,-27,-10,-3,-4,1,-40
1528186356257047,13,21,-10,30,-13,-9,1,8
1528186356257047,-17,-17,12,-66,-16,-11,-12,-15
1528186356257047,-21,-9,-9,9,-13,-12,4,6
1528186356271179,19,9,4,-28,3,13,4,1
1528186356271179,0,7,11,48,4,-5,-4,11
1528186356271179,-22,-14,-10,-14,6,9,-5,-8
1528186356271179,26,-1,-4,-23,-16,-6,-3,-8
1528186356293119,17,-1,12,11,20,7,15,45
1528186356293119,-2,13,2,-31,-14,-5,2,-18
1528186356294149,-1,5,-20,-27,-12,-5,-10,-8
1528186356294149,-12,-8,0,-8,-6,-3,-5,-4
1528186356324195,12,16,11,35,0,-3,-2,-23
1528186356324195,-21,-7,-8,-22,17,6,-7,0
1528186356325189,20,-5,-5,2,-25,-9,6,10
1528186356325189,3,-12,-12,14,21,9,-2,1
1528186356331044,4,26,6,17,-9,-8,-4,-15
1528186356331044,2,5,47,-8,8,6,3,19
1528186356332019,-10,-1,-44,16,5,-3,-11,-6
1528186356332019,-4,-6,-21,-75,-5,1,13,3
1528186356353094,-5,14,22,19,0,5,-13,-3
1528186356353094,-5,-28,-17,-23,-6,-1,18,0
1528186356361295,7,6,21,9,-3,1,-7,-1
1528186356361295,5,5,-10,4,-7,-1,-3,-1
1528186356376241,-7,-2,12,3,13,-1,0,-2
1528186356376241,-1,-8,-39,-38,-16,-8,-7,-12
1528186356377099,6,-1,13,14,14,3,1,9
1528186356377099,-7,4,-11,24,-7,-6,-9,-2
1528186356390475,9,1,41,19,12,3,3,4
1528186356390475,13,-2,-16,1,0,4,-1,0
1528186356398298,-24,6,8,4,5,0,3,-2
1528186356398298,-14,-4,10,11,-13,-12,-10,-13
1528186356414315,9,1,29,29,8,7,6,12
1528186356414315,21,-13,-33,-32,-11,-9,-6,6
1528186356414315,-15,1,-2,-7,-8,-2,8,2
1528186356414315,4,11,24,35,19,6,-1,1
1528186356436339,-5,10,-28,-36,-7,-2,0,-9
1528186356436339,-5,-1,18,44,2,-1,-2,4
1528186356437194,1,-11,-15,-26,8,3,-9,-24
1528186356437194,2,-5,-14,-17,-9,-1,1,23
1528186356450159,0,-1,-5,-78,-14,-6,15,14
1528186356450159,-3,-6,-9,27,-7,-11,-4,-1
1528186356459136,8,5,10,30,22,13,2,3
1528186356459136,4,5,-6,19,-3,2,0,-6
1528186356473163,-4,-6,-16,-23,-10,7,-4,-5
1528186356473163,-9,-5,13,-10,-5,-2,2,-7
1528186356489055,6,12,5,2,-16,-16,-4,10
1528186356489055,3,-9,2,42,27,12,1,-6
1528186356496193,-9,-7,-31,-53,-27,-16,-11,-7
1528186356496193,-7,-4,23,17,15,9,4,-5
1528186356498032,-3,4,-10,-4,-9,-4,-15,-2
1528186356498032,6,-2,8,0,8,9,22,9
1528186356510156,-9,-13,-3,43,16,11,-2,-11
1528186356510156,6,25,1,-9,-4,-5,6,4
1528186356518975,10,-8,5,-6,-2,-10,-3,22
1528186356518975,-15,-6,6,-9,-9,-7,-3,-20
1528186356532944,8,-1,-8,10,-3,-3,-6,10
1528186356532944,-14,-17,-11,-28,-18,-4,2,-4
1528186356542097,0,2,-12,-34,15,9,6,-3
1528186356542097,-4,0,10,-17,-4,0,-11,-7
1528186356556948,2,-6,0,55,-8,-12,3,4
1528186356556948,-2,3,-10,-48,-21,-18,-13,-10
1528186356557914,1,-2,-14,-44,0,2,3,3
1528186356557914,-1,-11,-4,17,8,5,-11,-17
1528186356570021,-10,1,-6,26,5,-2,-3,2
1528186356570021,1,1,-6,-6,-4,-6,0,17
1528186356578840,-1,1,14,39,0,3,10,-4
1528186356578840,5,-1,-1,-21,5,-1,-5,14
1528186356593856,-8,-4,8,-11,3,3,-31,-35
1528186356593856,9,18,-2,26,14,16,46,25
1528186356599979,11,5,9,20,-7,-3,13,5
1528186356599979,6,-15,-8,-26,-20,-9,11,24
1528186356616902,-25,4,0,4,3,-7,-26,-54
1528186356616902,-1,-20,6,19,2,-4,-19,-1
1528186356617819,-13,7,-7,-22,-6,-3,5,-10
1528186356617819,7,4,6,-16,-1,-2,-7,6
1528186356638838,-3,-10,-4,-22,2,-3,-1,-1
1528186356638838,8,3,-18,-33,6,12,-5,-12
1528186356640676,3,7,16,12,-3,5,7,21
1528186356640676,-9,-18,10,11,-3,-8,-3,-1
1528186356654023,-16,-11,-2,16,-2,-1,4,10
1528186356654023,38,22,0,37,4,0,-10,1
1528186356662111,-20,-24,-16,-24,-4,0,3,-16
1528186356662111,-2,13,-4,-12,-2,-4,-9,-11
1528186356676277,4,-3,-18,-21,-24,-9,17,15
1528186356676277,-9,-14,4,64,0,-10,-3,5
1528186356678111,4,-7,-4,-30,7,7,-5,-12
1528186356678111,3,18,1,13,-10,-3,-2,-2
1528186356690448,8,-2,-1,-1,14,14,11,11
1528186356690448,-17,3,-8,-51,-37,-17,-15,-12
1528186356699640,2,-1,16,30,16,-2,-4,-2
1528186356699640,-12,-8,-29,-25,6,3,-4,-13
1528186356713706,10,12,9,-2,-5,-9,-11,-8
1528186356713706,-9,-7,11,2,2,4,6,8
1528186356720616,2,6,-1,5,-5,-4,-1,4
1528186356720616,1,6,14,36,8,4,19,13
1528186356736579,10,2,10,8,1,1,6,0
1528186356736579,5,-2,-8,-33,13,12,7,12
1528186356737576,-5,2,7,-3,-15,-12,-13,-33
1528186356737576,0,1,-1,28,16,6,-5,0
1528186356758658,-9,-17,-2,6,14,4,-12,-14
1528186356758658,-11,-4,-2,7,-11,-8,1,-1
1528186356760511,7,0,11,6,-17,-6,3,14
1528186356760511,-3,-5,-16,-23,16,11,0,-8
1528186356773829,1,-2,-1,0,-4,-4,3,9
1528186356773829,-2,3,1,8,10,6,-5,-6
1528186356775683,2,-1,-1,8,-10,-10,-8,-9
1528186356775683,0,1,8,-9,-12,-4,1,7
1528186356796820,6,5,7,2,2,4,5,9
1528186356796820,-6,-6,-20,-19,5,-1,-12,-8
1528186356797643,-3,-1,4,5,1,0,10,-9
1528186356797643,-1,3,5,-22,-8,-1,-8,1
1528186356818723,18,5,-10,-7,0,5,8,10
1528186356818723,-5,3,11,10,6,1,6,-2
1528186356820573,0,-3,-10,18,0,-1,-6,6
1528186356820573,2,2,10,7,3,-5,1,-4
1528186356834526,-9,-8,-16,-20,-14,-3,-10,-2
1528186356834526,-1,2,3,15,15,7,3,-14
1528186356835522,2,-1,-13,1,5,5,4,3
1528186356835522,6,1,4,4,-1,1,6,14
1528186356863502,-4,4,11,29,0,-5,-2,-2
1528186356863502,-3,3,16,-30,0,-1,-4,-6
1528186356865443,-3,-11,-34,-17,-11,-7,-10,-1
1528186356865443,-4,-3,-6,0,-3,-4,-8,-9
1528186356879404,-6,-4,-4,11,3,0,11,-3
1528186356879404,-3,-8,0,4,-3,-2,-3,10
1528186356880402,-1,5,2,-4,-2,3,-1,5
1528186356880402,3,3,2,2,-9,-5,-6,-11
1528186356893419,11,-2,-2,5,8,4,0,4
1528186356893419,-8,1,1,9,1,-1,-3,-8
1528186356900405,2,-3,0,-5,-9,-6,-6,3
1528186356900405,0,-1,-6,25,7,8,5,-4
1528186356916363,-5,-1,-2,-8,-4,-6,4,7
1528186356916363,-4,-7,-7,-8,-7,-4,-9,-10
1528186356918322,4,3,16,9,8,6,4,7
1528186356918322,-1,-1,-7,-43,-17,-9,-6,-10
1528186356939300,-10,-9,-3,3,-2,0,4,13
1528186356939300,0,2,2,11,5,1,-1,-3
1528186356941295,-1,-2,-12,2,3,0,1,-1
1528186356941295,-3,-4,-2,-7,-6,-4,-3,-3
1528186356953264,2,4,6,-12,-2,-2,-2,-2
1528186356953264,-3,-4,-6,2,-2,-2,-2,-4
1528186356960243,0,0,8,14,6,5,1,1
1528186356960243,-1,1,5,15,-2,-6,-3,0
1528186356976201,1,0,-5,-22,-19,-7,-3,1
1528186356976201,-3,-2,4,12,7,1,2,2
1528186356978142,3,1,1,1,9,7,-1,0
1528186356978142,-3,-3,-2,3,-1,2,0,-2
1528186356999139,-3,-1,6,17,24,7,2,0
1528186356999139,1,1,-8,-11,-8,-5,0,-4
1528186357000137,-3,0,3,-2,12,7,-2,-8
1528186357000137,-1,-5,-3,10,-4,-7,1,12
1528186357012051,-7,-3,-3,-17,-11,-6,-5,-5
1528186357012051,7,3,7,18,8,2,-1,0
1528186357022024,-2,-3,5,-9,-4,-9,-3,-2
1528186357022024,-1,0,-7,19,13,8,2,-8
1528186357044017,-4,0,8,7,3,2,0,-4
1528186357044017,11,3,3,3,-1,1,0,3
1528186357045987,8,-2,-16,-32,-16,-5,-2,-1
1528186357045987,-19,-8,-8,-24,-7,-4,0,-4
1528186357058978,-1,3,1,2,-7,-6,-1,-2
1528186357058978,-6,-3,0,1,0,-1,-2,-6
1528186357060972,3,0,8,28,2,-4,0,1
1528186357060972,4,-2,-3,-13,-2,2,-1,1
1528186357072945,0,-1,-6,-5,1,-1,-1,-1
1528186357072945,-4,-5,-7,-10,-6,0,-2,-2
1528186357081864,-5,1,1,2,-1,0,-1,0
1528186357081864,0,-2,-3,3,-5,-9,-4,-2
1528186357096903,-4,0,3,-19,-6,-1,-1,1
1528186357096903,4,0,-3,15,2,3,1,-1
1528186357097821,-3,-2,2,0,-3,-1,1,4
1528186357097821,0,-1,2,4,1,-1,0,-3
1528186357118824,5,1,-1,-5,-2,-4,-2,0
1528186357118824,-3,-2,-4,-8,-1,1,0,0
1528186357120760,-6,-3,-2,-1,1,1,1,0
1528186357120760,2,-1,0,-1,-3,-3,-2,-1
1528186357141761,-1,-1,-3,-3,-2,-1,-1,-2
1528186357141761,-5,-4,-3,-9,-5,-5,-1,0
1528186357142733,-1,0,-2,6,-5,-5,-3,-3
1528186357142733,1,0,-1,-1,2,1,1,1
1528186357156693,0,1,-1,3,0,-1,-1,-1
1528186357156693,-4,-1,-1,-8,-5,0,1,0
1528186357157741,2,1,3,-1,0,-2,-3,0
1528186357157741,1,-1,0,3,0,2,0,-1
1528186357186750,-2,-2,-3,0,-3,-2,-2,-2
1528186357186750,-4,-1,3,-6,-2,0,-1,-1
1528186357193721,-1,1,-5,-11,-2,0,-2,-1
1528186357193721,1,1,-3,4,-1,-2,0,0
1528186357194594,0,-2,4,-5,0,1,-1,-1
1528186357194594,-1,-1,-1,-10,-2,-4,-2,0
1528186357209637,-4,-3,3,12,2,0,0,-1
1528186357209637,-1,-2,-1,-3,-1,1,0,-1
1528186357216503,-1,-1,-4,2,-3,-1,-1,0
1528186357216503,-6,-2,-3,-1,-2,-1,-1,-2
1528186357218499,10,2,1,-6,-2,0,0,4
1528186357218499,-1,0,0,-2,-3,-2,-1,-2
1528186357239497,-1,0,-2,2,0,-2,1,1
1528186357239497,-5,-1,-3,0,3,1,-1,-2
1528186357240497,-5,-3,0,-4,-3,-7,-3,-3
1528186357240497,-1,0,2,3,3,5,-1,-3
1528186357252467,-2,0,0,-3,0,-3,-1,5
1528186357252467,1,-3,-1,2,-1,-2,-2,1
1528186357269419,-2,1,5,1,-1,-1,1,0
1528186357269419,-1,-2,-14,-11,-3,-2,-1,0
1528186357276760,-1,-2,-1,-6,1,2,-4,-5
1528186357276760,0,0,0,9,-2,-1,-1,-3
1528186357278594,-2,1,11,5,0,-3,-1,0
1528186357278594,-4,-8,-23,-9,-6,-4,-1,-5
1528186357298540,-3,-4,2,8,3,5,2,-3
1528186357298540,0,1,-10,-24,-4,-9,-1,2
1528186357300534,2,0,1,5,-1,6,-1,-3
1528186357300534,-6,0,11,3,0,-3,-1,0
1528186357312638,0,-1,-13,13,-2,-5,-3,-2
1528186357312638,1,-4,10,-2,0,0,-3,-3
1528186357321479,-5,-2,-24,-25,-5,-2,0,0
1528186357321479,6,3,14,23,5,4,2,0
1528186357343627,-1,-1,-5,-26,-12,-4,-3,-1
1528186357343627,-3,1,10,10,3,1,2,-2
1528186357345596,-7,-2,-11,-5,-4,-3,-3,-3
1528186357345596,10,-1,3,-8,-9,-10,-6,3
1528186357358723,0,3,5,0,4,4,4,1
1528186357358723,1,-6,-9,-1,-2,-3,-3,-2
1528186357364545,-1,-2,1,7,4,-1,-1,-1
1528186357364545,-4,-2,-4,-8,-4,-2,-2,-1
1528186357372542,-1,-1,-9,-15,-3,-5,-1,0
1528186357372542,-1,2,3,11,2,6,1,1
1528186357381498,-3,-1,-1,-6,-6,-6,-3,-2
1528186357381498,-3,0,5,13,-1,-7,-3,-2
1528186357396600,-1,-6,-10,-15,-3,0,-1,-2
1528186357396600,-1,-2,-8,-2,5,5,2,0
1528186357398513,0,-3,5,-9,-2,-1,1,0
1528186357398513,-2,-1,-3,-12,-4,0,1,-1
1528186357419401,2,2,18,32,0,-4,-4,-1
1528186357419401,-3,-4,-15,-13,8,0,-3,1
1528186357420395,-2,-2,2,10,5,5,0,-2
1528186357420395,-1,2,-4,-14,-4,-2,-4,-1
1528186357432532,-1,-2,-1,5,-4,-2,-1,-3
1528186357432532,0,1,6,6,3,2,-5,-5
1528186357441509,-2,-1,10,15,3,-4,-12,-2
1528186357441509,2,1,-6,-21,-3,4,30,11
1528186357456469,0,0,3,1,-8,-9,4,2
1528186357456469,0,-2,-4,-1,-14,-1,6,1
1528186357458466,1,0,2,11,9,-3,-6,-2
1528186357458466,-2,2,4,-1,-6,1,-11,-3
1528186357479435,-2,-7,-3,-9,2,6,3,-2
1528186357479435,0,-1,0,-2,-4,-10,-6,-3
1528186357480420,-1,1,4,3,5,6,4,-1
1528186357480420,-3,-4,-14,-2,-14,-10,-9,-4
1528186357492528,2,3,5,7,13,4,-1,1
1528186357492528,-3,-3,-8,-6,-4,4,-3,-3
1528186357501348,-1,0,-4,-7,-2,-3,2,1
1528186357501348,2,0,9,23,17,1,-4,-3
1528186357515311,-2,-1,1,-12,-13,-14,-6,0
1528186357515311,-1,1,0,-8,-2,5,-3,-4
1528186357522295,5,3,3,-1,-3,0,11,7
1528186357522295,-10,-2,-1,11,7,9,4,1
1528186357539443,-3,-2,-5,-14,-2,3,-2,1
1528186357539443,-4,4,6,2,0,-10,-8,-5
1528186357540423,8,-4,-7,2,-5,-6,7,-2
1528186357540423,-1,0,3,-3,-3,-6,-6,-4
1528186357552684,2,-2,-3,6,4,2,1,0
1528186357552684,0,0,3,1,-1,0,-4,2
1528186357567952,-5,-3,4,1,-3,0,0,-4
1528186357567952,0,-2,-13,-2,2,0,2,1
1528186357575925,-3,1,2,2,-3,-1,-2,-3
1528186357575925,-1,-1,-4,-5,3,0,3,1
1528186357582773,-3,-3,5,11,5,1,-8,-3
1528186357582773,1,-2,-7,-31,0,0,0,-1
1528186357598735,-7,-2,2,5,-3,-1,-2,-4
1528186357598735,3,-3,2,-5,-8,-4,-1,-2
1528186357600725,-1,0,-7,-7,0,1,2,-1
1528186357600725,3,3,3,5,-2,-2,-5,-1
1528186357612827,2,2,-5,1,2,1,-2,-2
1528186357612827,-4,-13,3,4,0,-2,1,1
1528186357627417,-1,-1,-7,-9,-4,0,4,3
1528186357627417,-2,-1,1,1,-3,-2,-3,-1
1528186357636247,7,-1,-3,4,3,2,0,0
1528186357636247,12,3,-2,0,-2,-2,1,3
1528186357642230,-28,-5,-5,-6,-4,-2,-8,-4
1528186357642230,-5,-7,3,3,0,0,1,-4
1528186357659202,-6,-2,0,0,-2,-2,2,0
1528186357659202,5,1,-4,1,0,0,3,2
1528186357660164,7,-1,-2,-10,-4,-3,-4,0
1528186357660164,-7,-1,4,4,2,2,0,-1
1528186357672316,-5,9,-3,-7,-4,-2,-4,-11
1528186357672316,9,4,0,0,-3,-3,1,11
1528186357681473,0,-3,-5,-6,-2,-1,-3,-4
1528186357681473,-3,-4,4,3,2,-1,-2,-1
1528186357695595,0,1,-3,-4,-1,-2,-2,1
1528186357695595,-3,-2,-5,-2,-1,0,1,-5
1528186357702415,13,1,2,1,-2,-2,-2,0
1528186357702415,-35,-4,-8,-3,-2,-1,-2,-3
1528186357718682,-4,-2,3,-1,1,-1,1,-1
1528186357718682,-12,-2,-5,1,-1,-1,0,-2
1528186357720548,18,-1,-4,-1,2,1,0,-1
1528186357720548,13,1,1,3,-2,-1,-1,-3
1528186357741621,-3,-4,-6,-4,-4,-3,-2,1
1528186357741621,-2,0,5,4,1,0,0,-2
1528186357743670,-8,-1,-2,-4,-2,-1,-2,-1
1528186357743670,1,0,3,3,0,-1,-2,-2
1528186357755643,-4,-2,-2,-4,0,1,0,2
1528186357755643,0,0,-3,-4,-2,-3,-1,0
1528186357762625,-7,-2,-1,-2,-4,-3,-2,-4
1528186357762625,-2,2,3,3,-1,-2,-2,2
1528186357778722,5,-1,-2,-5,2,1,0,-1
1528186357778722,-5,-2,-12,-6,-1,-2,-2,-3
1528186357780591,-7,-1,0,-2,-3,-1,0,1
1528186357780591,6,-3,-2,-1,0,0,-1,-2
1528186357801653,2,0,4,3,-2,-1,-1,0
1528186357801653,-7,-5,-7,0,-1,0,-2,-4
1528186357803546,-1,2,2,2,-1,-3,-2,0
1528186357803546,9,3,-2,-2,-3,-4,-4,-1
1528186357815612,-1,-1,-1,1,0,-1,-1,0
1528186357815612,-4,-1,4,0,-2,-2,-1,-3
1528186357824592,0,0,-4,-2,-1,0,1,0
1528186357824592,2,-2,-2,-3,0,-1,0,0
1528186357839433,-2,-2,0,2,1,-1,-2,-1
1528186357839433,-1,0,3,1,-2,-2,1,0
1528186357840428,-2,-2,-3,-1,-1,-2,0,-1
1528186357840428,1,-1,-1,-1,-1,0,-1,0
1528186357861369,0,-1,0,-1,-2,-1,-1,-2
1528186357861369,4,1,2,2,-2,-2,-2,-2
1528186357863373,-1,-3,-3,-3,-1,1,-1,0
1528186357863373,-1,-1,-4,1,-1,-1,-1,0
1528186357875462,-1,-3,-5,-3,-3,-2,0,1
1528186357875462,-3,0,6,3,0,1,-1,-2
1528186357884331,-3,-1,3,-1,1,-1,0,0
1528186357884331,1,-1,-8,-7,1,-1,0,1
1528186357899412,0,-2,-3,3,-3,-2,1,-1
1528186357899412,-1,1,2,1,0,1,1,-1
1528186357900288,-3,-2,0,-2,-1,-1,-1,-4
1528186357900288,0,-1,3,0,-1,-2,-1,0
1528186357921200,-1,-1,1,0,-1,0,0,-1
1528186357921200,-2,-1,-4,0,-1,-2,-1,-1
1528186357923192,0,1,1,0,0,-1,0,0
1528186357923192,0,-1,0,-3,-1,-2,-3,-1
1528186357935305,-1,-4,-1,-1,1,0,-1,-2
1528186357935305,-2,-2,0,-1,-2,-1,-3,0
1528186357944137,0,-1,-4,-2,-1,-1,-1,0
1528186357944137,-1,1,-1,-2,-4,0,0,-2
1528186357959237,-2,-2,0,1,-2,-1,-3,0
1528186357959237,-1,-1,-4,-2,1,-2,-1,-2
1528186357960230,-1,-1,1,-1,-1,0,-1,0
1528186357960230,-2,-2,-5,-3,0,0,0,-2
1528186357982040,-1,0,0,0,-1,-2,-1,-2
1528186357982040,-3,-4,-1,-2,0,-1,0,-1
1528186357983052,-2,-1,-2,-2,-2,-1,-2,-1
1528186357983052,0,1,0,2,-1,-1,-2,-1
1528186357995135,-1,-2,-2,-1,0,-1,-1,-2
1528186357995135,0,-1,-1,0,-1,-1,-1,-1
1528186358003976,-2,-2,-5,-2,-1,-2,-2,-1
1528186358003976,3,-1,0,-2,-1,1,0,0
1528186358018937,0,1,6,6,0,1,1,-1
1528186358018937,-4,-3,-13,-13,-3,-2,-1,-1
1528186358020937,-2,-1,1,0,-2,-3,1,-2
1528186358020937,-2,-2,-1,-1,-1,-2,-1,-2
1528186358041875,1,-1,1,-1,-1,-2,-2,-1
1528186358041875,-1,-1,3,3,-1,-1,-2,-1
1528186358042883,1,1,-1,0,-1,0,-1,-1
1528186358042883,0,-2,5,5,0,-3,-1,-1
