timestamp,emg1,emg2,emg3,emg4,emg5,emg6,emg7,emg8
1528276945629141,0,-1,0,0,-1,-1,-2,0
1528276945629141,-2,1,-1,-1,-1,0,1,1
1528276945630140,-2,-2,-2,-1,-1,-2,-1,-1
1528276945630140,-1,0,-3,-1,-1,-1,0,-1
1528276945630140,-1,-1,0,-1,-1,-2,0,-2
1528276945630140,0,-2,-1,-1,-1,0,-2,-1
1528276945631137,0,-3,-1,-2,-1,-1,-1,-1
1528276945631137,0,-1,0,0,0,-1,0,-1
1528276945643105,0,0,-3,-2,-1,-2,-2,0
1528276945643105,-1,-2,-1,0,0,-1,-1,-1
1528276945651117,-1,-1,-1,-1,-1,-2,1,-2
1528276945651117,-2,-2,-1,-1,-3,0,-2,-1
1528276945657116,-1,-2,0,1,0,-2,-2,-1
1528276945657116,-2,-1,-1,-3,-1,-2,-1,-1
1528276945672029,-1,0,0,0,-1,-1,-1,0
1528276945672029,-1,-1,1,-1,0,-2,0,0
1528276945681004,1,-1,-2,-1,-1,1,0,-1
1528276945681004,-1,-1,-1,-1,0,-1,-3,-2
1528276945696961,-1,0,0,-2,0,-1,-1,0
1528276945696961,0,-1,-3,-2,0,0,1,-1
1528276945702973,0,-1,-1,-3,0,-1,-2,-1
1528276945702973,0,0,-2,-1,-2,0,0,-1
1528276945716907,-1,0,-2,0,0,1,-2,-1
1528276945716907,-2,-1,0,0,-2,-2,-1,-1
1528276945757800,-1,1,0,-1,-2,-1,-1,0
1528276945757800,-1,0,-2,0,0,-1,-2,-1
1528276945758797,-2,-1,-2,-1,-2,-1,-1,-3
1528276945758797,0,0,-1,-1,-1,-1,-2,-3
1528276945759803,-1,-2,-1,-2,-2,-1,0,0
1528276945759803,-1,-2,-1,-2,-1,-2,0,-1
1528276945762805,-1,-1,-1,0,-1,0,-1,-2
1528276945762805,-1,-2,-2,-2,-2,0,-2,0
1528276945768803,-1,-1,-2,0,-1,-2,-2,-1
1528276945768803,0,0,-2,0,0,0,0,-1
1528276945776784,0,-1,-1,0,0,0,-2,0
1528276945776784,-1,-2,0,-2,-2,0,0,-1
1528276945785724,-2,-2,-1,0,-2,-1,1,-1
1528276945785724,-2,-2,-1,-2,-1,-2,0,-1
1528276945799735,-2,-1,-1,-1,-1,-2,-1,0
1528276945799735,-1,0,0,0,0,-2,0,-2
1528276945815645,-2,-1,-1,-1,-1,-1,-2,-2
1528276945815645,-1,-2,0,-1,-2,-1,-1,0
1528276945830652,0,-3,1,-2,-2,-1,1,-1
1528276945830652,0,-1,-1,-1,-2,-2,-1,0
1528276945832600,0,-2,-2,-1,-1,0,0,0
1528276945832600,0,0,-1,1,-2,0,-1,-2
1528276945844621,0,-1,0,-3,-1,-1,-1,0
1528276945844621,-2,-2,-1,1,-2,-1,-2,-2
1528276945853544,-2,-2,-1,-2,1,-2,-3,-1
1528276945853544,-1,-1,0,-1,-1,-3,-1,0
1528276945868502,-1,0,-1,0,-1,-2,0,-2
1528276945868502,-1,-1,0,-1,-2,-2,0,0
1528276945869513,1,-1,-1,-1,0,0,0,-2
1528276945869513,-1,0,0,-2,-1,-1,-2,-1
1528276945890473,-1,0,-2,-1,-1,-2,-2,-1
1528276945890473,-1,0,-1,0,-1,0,-1,-1
1528276945892472,-1,-1,0,-1,-1,-1,-1,1
1528276945892472,0,-2,-3,-1,-1,-1,-1,0
1528276945904453,-2,-2,0,0,-1,0,0,-1
1528276945904453,-2,-2,-2,-3,-1,-1,-2,-3
1528276945913385,0,0,0,0,-1,-1,-1,5
1528276945913385,-1,0,-1,-1,-3,0,-1,-3
1528276945928353,0,-1,-2,-2,0,0,-1,0
1528276945928353,-2,-2,-1,1,0,-2,1,0
1528276945930337,-2,0,0,-2,0,0,0,-4
1528276945930337,0,0,0,-1,-2,-1,0,0
1528276945950285,0,-2,-2,-1,-2,-2,-1,-2
1528276945950285,-1,-1,-1,-2,-1,-2,0,-2
1528276945952300,-2,-1,0,-2,-1,-1,-1,-2
1528276945952300,-1,-1,0,-3,-1,-1,-1,-1
1528276945964249,-1,0,-1,-2,0,-1,-1,-1
1528276945964249,0,0,-2,-1,0,0,-1,0
1528276945973227,0,-2,-1,1,-2,-2,-2,-2
1528276945973227,-2,-1,-3,0,-2,-3,-2,-1
1528276945988183,-2,-2,-2,0,-2,0,-1,1
1528276945988183,-1,-1,-1,-2,0,-2,-2,1
1528276945990228,0,-1,-2,-1,-1,-1,-1,-1
1528276945990228,-1,-1,-1,-2,-2,0,-1,-2
1528276946011123,0,-2,-1,-1,-3,-2,0,-2
1528276946011123,-1,-1,0,1,-1,-1,0,-1
1528276946012120,-2,-1,-2,-1,-1,-1,-2,-2
1528276946012120,1,-3,-1,-2,0,-2,-1,0
1528276946024140,-2,-1,0,0,0,-1,-1,-2
1528276946024140,0,0,-1,-1,-1,-1,-1,-1
1528276946041042,0,0,-1,-2,-2,-1,0,-1
1528276946041042,-2,-1,0,0,-1,-1,-2,-1
1528276946048024,1,-2,0,-2,-1,-3,-1,0
1528276946048024,-1,-1,0,0,-2,-1,0,0
1528276946050017,-1,-1,-1,-1,-1,-1,-1,-2
1528276946050017,-2,0,-1,-1,-3,0,-1,0
1528276946071960,0,-1,-1,-1,1,-1,-2,0
1528276946071960,0,-1,-3,-1,-1,-2,-1,-1
1528276946073954,1,-1,-2,-2,-2,-2,-2,-1
1528276946073954,-2,-2,-1,-2,0,0,0,-1
1528276946092903,-1,0,0,-1,-1,0,-2,-1
1528276946092903,0,-1,0,-1,-1,-2,-1,0
1528276946094899,-1,0,-1,1,-1,1,-1,-1
1528276946094899,0,-1,-1,-2,-1,0,1,-3
1528276946107921,-3,-1,-2,-2,-2,-1,-1,-1
1528276946107921,-2,-1,-1,-3,-1,1,-2,0
1528276946109858,0,0,-2,-2,-1,-1,-2,-1
1528276946109858,0,-1,-1,-1,-1,-2,0,-1
1528276946137783,0,0,-2,-2,-1,1,-1,-2
1528276946137783,-1,0,0,0,-2,-3,0,-1
1528276946139777,-1,-2,-1,-1,0,0,-2,-2
1528276946139777,-1,-1,-1,-1,-2,-1,-2,-2
1528276946143768,-1,0,-2,-1,-2,-2,1,-1
1528276946143768,-1,-2,-1,-1,-1,-1,-2,0
1528276946153740,-2,-2,-1,-1,-2,-2,-1,0
1528276946153740,-1,-1,-2,-1,-2,-2,0,1
1528276946167704,0,-1,-1,-1,0,-1,-2,0
1528276946167704,0,-1,-1,-2,-2,0,-1,-2
1528276946169698,-1,-2,0,0,1,-2,-1,-2
1528276946169698,-1,-1,-1,0,-1,0,-1,-2
1528276946190668,0,-2,-1,-2,-1,-3,0,1
1528276946190668,-1,0,-2,0,2,1,-2,-1
1528276946192664,-1,-1,0,0,-1,-1,-1,-1
1528276946192664,-2,-1,-1,-2,-2,-1,-1,0
1528276946204657,-1,-1,-2,-3,-1,0,0,-1
1528276946204657,-1,-1,-1,-2,-1,-2,-2,1
1528276946213594,1,1,0,0,-2,-1,1,-1
1528276946213594,-2,-1,1,-1,-1,-2,-1,-3
1528276946235524,-1,-1,1,0,0,0,-1,-1
1528276946235524,-2,-2,-2,0,0,0,-1,-2
1528276946237519,-2,-2,-3,-1,0,0,-2,-1
1528276946237519,1,-1,-2,-1,-1,0,0,-1
1528276946250483,-2,-1,-1,-2,-1,-1,-1,-2
1528276946250483,-1,-1,-1,-2,-2,0,-2,-2
1528276946252478,-1,-1,-1,-2,-2,-2,-1,-2
1528276946252478,-2,0,0,-1,-1,-2,-1,0
1528276946280412,-1,0,-1,-1,-1,-3,0,-1
1528276946280412,-1,-1,-1,-1,-1,1,1,-1
1528276946282399,-1,0,0,0,-1,-1,-1,0
1528276946282399,-2,-1,-1,-2,0,0,-1,-1
1528276946288382,-1,0,-2,-1,-1,-1,-1,-1
1528276946288382,0,-1,-1,0,-1,-2,-1,0
1528276946289379,0,-2,0,-1,-1,-1,0,0
1528276946289379,0,-1,-1,-1,-2,-1,-1,-2
1528276946318346,0,-1,-1,0,-2,0,-1,0
1528276946318346,0,1,-1,0,-2,-2,-1,-1
1528276946319313,0,0,-2,-2,-1,-2,-1,-1
1528276946319313,-1,-3,-1,-1,0,1,-1,0
1528276946324321,-2,-1,-1,-2,-1,-1,-1,-2
1528276946324321,-1,0,-2,1,-1,-1,-1,-1
1528276946333260,-3,-1,-1,-1,-1,0,-1,-1
1528276946333260,0,-1,-1,-1,0,-1,-1,0
1528276946347224,-1,-1,-1,-2,0,-1,-1,0
1528276946347224,0,1,0,-2,-1,-2,0,0
1528276946354204,-1,-3,-2,-1,1,0,-1,-1
1528276946354204,1,-1,-2,-2,-2,-2,-1,-1
1528276946370161,-3,-1,-1,-1,-2,-1,-2,-3
1528276946370161,-1,-3,-2,-1,0,-1,-2,-1
1528276946372156,0,-1,-2,-1,0,0,0,-1
1528276946372156,-1,-1,1,-2,0,-1,-2,0
1528276946384124,-1,-1,-1,0,-1,0,0,-1
1528276946384124,-3,-1,0,-1,-1,0,-2,-2
1528276946393100,-1,0,-2,-1,-1,-3,0,-1
1528276946393100,0,-2,-1,-2,-1,-1,-2,-1
1528276946407063,-1,-1,-1,-1,-2,0,-1,-1
1528276946407063,-1,-1,-2,-2,-2,0,-1,0
1528276946414048,-1,-1,1,-1,-1,-2,0,-1
1528276946414048,-2,0,-3,-1,0,-3,0,-1
1528276946431000,-1,-2,-1,-1,0,-2,0,-1
1528276946431000,-1,-1,-1,-1,-1,-1,-1,0
1528276946431996,-1,-1,-2,-2,-1,0,-1,-2
1528276946431996,-2,0,-1,1,-2,0,-1,-2
1528276946443964,-2,-2,-1,-1,0,0,0,-1
1528276946443964,0,-1,-1,0,-2,-1,0,-2
1528276946452940,-1,-1,-1,-1,-1,-2,-1,0
1528276946452940,-1,-2,-1,0,-1,-2,1,0
1528276946466904,-1,-2,-2,0,0,0,-2,-1
1528276946466904,-1,0,1,-1,-1,-2,-1,-1
1528276946475880,0,-2,-1,-2,0,1,-2,0
1528276946475880,-2,-1,-1,-3,-2,-2,-1,-2
1528276946490839,-2,0,0,0,0,-3,-2,-1
1528276946490839,-2,-1,-2,0,0,-1,-1,-2
1528276946491866,-1,-1,-2,-1,-2,-3,-2,0
1528276946491866,0,-1,0,-2,-1,0,0,0
1528276946512782,-1,0,-3,0,-1,-2,-1,0
1528276946512782,-1,-1,0,0,1,-1,-1,-1
1528276946514786,-1,0,0,-1,0,0,-1,-1
1528276946514786,-1,0,-1,0,-2,0,-1,0
1528276946527793,1,-2,-1,-1,-2,-2,-2,0
1528276946527793,-2,-1,-1,-2,-1,0,0,0
1528276946534722,-1,-1,-1,0,0,-1,-1,-1
1528276946534722,-2,0,-2,-1,-1,0,-1,-1
1528276946550680,0,-1,-1,-1,-1,0,0,-1
1528276946550680,0,-1,0,0,-2,-1,-2,-1
1528276946552701,-1,-1,0,-1,-2,0,-1,-2
1528276946552701,-2,0,-1,-1,-1,-1,-1,-1
1528276946573642,-2,0,-1,-2,0,1,-1,-1
1528276946573642,0,-2,-2,-2,-1,-2,0,-1
1528276946574616,-2,0,0,0,-2,-2,-1,0
1528276946574616,-2,-1,-1,1,-1,-1,-3,-2
1528276946587615,-2,0,-1,-2,-1,-1,0,-1
1528276946587615,-2,-1,0,-2,-1,-1,-1,-1
1528276946601583,0,-1,-3,0,-1,1,-1,-1
1528276946601583,0,-3,-1,-1,0,-3,-3,-1
1528276946610554,-1,-1,0,-1,-2,0,-1,-1
1528276946610554,-2,0,-1,0,-1,-1,-1,-1
1528276946612513,-2,-2,-1,-1,-2,-1,-1,-3
1528276946612513,-1,-1,-1,-1,-1,0,-1,0
1528276946633457,0,-2,-2,-1,0,-2,-1,-1
1528276946633457,-1,-1,-1,1,0,-1,-1,-1
1528276946634455,-2,-1,-1,-1,-1,-1,0,0
1528276946634455,0,-1,0,-2,0,0,0,0
1528276946646423,-1,-1,1,0,-1,-1,-1,-1
1528276946646423,-1,-2,0,-3,-2,0,-1,-1
1528276946655450,-1,-2,-1,-1,-1,-2,-1,-2
1528276946655450,-1,0,-1,0,-1,-1,2,0
1528276946670359,-2,-1,1,1,0,-2,-2,-1
1528276946670359,-1,-1,-2,-2,-3,-2,-1,-2
1528276946672361,-1,-2,-1,0,-2,-1,-2,1
1528276946672361,-1,-1,0,-3,-1,-1,-1,-2
1528276946693462,-1,-1,-2,-2,-1,-1,-2,-2
1528276946693462,-1,-1,-1,-1,-1,-2,-2,-1
1528276946695385,0,-1,-1,-2,-1,-2,-1,0
1528276946695385,-3,0,-1,-1,-3,-1,-1,-1
1528276946707460,0,-1,1,0,-1,0,-1,-1
1528276946707460,-1,-1,-1,-1,0,-1,0,-1
1528276946715591,-2,0,-1,-1,-1,0,-3,0
1528276946715591,-2,-1,-2,0,0,0,-3,1
1528276946729480,-1,-1,-2,0,-1,-2,-2,-2
1528276946729480,-1,0,-2,0,-1,0,0,-1
1528276946738456,-1,-1,-1,-1,-2,-2,0,0
1528276946738456,-1,-2,0,0,-1,0,-1,-3
1528276946753705,-1,-1,-1,-1,-3,-1,1,-1
1528276946753705,0,-1,-1,-2,-3,0,-1,-2
1528276946754622,0,-2,-3,-2,-1,0,-1,0
1528276946754622,-1,-2,-1,-1,-2,-2,-1,-1
1528276946775965,-2,-2,-2,-1,-1,-2,-3,-2
1528276946775965,-1,-3,-1,0,-2,-1,0,-1
1528276946776767,0,0,0,-2,-1,-3,-1,-1
1528276946776767,0,-1,-2,-1,-1,0,0,-1
1528276946789922,0,-1,-1,-1,-2,-1,-1,-1
1528276946789922,0,0,-1,-1,0,-1,0,-2
1528276946798739,1,-1,-1,0,0,-1,-1,0
1528276946798739,0,-1,-1,-1,0,-3,-1,0
1528276946812670,-1,-1,-1,-2,-1,-1,-1,0
1528276946812670,-1,-1,-2,0,-1,-1,-2,0
1528276946819652,-3,-2,0,-3,-1,-1,-1,-1
1528276946819652,-1,0,-1,-3,-1,-1,-2,-1
1528276946835767,-1,-1,-1,-1,-1,1,-1,-1
1528276946835767,-1,-1,-2,0,-2,-2,-2,0
1528276946837603,-2,-1,-1,-1,-3,-2,2,-4
1528276946837603,0,-2,-1,0,-2,-1,0,-1
1528276946849570,0,0,0,-2,-2,0,-1,-1
1528276946849570,-1,-3,-1,0,1,-2,0,-1
1528276946858123,-1,-2,-2,-1,-1,0,-2,-1
1528276946858123,0,-2,-1,1,-1,0,-1,-2
1528276946873292,-1,-1,-2,0,-3,-1,0,-1
1528276946873292,-1,-1,0,-2,-3,0,-1,-2
1528276946880488,-1,-2,1,-1,-1,-1,-1,-1
1528276946880488,-1,-2,-2,-3,-1,-1,-2,-1
1528276946895543,-4,-1,-2,-1,-1,-1,0,0
1528276946895543,-3,-2,-2,-1,-1,-1,-2,-1
1528276946895543,-2,0,-2,0,-1,0,-2,-2
1528276946895543,-1,0,-1,-1,0,-2,-1,-1
1528276946925363,1,-1,-1,0,-1,-1,0,-2
1528276946925363,0,0,-1,-2,-2,-1,-1,-1
1528276946926360,0,-2,0,0,0,0,-2,-1
1528276946926360,-1,-1,-2,0,-1,-2,-1,-1
1528276946932376,-1,-1,-3,-2,-2,-1,-3,-3
1528276946932376,1,-1,0,-2,-1,-1,0,3
1528276946939546,-1,0,0,-3,-1,-2,-1,-1
1528276946939546,-1,-1,0,-1,-1,-1,-1,0
1528276946955500,-3,-1,-1,-1,0,-2,-1,-3
1528276946955500,-1,0,-1,1,-2,0,-1,-2
1528276946955500,0,0,-2,-1,-1,0,0,1
1528276946955500,0,-1,-2,-1,-2,1,-1,-2
1528276946977444,-2,-2,0,-1,-2,1,-2,-2
1528276946977444,-1,0,-2,-1,-2,-1,0,-2
1528276946978439,0,-2,-1,0,0,0,0,-3
1528276946978439,-3,-1,-1,-1,0,-1,-1,-1
1528276946991607,1,-1,0,-1,-1,-2,0,2
1528276946991607,-1,-1,-1,-1,0,-2,-2,-3
1528276947000599,0,-1,-3,-2,-3,-1,0,-3
1528276947000599,-3,-2,0,0,-1,-1,1,0
1528276947015543,0,-2,-1,-1,-2,-2,0,1
1528276947015543,0,-1,-1,-1,-1,-2,0,0
1528276947015543,-2,0,-2,0,-1,0,-1,-1
1528276947015543,0,-1,-1,-1,-1,-1,-1,-3
1528276947037484,0,-1,-1,-2,0,-2,0,0
1528276947037484,-1,-3,-1,-2,-1,-2,-1,-1
1528276947038483,-3,0,0,0,-1,-2,-1,0
1528276947038483,-2,-1,-1,-1,-1,-1,-1,1
1528276947051447,-2,0,-2,-1,-2,-2,-1,-1
1528276947051447,-2,-1,-1,-2,-1,-2,-1,0
1528276947060556,0,-2,0,0,-1,-2,-1,-1
1528276947060556,-2,-2,-1,-1,-2,-1,-1,-2
1528276947075386,-2,-1,0,-1,-1,-1,-1,-1
1528276947075386,-2,-1,-1,-1,-2,0,-2,-2
1528276947075386,-1,-1,-2,-1,-1,-1,0,0
1528276947075386,1,0,-1,0,-1,-1,-2,-3
1528276947097524,2,-1,-1,-2,-1,-2,-1,-1
1528276947097524,-1,-1,0,-2,-2,0,-1,-2
1528276947098360,0,-2,-1,-2,-1,-2,-1,-2
1528276947098360,-1,-1,-3,-1,-1,-2,-2,-2
1528276947113320,-2,-1,-1,-1,-1,-1,-2,0
1528276947113320,-3,-1,0,0,-1,-1,-1,0
1528276947120643,0,-1,0,-2,-1,-1,-2,-3
1528276947120643,0,-1,0,-3,-1,0,-1,-1
1528276947134770,-1,0,-2,1,0,0,-1,1
1528276947134770,-2,-1,-1,0,-1,0,-2,-1
1528276947135606,0,-2,-2,1,-1,-1,0,0
1528276947135606,1,-1,-2,-2,-2,-2,0,-1
1528276947157915,-1,-2,-1,-2,0,0,-2,-1
1528276947157915,0,0,-1,-3,-1,0,-1,0
1528276947158750,-1,-3,-1,-1,-1,-1,0,0
1528276947158750,-1,-2,0,0,0,-2,0,-1
1528276947173271,-1,-1,0,-1,-2,-1,1,-1
1528276947173271,-2,0,-1,0,-2,-1,0,-3
1528276947174107,-1,-2,-1,-1,-2,-2,1,-1
1528276947174107,-1,0,1,-1,-2,-2,-2,0
1528276947195579,-1,-1,-1,-1,-2,-3,-1,-2
1528276947195579,0,-1,0,0,-1,-1,-1,-1
1528276947195579,-2,-1,-1,-1,-2,-1,-2,-1
1528276947195579,-1,-2,-2,-1,1,-1,1,-2
1528276947217582,-2,-3,-2,0,-1,-1,-2,-1
1528276947217582,-3,-2,-2,-1,-2,-2,-1,0
1528276947218429,-1,1,-1,-1,-2,-1,0,0
1528276947218429,-1,-2,-2,0,0,-1,-1,0
1528276947232444,1,-2,-1,-2,0,0,-2,-1
1528276947232444,1,-1,-1,0,0,-2,0,-2
1528276947240488,-1,0,-2,-1,-2,0,-2,-1
1528276947240488,-1,0,0,-1,-1,0,-2,-1
1528276947254630,-1,0,-2,0,-2,-1,0,-2
1528276947254630,0,-1,0,-1,-1,-1,0,0
1528276947255487,-1,0,-2,0,0,0,-1,-1
1528276947255487,-1,-1,-1,-2,-2,-1,-1,-1
1528276947277428,-2,-1,0,-1,-1,-1,-1,0
1528276947277428,0,0,-1,-1,1,0,-1,-3
1528276947278426,-1,-1,-1,-2,0,1,-1,-1
1528276947278426,-1,-1,-1,-1,-1,-1,0,0
1528276947292583,-2,0,-1,-1,-1,-1,-1,-1
1528276947292583,0,-3,0,-1,-2,-3,-1,-1
1528276947293448,0,-2,1,-1,-1,-3,-1,0
1528276947293448,-1,-1,-1,1,1,-2,-2,-2
1528276947314768,0,0,-1,-2,0,-1,-1,0
1528276947314768,-2,-2,-2,-1,-2,-2,0,-1
1528276947315621,-1,0,0,-1,-1,1,1,0
1528276947315621,-1,0,1,-1,-1,-1,0,-1
1528276947337770,-2,-2,-1,-2,-1,-2,-1,-1
1528276947337770,-1,1,0,-1,0,0,-1,-1
1528276947338856,-1,-1,-2,0,0,0,-1,-1
1528276947338856,-3,-3,-1,-1,-2,-1,-1,0
1528276947353123,0,0,-2,0,-1,1,-2,-1
1528276947353123,-1,-1,-1,-1,-2,-2,0,0
1528276947353123,-2,-1,-1,-1,0,-1,0,-1
1528276947353123,0,0,-3,-2,-1,-1,-1,0
1528276947375422,0,-2,-1,-1,-1,-1,0,-2
1528276947375422,0,-1,0,-1,-1,-1,-1,-1
1528276947376352,-1,-1,-2,-1,-1,-1,-2,0
1528276947376352,-2,-1,0,-2,-2,-1,-1,-4
1528276947397201,0,-1,1,0,0,1,2,2
1528276947397201,-2,-1,-1,-1,-1,-1,0,-2
1528276947398198,-2,-2,-1,-1,-1,-2,-2,0
1528276947398198,0,-1,-2,-1,-2,-1,-2,2
1528276947412302,0,0,0,-1,0,0,0,-1
1528276947412302,-1,-1,-1,-2,-1,-3,-2,-4
1528276947413164,0,-1,-2,-1,-1,-1,-1,1
1528276947413164,-1,-2,-2,-1,0,0,-2,-3
1528276947435255,-1,-1,-2,-2,-2,-2,-2,-1
1528276947435255,-2,-2,-2,-1,-1,1,1,0
1528276947436096,0,-2,-1,-1,0,-2,-1,-4
1528276947436096,-1,-1,-1,-1,0,0,1,-1
1528276947457181,-2,0,-1,-1,0,-1,0,-1
1528276947457181,-1,-1,-1,-1,0,0,-1,-1
1528276947458038,-1,0,0,-1,-2,-3,-1,0
1528276947458038,-1,-1,-2,-2,-2,0,-1,-1
1528276947480991,-2,-2,0,-2,-2,-1,-2,-1
1528276947480991,1,0,-1,-1,-1,-1,-2,0
1528276947482064,-1,-1,0,-1,-1,-2,-1,-2
1528276947482064,0,-1,0,0,-1,-2,0,1
1528276947495080,-1,-3,-1,0,-2,-2,-2,-2
1528276947495080,1,-1,-1,-1,-1,0,-1,0
1528276947495953,-2,0,-1,-2,-1,0,-1,-2
1528276947495953,-1,-1,-1,0,-1,-1,0,0
1528276947518022,-1,0,-2,-2,0,0,0,-2
1528276947518022,-2,-2,-2,-1,0,-1,0,-1
1528276947518022,-2,-1,-1,-2,-1,-1,1,0
1528276947518022,-2,1,-1,-1,-1,-1,-2,-2
1528276947533019,-1,-1,-1,-2,-2,-2,-1,0
1528276947533019,-2,0,-1,-1,-1,0,0,-1
1528276947533019,-1,-1,-1,-1,-2,1,-1,-1
1528276947533019,-1,-1,-2,-1,-1,0,-2,-1
1528276947555072,-2,-2,-1,0,-2,0,-2,-1
1528276947555072,-1,-1,-1,0,-2,-2,-1,-1
1528276947555947,0,0,-1,-1,-2,-1,0,-1
1528276947555947,0,-1,0,-2,-1,-1,-2,-1
1528276947578032,-1,-1,-1,-2,1,-1,-1,-3
1528276947578032,-2,0,-2,-2,-1,-1,-3,0
1528276947578904,-1,-1,-3,0,0,-1,-1,-1
1528276947578904,-2,-1,-3,0,-1,-1,1,1
1528276947593051,-2,-1,-2,-1,-1,0,-1,-2
1528276947593051,1,0,-1,1,0,-2,-1,-1
1528276947593051,-2,-2,0,-2,-1,0,-1,0
1528276947593051,0,-2,1,-2,-1,-3,-1,0
1528276947615138,-1,-2,-1,0,0,0,-2,1
1528276947615138,-1,0,-1,-1,-2,-2,-2,1
1528276947615974,0,-1,-1,0,-2,-1,-1,-2
1528276947615974,-1,0,-2,0,1,-2,0,-1
1528276947638019,0,0,-1,0,-1,-1,0,0
1528276947638019,0,0,-1,-2,-2,-1,-2,-2
1528276947638019,-2,-1,0,-1,0,-2,-2,-3
1528276947638019,0,-2,0,-1,-2,-1,-2,-1
1528276947667837,-2,-2,-1,-1,0,-2,-1,-1
1528276947667837,-1,-1,0,0,0,0,-1,0
1528276947668834,0,0,-1,-1,-3,-2,1,-1
1528276947668834,-2,-2,-3,0,-1,0,-1,-2
1528276947674828,-1,0,0,0,-3,-2,-1,-1
1528276947674828,-1,-2,-3,-1,0,0,-1,-2
1528276947675813,-1,-1,-1,-2,-1,-1,-1,-2
1528276947675813,-2,0,1,-1,-2,0,0,1
1528276947697754,0,-1,-2,-1,0,1,0,-2
1528276947697754,-2,-3,-1,-2,-1,0,-1,-1
1528276947698753,-1,0,-1,-1,-1,-1,1,-2
1528276947698753,-1,-3,0,-1,0,0,1,0
1528276947713712,-2,-1,-1,-3,-2,-2,-2,-2
1528276947713712,-2,1,0,-1,-1,-1,1,-1
1528276947719696,0,-2,-2,-1,0,-1,-1,-1
1528276947719696,0,0,-1,0,-3,-2,-1,-1
1528276947734656,-1,-1,-2,0,0,-1,1,1
1528276947734656,0,-3,-1,1,0,-1,-2,0
1528276947735660,0,0,0,0,-1,-1,-1,1
1528276947735660,-1,0,-1,0,-1,-2,-2,-1
1528276947757595,-1,-1,0,-1,-2,-2,0,-2
1528276947757595,-1,1,-2,-1,-2,-2,0,-2
1528276947758592,-1,0,-1,0,0,0,-1,0
1528276947758592,0,0,0,-2,0,-2,0,0
1528276947771557,1,-1,-1,-1,-1,-1,1,0
1528276947771557,-2,-1,-2,-2,-1,-2,-2,0
1528276947779538,-1,-1,-2,-1,-2,0,-2,0
1528276947779538,0,0,-2,-1,0,0,-1,-2
1528276947794496,0,-2,1,-1,-1,0,-1,-1
1528276947794496,-1,0,-1,0,0,-1,0,0
1528276947795513,0,-1,-1,-1,-1,-1,-1,-1
1528276947795513,-2,-2,-2,0,-2,0,0,0
1528276947817434,1,-1,-1,-1,-2,-3,-1,0
1528276947817434,-1,-2,-1,0,0,-1,0,-2
1528276947818432,-2,-2,-2,0,-1,-1,0,-1
1528276947818432,-1,-2,0,-1,0,-1,-1,-1
1528276947831397,-3,0,-1,-1,-2,-2,-3,-1
1528276947831397,-1,-2,-1,-1,-2,-2,-1,-2
1528276947840429,0,0,0,-2,-2,-2,-2,0
1528276947840429,-3,-2,-1,-2,-1,-2,-1,-1
1528276947855388,-2,-2,0,-2,0,-2,-1,0
1528276947855388,0,1,-1,-1,-1,-1,0,-1
1528276947855388,-2,-3,-1,0,-1,0,-1,-3
1528276947855388,-1,0,-3,-1,-1,1,-1,-1
1528276947877275,-1,0,-2,0,-3,0,-2,-2
1528276947877275,-1,-2,0,-1,-1,-1,-1,-1
1528276947878272,-1,-2,-2,-1,0,-1,-1,0
1528276947878272,-2,-2,-1,1,-1,-1,-2,-3
1528276947902210,0,-1,-2,-1,1,-2,-1,0
1528276947902210,-1,-2,-1,-2,-2,0,-2,-1
1528276947903261,-1,-1,0,0,-1,0,-1,-2
1528276947903261,0,1,-1,-3,-1,0,0,-2
1528276947915232,1,0,-3,0,0,0,1,-2
1528276947915232,0,-1,0,-2,-1,-2,0,-1
1528276947916227,-2,-2,-1,-1,-1,-2,-2,-2
1528276947916227,0,-1,-1,-1,-2,-4,-1,-1
1528276947937170,-1,-1,-1,0,-1,-1,0,-1
1528276947937170,-1,0,-2,-2,-3,-1,0,-1
1528276947938132,-2,-1,0,-2,-1,-1,-1,-1
1528276947938132,-1,-1,-2,0,0,-1,-1,-2
1528276947952130,0,1,-1,-3,-1,-2,0,-1
1528276947952130,-1,-2,-2,1,-1,-1,-2,-2
1528276947960066,-2,0,0,-2,-2,-1,0,0
1528276947960066,1,-1,-2,-1,-2,-1,0,-1
1528276947975014,-1,0,-1,0,-1,0,-1,-3
1528276947975014,-2,0,0,-2,-1,-1,-1,-2
1528276947976011,1,-2,-2,-2,-1,0,0,0
1528276947976011,-1,-1,-1,-1,-2,-2,-3,1
1528276947998037,-1,0,-1,-1,-1,-1,-1,-1
1528276947998037,-1,1,-2,-1,-2,0,-1,-1
1528276947998037,-1,-1,-1,-2,-2,0,-1,0
1528276947998037,-2,-3,0,-1,-1,-1,1,0
1528276948029165,-1,-3,-2,-1,-1,0,-1,-1
1528276948029165,0,-3,-1,-1,0,-1,-1,-2
1528276948030150,-1,0,-2,-1,-1,0,-1,-1
1528276948030150,-1,-2,-2,-1,-1,0,-2,-2
1528276948035298,-1,-2,-1,-1,-1,-1,-1,-1
1528276948035298,-1,-1,-2,-1,-1,-2,-1,0
1528276948036133,-1,-1,0,-1,-1,0,-2,-1
1528276948036133,0,0,-2,0,-1,-1,0,0
1528276948057104,0,-2,0,0,0,-2,-2,-1
1528276948057104,-1,0,-1,-1,0,-1,-1,1
1528276948058126,0,-1,0,-2,1,-3,0,-1
1528276948058126,-2,-1,-2,-2,-1,-2,0,2
1528276948081026,-2,-2,0,-1,-3,-2,-1,-2
1528276948081026,0,0,-2,1,-2,-1,-1,-1
1528276948081026,-2,0,-2,-1,-2,-1,0,-2
1528276948081026,0,-1,0,-1,-1,-2,-1,-2
1528276948094975,-1,-2,-2,-1,-1,0,0,0
1528276948094975,-1,-3,-1,-2,-2,1,-1,-1
1528276948095973,-1,-1,-1,-2,-2,-1,-1,0
1528276948095973,-1,-1,-1,-1,-2,-1,-2,-3
1528276948118063,0,-1,-1,-1,0,-1,-1,-1
1528276948118063,0,0,1,-2,-1,-4,-1,-3
1528276948118063,-2,-1,-1,-1,-2,-1,-2,-2
1528276948118063,-2,-1,-2,0,1,0,-1,-1
1528276948141164,-1,0,-2,1,-1,-1,0,0
1528276948141164,0,-1,-2,-1,0,0,-1,-1
1528276948142049,0,-1,-3,0,-1,-1,-1,0
1528276948142049,-1,-1,0,-2,-1,0,-1,-1
1528276948155122,-2,-1,-2,-1,-1,0,-1,0
1528276948155122,-1,-1,0,0,-1,-1,-2,0
1528276948155964,1,0,-1,-1,-1,-2,-1,-1
1528276948155964,-3,-2,-2,-2,-1,-1,-1,0
1528276948178023,1,0,-1,-2,-1,-1,-1,-1
1528276948178023,0,-1,-1,-1,-2,-1,0,-1
1528276948178023,-1,-2,-2,-2,0,-1,0,0
1528276948178023,-1,-1,-1,-1,-1,-4,-1,0
1528276948201238,0,-2,-1,-3,-1,-2,-3,-1
1528276948201238,-1,-2,-2,-1,-2,-1,-1,1
1528276948201238,1,-1,0,0,0,0,-1,-2
1528276948201238,-1,-1,-2,-2,0,1,-1,0
1528276948215345,-2,-2,-1,-1,-1,2,-1,-1
1528276948215345,0,-1,-1,1,-1,-1,0,-1
1528276948216310,-2,0,-2,0,-1,-2,0,-1
1528276948216310,0,0,-1,-1,-3,0,0,-1
1528276948238303,-3,-1,-1,0,-2,-1,1,0
1528276948238303,-1,-1,-1,-1,-1,-1,-2,-2
1528276948239138,0,-1,-2,-2,-1,-1,0,-1
1528276948239138,-1,-1,0,0,-2,-1,-2,-1
1528276948268109,0,0,-1,-1,-1,-1,0,-1
1528276948268109,0,-2,-2,-2,0,-3,-1,-2
1528276948269057,-1,-1,-2,0,-2,-3,-1,-2
1528276948269057,0,-1,-1,-1,-2,0,-1,-2
1528276948275064,-2,0,-3,-1,-1,-2,0,-1
1528276948275064,-1,1,-1,-2,-1,0,-1,-1
1528276948276039,-1,-2,-1,-1,-1,-1,-2,0
1528276948276039,0,-2,0,-2,0,-2,-2,0
1528276948297981,0,-2,-1,0,-1,-2,0,-2
1528276948297981,-1,-1,0,-1,0,-1,0,-2
1528276948298979,-1,0,-1,-1,-2,-1,0,-1
1528276948298979,0,-1,-1,-1,0,-1,0,-1
1528276948321061,-1,-2,-2,1,-1,0,-1,0
1528276948321061,-1,-1,-3,-2,0,-2,-3,-1
1528276948321916,-1,0,-1,0,-2,-1,-1,-2
1528276948321916,-1,-1,-1,-1,-2,-1,-2,-1
1528276948334903,-1,-2,0,0,-2,-1,-3,0
1528276948334903,-3,-1,0,0,-2,0,0,0
1528276948335880,-1,-2,-2,0,1,-1,-3,0
1528276948335880,-2,-2,-2,-1,-1,-1,-1,-3
1528276948357824,1,0,-1,-2,-2,-2,1,0
1528276948357824,-6,-2,-3,0,-3,-2,-5,-7
1528276948358818,3,0,2,-1,0,0,6,7
1528276948358818,-2,0,-1,-2,1,0,0,-1
1528276948380759,-2,-1,-1,-2,0,-2,-1,-1
1528276948380759,-1,-1,1,-1,0,-1,0,-1
1528276948381763,-3,0,-1,-1,-2,-2,-4,-5
1528276948381763,-1,-1,-2,-1,-1,-3,-1,1
1528276948394722,0,-1,1,0,-1,-2,-1,-2
1528276948394722,-2,-1,-1,0,1,0,0,1
1528276948395719,-1,-2,-2,-1,-1,-1,-2,-2
1528276948395719,0,0,-1,-1,-1,0,-1,0
1528276948417661,-3,-3,-1,-1,-1,-3,-3,-2
1528276948417661,0,0,-1,-1,-2,0,-1,-1
1528276948418673,-2,-1,-1,0,-2,-1,-3,-1
1528276948418673,-1,-2,-2,-1,-3,-2,0,-2
1528276948440733,-2,-1,-1,-2,-1,-2,-1,-1
1528276948440733,2,-1,1,0,-2,-1,0,0
1528276948447722,-1,-1,-1,-1,0,-1,-2,-2
1528276948447722,-2,-1,-1,-1,-2,-2,-2,-1
1528276948456558,-1,-1,-1,-2,0,-2,-2,-1
1528276948456558,0,-3,-1,-1,0,1,0,1
1528276948457555,-3,-1,0,-2,-1,1,-1,-1
1528276948457555,0,-1,-1,0,-3,0,-1,0
1528276948477705,-2,-1,0,0,-1,1,1,1
1528276948477705,0,0,-1,-1,-1,-1,1,-1
1528276948478699,1,-1,-2,-2,-2,-2,0,-3
1528276948478699,0,-2,1,-3,-1,-1,0,1
1528276948500770,-3,0,-2,-2,-1,-2,-1,-3
1528276948500770,-1,-1,-2,0,-1,-2,-2,-1
1528276948501611,-1,-2,-1,-1,-2,-2,0,1
1528276948501611,-1,-1,0,0,0,-2,1,-3
1528276948514592,1,0,-2,0,-1,0,-2,-1
1528276948514592,0,0,-1,-3,0,-1,-1,0
1528276948523552,-2,-1,-2,-2,-1,0,0,-2
1528276948523552,1,0,-1,0,-2,0,-1,0
1528276948536518,0,-2,-1,0,-1,-1,-1,-1
1528276948536518,-2,-2,-1,-1,0,-2,0,0
1528276948545530,-1,-1,-1,-2,0,-1,-1,0
1528276948545530,-1,0,-1,0,0,0,-1,-1
1528276948560769,-1,-1,0,-2,-1,1,-2,-1
1528276948560769,1,0,0,-1,-1,0,-1,-1
1528276948562664,0,-1,-2,-1,-1,-1,-1,-2
1528276948562664,-1,-1,-2,-1,-1,-1,0,-1
1528276948574871,-1,-1,0,1,0,-1,-1,-2
1528276948574871,-3,-2,-1,1,-2,-2,-1,-1
1528276948589079,-1,-1,0,-2,-2,-2,-1,-2
1528276948589079,0,0,0,-2,0,0,0,-4
1528276948598044,-1,-1,-1,-2,-1,-1,-3,0
1528276948598044,0,0,-2,-2,-1,0,-2,0
1528276948604060,0,-1,-2,-2,0,-2,-3,-2
1528276948604060,0,-1,-1,-1,0,-2,-2,0
1528276948620221,0,-1,0,-2,-2,-2,1,0
1528276948620221,-1,-2,-1,-1,0,0,-1,-1
1528276948622228,1,-2,0,-1,-2,0,0,-1
1528276948622228,-1,-1,-1,0,-1,-1,-2,-1
1528276948634164,-1,-2,-2,-2,-2,-2,-1,-1
1528276948634164,-1,-2,-2,-1,-1,-2,-1,-2
1528276948643161,-1,-1,1,-1,-1,-1,-1,-2
1528276948643161,-1,-1,-1,0,-1,-2,-1,0
1528276948657252,0,-1,-2,0,1,-1,-1,-1
1528276948657252,1,-1,-1,-1,-3,0,-1,-2
1528276948664410,-2,-1,-3,-1,-2,-1,1,-1
1528276948664410,-1,-1,-1,-1,-1,0,-1,-2
1528276948680407,-2,-1,-1,-1,-1,1,-2,-1
1528276948680407,-2,-1,0,-2,0,-1,-1,-1
1528276948682413,-2,-2,-3,-1,0,-1,-2,-1
1528276948682413,-2,-1,-1,-1,-1,-2,-1,-1
1528276948694492,-3,-2,-2,0,-1,-1,0,-1
1528276948694492,-1,-2,-3,-1,-2,0,-1,-1
1528276948703347,0,-1,-2,-1,-2,-1,-1,0
1528276948703347,0,-2,-4,-2,-3,0,-1,-1
1528276948717358,0,0,-1,-2,-1,-1,1,-2
1528276948717358,0,-1,-1,-1,-1,0,0,-1
1528276948724452,-2,-2,0,1,0,-1,-2,-1
1528276948724452,-1,-1,-1,-2,-3,-3,-1,-1
1528276948741245,-1,-1,0,-1,-1,-1,-2,-2
1528276948741245,0,-1,-2,0,-2,0,-2,0
1528276948742253,-1,0,0,-1,-1,-2,-2,0
1528276948742253,0,-2,-3,-2,1,1,-1,-2
1528276948754351,-1,0,-1,-1,-2,-1,-1,0
1528276948754351,-2,-1,-1,-1,-1,-2,-2,-2
1528276948763191,1,-2,0,-2,0,0,0,-2
1528276948763191,-2,0,-1,-1,-1,0,-1,0
1528276948777305,-2,-2,0,-2,-1,-1,-2,-2
1528276948777305,0,0,-1,-2,-1,1,0,-1
1528276948786125,-1,1,1,-2,-2,-2,-1,-1
1528276948786125,-1,-2,-1,0,-1,-1,-1,-2
1528276948801290,0,-1,-1,1,-1,-1,0,0
1528276948801290,0,-1,-2,-1,-1,-2,-1,0
1528276948802098,-2,-1,0,-2,-1,-1,-1,-2
1528276948802098,1,0,-1,-2,0,0,0,1
1528276948814189,-1,-2,-1,-1,-1,-2,0,-1
1528276948814189,-1,0,-2,1,-1,-1,0,-1
1528276948823234,0,0,-2,1,-2,0,-1,0
1528276948823234,-2,0,0,-1,-2,-2,-1,0
1528276948837186,0,-1,-1,-1,-2,0,-1,0
1528276948837186,1,-1,0,-1,-1,0,1,0
1528276948844166,-1,-1,-2,0,-2,-2,0,-1
1528276948844166,-1,-1,1,-1,0,0,-2,-1
1528276948868102,0,0,-2,-2,0,-1,-1,0
1528276948868102,-1,-2,-1,0,-1,-2,-1,0
1528276948870097,-1,-3,-2,-2,-1,-1,-1,-1
1528276948870097,-1,-2,-1,-2,-1,-2,0,0
1528276948874088,-1,0,-1,-1,-1,-1,-1,-2
1528276948874088,-1,-1,-1,-1,-2,-2,-3,-2
1528276948883099,1,0,-1,-1,-1,-2,-1,0
1528276948883099,0,-1,-2,-1,-1,1,-1,-1
1528276948897069,-2,-1,-1,-3,-2,-1,-1,-1
1528276948897069,0,-2,0,-2,-1,-1,-1,-1
1528276948904140,-1,0,-1,-1,-2,0,-1,-2
1528276948904140,-1,-3,-1,0,-2,-2,-1,0
1528276948921001,0,-1,-3,-2,-1,0,-1,-2
1528276948921001,-1,-1,-1,-1,0,-3,-2,-3
1528276948921996,0,-1,0,0,1,-2,-1,-1
1528276948921996,0,0,-1,0,0,-1,0,-2
1528276948942939,0,0,0,0,-1,0,-2,-1
1528276948942939,0,-1,-2,0,-1,-1,0,-1
1528276948944934,-1,-1,-3,-3,-1,0,-1,-1
1528276948944934,0,-1,0,-1,-2,-1,0,-3
1528276948958040,-1,-2,0,0,0,-1,-2,-2
1528276948958040,-1,0,-2,-1,-2,-1,-1,-2
1528276948963883,-1,-2,-1,0,-1,-1,-2,0
1528276948963883,-1,0,0,-1,-1,-1,0,-1
1528276948980973,-1,-2,-2,-2,-1,-1,0,-1
1528276948980973,0,-3,0,-1,-3,0,0,-1
1528276948981992,-2,1,-2,-1,1,-1,-1,-1
1528276948981992,-1,0,-2,-2,-1,-1,-1,-1
1528276949002935,0,-1,-2,-2,0,-1,0,0
1528276949002935,-2,-1,0,0,-1,0,-1,1
1528276949004774,-1,-1,-1,1,-3,-1,-1,-1
1528276949004774,-1,-2,-2,0,0,-1,0,0
1528276949016882,0,-2,-1,-1,-1,-1,-2,-1
1528276949016882,-1,-1,-2,-2,0,-3,-1,0
1528276949025927,-1,-1,-2,-1,-2,-2,0,-2
1528276949025927,-2,-2,-1,0,-2,-1,0,-2
1528276949041027,-1,0,0,-1,-2,0,0,-1
1528276949041027,-1,-1,-1,1,-2,-1,-1,-2
1528276949042880,-2,-1,-1,-1,-3,0,-1,-2
1528276949042880,0,-1,-1,-1,-3,-1,-3,-1
1528276949062828,-2,-1,-2,0,0,-1,-1,-1
1528276949062828,-3,-1,-2,-1,-2,-1,0,-3
1528276949064823,-1,-2,-2,-2,0,-1,-1,-1
1528276949064823,-1,-3,-1,-1,-1,-1,-1,-1
1528276949077920,-1,-2,-2,-2,-2,-2,-1,-1
1528276949077920,0,0,-1,-1,-1,-1,-1,-1
1528276949084773,1,-2,-2,-1,-1,-3,-2,0
1528276949084773,-2,-3,-1,0,-1,-2,-1,-2
1528276949100727,-2,-1,1,-1,-1,-1,-1,-1
1528276949100727,-2,-2,0,-1,1,1,-2,0
1528276949102723,-2,-1,0,-2,-2,-1,-2,0
1528276949102723,0,0,0,-2,1,-1,0,-2
1528276949123739,-2,0,-2,0,-2,-1,-1,0
1528276949123739,-2,-2,-2,-2,-1,-3,-1,0
1528276949124662,1,-1,-1,2,-1,0,-1,-2
1528276949124662,0,-1,-1,-1,-1,0,-1,-1
1528276949137641,-1,-2,-3,-1,-2,-1,0,0
1528276949137641,0,-1,0,-1,-1,0,0,0
1528276949144749,-2,-2,-2,-2,-1,-1,-1,0
1528276949144749,-1,-1,0,-1,0,-1,-1,-1
1528276949160722,0,-1,-2,-2,-2,-2,-1,0
1528276949160722,0,1,-1,-1,-1,-1,-2,-4
1528276949162562,-2,-1,-1,-2,-2,0,-1,0
1528276949162562,-2,-1,-1,-1,-2,0,-1,-1
1528276949183661,-1,-2,-1,-1,0,-1,-3,-1
1528276949183661,-1,-1,-2,1,-3,0,-1,-1
1528276949184589,-2,-2,-1,-2,-2,0,0,-1
1528276949184589,0,-2,-2,-1,-2,-1,0,0
1528276949197624,-1,-2,0,0,-1,0,-2,-1
1528276949197624,-1,0,-1,-1,-1,0,-1,0
1528276949204452,-1,-2,0,0,-1,-1,1,-2
1528276949204452,-2,0,-2,0,-1,-2,0,-1
1528276949220736,-1,-1,0,-1,-1,-2,0,-3
1528276949220736,-1,-1,-2,-1,-1,-2,-2,-2
1528276949222595,0,-1,-2,-1,-1,-2,0,-1
1528276949222595,-2,-2,-1,0,0,-1,-1,0
1528276949243681,0,0,-2,0,-1,-1,-1,0
1528276949243681,-2,-2,-1,-2,-1,-1,-1,-1
1528276949244536,-2,-1,-1,-1,-2,-1,-2,-1
1528276949244536,0,-1,0,-1,0,-2,-2,0
1528276949257537,-2,-1,-1,-1,-1,-1,-1,0
1528276949257537,0,-1,-2,-2,-2,0,0,0
1528276949264627,-2,0,-1,-3,0,-1,0,-1
1528276949264627,-1,-2,-2,-2,-1,-1,-1,-1
1528276949280584,0,0,0,0,-3,-1,1,-4
1528276949280584,-1,-1,-1,-2,1,-1,0,0
1528276949282440,0,-1,-1,-1,1,-1,-1,-2
1528276949282440,-2,1,-1,0,-2,-1,-1,0
1528276949303379,-1,-1,-1,0,-1,-1,-1,-1
1528276949303379,-1,0,0,1,-1,-3,-1,-1
1528276949304378,0,-1,0,1,-1,-1,0,-1
1528276949304378,-1,-2,-2,-3,-2,-1,0,2
1528276949317377,-2,-2,-2,-1,0,-1,-2,1
1528276949317377,-2,0,0,-1,-1,-1,-1,0
1528276949332411,-1,-2,-1,-1,-1,-1,-2,1
1528276949332411,0,0,0,-2,-1,0,-1,-1
1528276949340416,-2,-2,-2,0,-1,0,-1,-2
1528276949340416,1,-2,0,-1,-1,0,-2,-2
1528276949342289,-2,-2,-1,0,-2,-1,0,-1
1528276949342289,-2,-1,-2,0,-1,-1,-2,-2
1528276949362432,-1,-1,0,-2,-2,0,-2,-1
1528276949362432,-3,0,-1,-2,-1,0,-1,0
1528276949371461,0,-1,-1,-1,-1,0,0,-1
1528276949371461,0,-1,1,-2,-1,-1,0,-1
1528276949377547,-2,0,-1,-2,-2,-1,0,-1
1528276949377547,1,-1,-2,-1,0,0,1,-1
1528276949384529,0,-1,-2,-1,-1,-2,-1,-1
1528276949384529,0,-2,-2,-2,-2,-2,-1,0
1528276949400332,-1,-2,-2,1,-1,-1,-2,0
1528276949400332,-1,-1,-1,0,-1,-1,1,-2
1528276949402324,-2,-2,-1,-2,-2,-3,-1,-1
1528276949402324,-1,-1,-2,-1,0,0,-2,-2
1528276949423281,0,-1,0,-1,-1,0,-1,1
1528276949423281,-1,0,1,-1,-2,-2,-3,1
1528276949425276,0,-1,0,-1,-1,-1,-1,-2
1528276949425276,-2,0,-1,-1,-3,-1,0,-1
1528276949437243,-1,-1,0,-3,-2,-2,1,-2
1528276949437243,0,-1,-2,-1,-1,-1,-1,-1
1528276949446216,0,0,-1,-2,0,0,-2,-1
1528276949446216,0,0,-1,0,1,-3,-3,-2
1528276949468322,1,-1,-2,-1,0,-2,0,-1
1528276949468322,0,-1,-2,-1,0,-2,-1,-2
1528276949470152,0,-2,-3,-1,-1,-2,0,0
1528276949470152,-2,0,-1,-1,0,1,-2,0
1528276949483274,0,-1,-2,0,-2,-1,-3,-1
1528276949483274,-1,-3,1,0,0,-1,-1,-1
1528276949485111,-1,2,-1,-1,-2,0,-1,-2
1528276949485111,-2,-1,0,0,-1,-1,-2,-2
1528276949497080,-2,-1,-1,-1,-1,-4,1,-1
1528276949497080,0,-1,-2,-2,-3,-1,-1,-1
