timestamp,emg1,emg2,emg3,emg4,emg5,emg6,emg7,emg8
1528276957473323,1,0,0,1,1,-6,-3,-1
1528276957473323,-1,-6,1,1,-1,0,0,-1
1528276957474320,-1,-2,-2,-1,-3,-1,-1,-1
1528276957474320,1,1,-1,-1,0,2,-1,-1
1528276957478311,-1,1,1,0,0,1,3,-1
1528276957478311,-1,1,-1,0,-2,-4,-1,1
1528276957479308,-1,0,0,1,-1,-1,-1,-2
1528276957479308,-1,-5,-4,0,4,-1,-3,-2
1528276957484295,-1,-2,-6,-7,-2,0,-4,-2
1528276957484295,1,-1,-1,4,2,-3,-3,-2
1528276957496262,-1,-3,-2,-11,-5,-12,0,-1
1528276957496262,-1,1,-2,-4,-1,14,4,1
1528276957499254,-1,-1,-3,-1,3,2,-1,-1
1528276957499254,-1,0,1,4,0,2,-2,-1
1528276957514221,1,-1,-5,-7,-5,-3,0,-1
1528276957514221,-1,0,6,6,0,-5,0,0
1528276957524194,-1,-3,-1,6,2,-1,-2,0
1528276957524194,1,1,0,-2,5,-2,-2,0
1528276957545131,-1,2,9,21,0,2,0,0
1528276957545131,-1,-2,-6,-39,-31,-6,-4,-3
1528276957546128,0,-1,-3,-23,-11,1,3,0
1528276957546128,-1,1,-1,1,3,-3,0,-1
1528276957559093,-1,0,-2,10,13,7,2,-2
1528276957559093,-1,-1,1,8,2,-4,-4,-4
1528276957600981,2,-1,-1,6,17,1,3,0
1528276957600981,0,0,-1,2,-6,12,8,1
1528276957601979,0,-1,0,0,-6,-1,-3,-3
1528276957601979,0,0,0,-7,-5,-2,-2,0
1528276957604970,-1,-3,-2,0,-5,-6,-3,-2
1528276957604970,-2,-2,0,0,7,-3,-3,-3
1528276957605968,-1,0,0,0,0,0,2,0
1528276957605968,0,0,0,1,2,-12,-10,-4
1528276957612951,-1,-1,1,3,3,0,-4,-2
1528276957612951,1,-1,-4,-11,-4,2,5,2
1528276957618933,-1,-2,-1,-8,-3,4,4,0
1528276957618933,1,0,0,2,9,10,7,0
1528276957633893,1,0,-1,-4,-6,-10,-8,-2
1528276957633893,-1,1,-2,-3,-17,-17,-9,-3
1528276957650889,0,0,-1,-1,0,6,3,0
1528276957650889,-3,-3,-2,0,8,-16,0,-4
1528276957651887,-2,0,0,-1,-14,8,4,-1
1528276957651887,1,2,2,3,14,14,-4,1
1528276957672791,2,-1,2,6,18,17,10,3
1528276957672791,-2,-1,-3,-3,-4,8,6,2
1528276957674784,-4,-3,-3,-6,-38,-13,3,-1
1528276957674784,-1,-1,2,10,-8,-27,-10,-1
1528276957686795,-1,-2,-4,5,-1,-18,-16,-4
1528276957686795,-3,-1,-2,-19,-13,-5,-5,-6
1528276957703706,-1,0,0,0,25,34,2,2
1528276957703706,-1,0,-3,-3,4,-1,4,2
1528276957710714,-3,-2,-1,4,-2,4,8,-2
1528276957710714,-1,0,-1,6,-9,-5,-8,-2
1528276957712683,-1,0,0,-2,-1,-4,-7,2
1528276957712683,1,16,3,5,7,15,7,-2
1528276957733644,-3,-21,-4,-7,0,-3,1,2
1528276957733644,-2,-3,-4,-6,-23,-16,-4,-3
1528276957734624,-3,-2,0,0,-4,-27,-7,-5
1528276957734624,0,0,-1,19,38,19,3,3
1528276957746630,-5,5,-4,-20,-10,-21,-19,-5
1528276957746630,1,-1,-1,6,-61,12,15,5
1528276957755568,0,-4,-3,-8,6,24,9,0
1528276957755568,-2,-6,1,-3,-4,1,-10,-6
1528276957770528,-1,2,1,10,25,34,30,4
1528276957770528,0,-3,-1,-3,29,0,-24,-6
1528276957776512,-1,6,0,9,-11,-24,13,3
1528276957776512,-3,-7,-5,-18,-18,23,16,0
1528276957793466,2,0,1,5,23,-9,-16,-1
1528276957793466,-4,-2,-3,11,8,-40,-12,-2
1528276957794464,-2,-5,-5,-10,-27,-30,-18,-8
1528276957794464,1,-2,0,-12,-7,1,-5,0
1528276957806433,-1,0,-1,17,17,4,-10,-4
1528276957806433,3,2,5,18,40,2,40,14
1528276957815409,5,1,-2,-30,-17,95,20,11
1528276957815409,0,-2,-2,-22,-57,-12,-23,-6
1528276957830407,-8,-2,-5,5,56,-33,-20,-14
1528276957830407,0,0,6,14,-24,-11,-28,-5
1528276957836390,0,3,4,16,61,33,50,8
1528276957836390,3,-2,-8,-56,-75,10,9,3
1528276957853359,-4,2,2,28,64,2,-16,-11
1528276957853359,-6,-6,-8,-26,-43,-24,-30,-5
1528276957855329,0,2,3,26,82,-30,-24,-3
1528276957855329,-2,-6,-6,-14,-60,5,23,11
1528276957867269,5,6,4,-12,23,5,16,6
1528276957867269,-6,-6,-10,-11,56,2,-4,-8
1528276957876245,-1,-2,-3,-31,-109,-21,-18,-7
1528276957876245,0,2,3,15,73,-21,-10,-3
1528276957890208,4,2,1,-1,-24,-4,4,4
1528276957890208,0,2,3,13,32,36,14,1
1528276957897221,-4,-8,-12,-23,-73,-39,-23,-12
1528276957897221,-5,0,5,30,48,-21,-13,-4
1528276957913174,-3,-1,-4,-27,-54,-5,-4,-13
1528276957913174,4,4,2,-1,-3,48,24,18
1528276957915168,5,6,5,43,96,7,11,10
1528276957915168,-22,-36,-16,-43,-119,-42,-24,-13
1528276957936085,-4,2,-3,-11,36,2,4,1
1528276957936085,-2,0,4,16,104,3,0,-6
1528276957937083,3,1,-3,-14,-94,-17,-7,-3
1528276957937083,7,8,4,26,78,17,15,6
1528276957950087,-3,-4,-3,1,-8,-10,-10,-6
1528276957950087,3,-6,-3,-10,7,3,-3,-7
1528276957957031,-3,6,1,-2,19,13,14,12
1528276957957031,-2,3,2,12,-3,-9,-8,-7
1528276957973041,3,0,0,-29,-95,3,5,5
1528276957973041,0,-20,-3,48,96,12,4,2
1528276957974982,-3,8,2,7,-28,-19,-15,-9
1528276957974982,7,4,-2,-2,41,2,-2,-12
1528276957995928,-8,8,-2,18,97,20,13,12
1528276957995928,17,-17,15,-28,-128,-20,0,-1
1528276957996925,-27,23,-29,2,89,-2,-14,12
1528276957996925,9,5,-1,-19,25,13,6,7
1528276958010886,-3,-12,-8,-18,-126,-32,-11,-1
1528276958010886,-5,-6,-5,4,24,2,-3,-11
1528276958018919,5,-24,8,9,-14,6,3,-7
1528276958018919,-4,21,4,41,85,5,1,2
1528276958032826,2,-9,-3,26,50,13,5,1
1528276958032826,-6,32,7,-37,-110,-23,-11,-7
1528276958034822,8,0,2,4,42,6,1,-1
1528276958034822,-6,-5,-3,5,-10,-11,-6,-1
1528276958055767,1,-16,3,8,31,14,8,2
1528276958055767,6,39,9,-11,14,3,2,5
1528276958057822,0,-46,5,-23,-92,-16,-8,-4
1528276958057822,4,19,12,22,102,12,2,7
1528276958069779,-3,-2,3,-14,-55,-5,-4,-10
1528276958069779,-1,1,11,13,-5,0,0,4
1528276958078705,-10,22,-4,-1,99,1,-1,-15
1528276958078705,-10,-58,-9,-22,-126,-3,1,-28
1528276958093683,26,-15,-14,-2,-59,-9,-4,57
1528276958093683,-23,-36,-12,-21,90,17,5,-16
1528276958094663,-4,15,21,-8,-74,-11,-10,-9
1528276958094663,-8,-15,-6,26,32,-1,-1,-10
1528276958116631,-4,5,7,28,53,2,-3,-16
1528276958116631,12,7,-17,4,-3,6,8,11
1528276958117602,6,-2,-27,-39,-38,-5,0,1
1528276958117602,-4,13,22,-10,9,-9,-7,1
1528276958129569,1,-5,14,11,-37,-2,0,-10
1528276958129569,0,4,3,-9,-31,-2,-2,7
1528276958138544,-8,-33,-14,5,56,-1,-5,-7
1528276958138544,1,12,-2,-3,-21,0,0,-1
1528276958160522,1,10,-3,-16,81,6,3,0
1528276958160522,4,6,-7,30,-77,-15,-5,13
1528276958162481,-4,4,21,11,31,12,5,-4
1528276958162481,-2,1,-38,-29,-75,-24,-14,-40
1528276958175446,7,4,7,-3,40,4,2,28
1528276958175446,-17,4,-11,-31,38,3,0,24
1528276958177440,-3,10,6,1,-12,-7,-8,-37
1528276958177440,1,-10,10,49,27,-1,-7,2
1528276958189660,-22,2,-21,-39,24,3,-3,-24
1528276958189660,3,9,18,13,-8,-6,-2,-2
1528276958198385,4,-4,23,-17,-54,-9,0,3
1528276958198385,4,1,-14,-9,20,8,6,23
1528276958213377,3,12,9,-4,-42,-1,0,-6
1528276958213377,-4,-14,0,21,93,11,-3,-2
1528276958215340,6,4,13,-1,-42,-6,-2,2
1528276958215340,1,-4,-15,-2,8,12,13,14
1528276958235289,-3,3,-3,4,-41,-4,-7,-2
1528276958235289,-2,-18,-16,7,-39,-15,-8,-12
1528276958237081,4,-8,-22,-4,42,6,-2,5
1528276958237081,-2,11,30,41,41,15,11,0
1528276958249299,-5,-15,-33,-93,-104,-22,-8,9
1528276958249299,-1,-6,-9,27,10,-3,0,-17
1528276958258220,3,1,-4,50,10,2,0,10
1528276958258220,1,2,-7,-15,43,0,-3,6
1528276958273218,1,1,-2,30,-19,-8,-9,-17
1528276958273218,0,9,-8,-29,19,3,-2,-11
1528276958275217,2,2,12,5,-43,-14,-3,7
1528276958275217,0,0,-10,-35,19,2,-6,-1
1528276958303089,-8,-6,-2,26,-20,7,20,6
1528276958303089,2,7,-9,-36,-71,-19,-5,-2
1528276958305083,-2,-8,9,31,97,10,3,8
1528276958305083,0,-1,-5,4,-26,-3,1,-6
1528276958310142,0,9,0,-3,39,1,-10,-1
1528276958310142,5,2,31,34,-13,18,0,4
1528276958318124,-6,-9,-25,-93,-61,-46,-4,0
1528276958318124,-2,0,34,66,47,13,11,6
1528276958333083,6,3,-5,-39,12,5,7,1
1528276958333083,-8,-8,-12,-8,-51,-7,-5,-7
1528276958335077,1,3,4,6,4,11,-3,-2
1528276958335077,-1,3,-24,-9,-7,-7,-9,0
1528276958356025,-1,-2,26,56,40,-12,-7,-2
1528276958356025,-2,-4,-20,-52,37,3,6,1
1528276958357029,5,4,-22,7,3,2,3,4
1528276958357029,-2,-2,-17,-43,-48,0,-4,2
1528276958369361,-7,-7,4,60,56,2,-1,-3
1528276958369361,-2,-7,9,-17,-25,4,-3,-6
1528276958377963,-1,-3,1,3,66,17,-1,-3
1528276958377963,3,13,10,-19,-54,-4,7,-8
1528276958392952,-3,-2,-1,-31,-12,0,2,2
1528276958392952,-8,-24,-8,27,66,-4,-7,-10
1528276958394921,2,2,-7,21,25,11,7,1
1528276958394921,-13,-6,6,13,1,5,1,5
1528276958416108,0,-7,-9,-35,-41,-14,-5,-3
1528276958416108,7,60,13,12,-19,-10,2,0
1528276958417170,-11,-17,2,3,-25,2,-2,-10
1528276958417170,6,0,18,16,62,1,-7,4
1528276958429843,0,-2,-37,-8,-57,4,11,8
1528276958429843,3,-1,-12,-35,16,8,2,2
1528276958439048,1,10,20,66,102,10,-7,-6
1528276958439048,-4,-5,-7,-50,-116,-39,-17,-2
1528276958453855,1,3,-4,-36,22,13,6,-4
1528276958453855,-5,-11,-6,31,34,0,-3,-15
1528276958454758,12,7,4,-39,-38,3,8,20
1528276958454758,-4,-9,-25,-11,34,-6,-5,-31
1528276958475703,4,8,-6,36,20,2,-9,27
1528276958475703,-10,-35,24,-38,-58,-17,-9,-25
1528276958477722,5,10,-10,10,-11,-9,-6,-6
1528276958477722,-13,-9,-4,-65,-9,14,12,10
1528276958489685,4,12,10,37,-52,-6,-2,-20
1528276958489685,-15,-51,-17,-25,38,-1,0,18
1528276958498640,12,37,15,21,4,5,5,7
1528276958498640,3,0,-21,5,9,-5,-17,-10
1528276958513619,1,45,1,29,39,11,4,-19
1528276958513619,-4,-24,46,-3,-34,-1,10,15
1528276958514599,5,-30,-4,-17,-11,-2,-4,14
1528276958514599,1,-1,10,15,-7,2,1,3
1528276958535542,1,-3,24,31,9,3,1,8
1528276958535542,10,32,-13,33,72,13,-4,2
1528276958537537,-10,-12,-25,-39,-103,-7,0,1
1528276958537537,1,-12,10,-2,70,8,4,12
1528276958549505,-5,-11,1,20,-12,-12,2,-8
1528276958549505,3,11,17,14,-11,1,5,4
1528276958558481,-6,-5,7,31,45,6,-4,-13
1528276958558481,4,-8,-46,-10,-20,-5,0,5
1528276958580423,-5,-21,-9,-13,14,-3,-4,0
1528276958580423,1,6,-7,17,-17,-4,-6,-7
1528276958582423,-6,1,18,-10,49,4,4,-7
1528276958582423,-1,7,4,0,-60,-5,-2,-4
1528276958594389,0,-13,1,-24,21,-6,-9,5
1528276958594389,3,8,3,13,28,3,0,4
1528276958603361,-6,-3,-8,-7,-73,-6,-5,-19
1528276958603361,0,2,8,-4,39,-3,0,6
1528276958617377,1,-6,-1,-25,-76,-9,-8,-9
1528276958617377,-2,-17,-8,9,52,14,8,-11
1528276958626352,-9,0,6,-46,-23,-8,-4,13
1528276958626352,1,1,5,25,12,-4,0,4
1528276958640319,1,7,15,15,22,8,8,2
1528276958640319,0,7,-6,-10,-6,-5,-4,-3
1528276958642266,0,-1,-4,3,38,7,4,2
1528276958642266,2,3,14,14,23,13,9,5
1528276958655267,-4,-2,-1,-9,-30,-13,-7,-17
1528276958655267,0,6,-5,18,-7,-5,0,0
1528276958671180,-3,-7,-12,-26,28,2,3,1
1528276958671180,3,5,1,3,-26,-13,-5,1
1528276958678160,-4,-1,4,-7,58,18,3,-9
1528276958678160,2,3,-13,-20,-88,-13,-2,6
1528276958680204,-2,-3,-7,0,28,-11,-11,-6
1528276958680204,-2,2,4,-10,-1,6,5,-3
1528276958701162,-4,-2,-2,-48,-1,1,-1,2
1528276958701162,1,2,-3,30,38,9,-7,0
1528276958702116,-6,-3,-3,4,5,2,2,-3
1528276958702116,-2,-3,2,-15,-73,-16,-8,-11
1528276958723096,-4,-4,-10,-29,-3,-12,-8,-9
1528276958723096,2,8,7,-27,-72,-3,8,13
1528276958725036,0,-1,3,2,1,-6,-8,-10
1528276958725036,-2,1,29,49,54,11,7,4
1528276958738055,-10,-10,-14,-15,62,-17,-20,-11
1528276958738055,2,6,11,30,-42,-8,-5,-3
1528276958739996,-3,-3,-10,19,8,22,27,7
1528276958739996,-3,0,-1,-16,28,5,-2,-10
1528276958759997,4,0,-15,-6,-13,6,6,3
1528276958759997,-5,0,1,19,87,2,3,-3
1528276958767922,-1,1,6,15,-85,1,-10,-15
1528276958767922,-1,-3,0,-22,-15,-2,-2,13
1528276958773906,3,-3,4,-17,-17,-3,-6,-7
1528276958773906,2,0,-10,19,25,2,8,3
1528276958782917,1,0,-8,6,-35,-4,-9,-7
1528276958782917,1,3,9,10,27,19,9,1
1528276958798937,-3,0,29,1,-55,-20,-12,-3
1528276958798937,1,-5,-47,-53,12,0,-6,1
1528276958799835,5,5,-6,1,73,8,6,6
1528276958799835,-3,-17,-9,19,-77,-9,-5,-3
1528276958820783,-1,2,2,24,25,5,6,9
1528276958820783,-5,-2,10,-31,-21,1,2,-11
1528276958822778,2,-1,0,10,40,-6,-17,-2
1528276958822778,-2,6,-1,11,3,-3,1,-4
1528276958834742,3,4,0,-18,-9,3,10,1
1528276958834742,2,-9,-40,-13,11,-4,-10,-2
1528276958843939,-7,0,-3,12,-8,2,6,7
1528276958843939,1,-2,-14,5,13,-9,-9,-6
1528276958858823,0,-5,5,27,6,2,3,5
1528276958858823,-2,13,13,-27,6,7,6,-2
1528276958859676,-10,-24,-4,-26,-28,-13,-4,9
1528276958859676,-1,1,11,-7,8,-9,-9,-14
1528276958880978,0,5,9,27,33,10,6,14
1528276958880978,1,23,-31,-9,-23,-5,-5,-5
1528276958882634,-1,-6,-3,6,13,9,7,-6
1528276958882634,-5,-5,-8,-27,-19,-7,-3,4
1528276958903837,-3,-5,-3,6,1,0,-3,-14
1528276958903837,3,9,22,2,-7,-4,-3,1
1528276958904807,0,5,0,1,-11,-11,-6,-5
1528276958904807,4,2,-14,-3,0,6,12,14
1528276958919053,4,-10,-15,-15,-13,6,1,-3
1528276958919053,-11,-6,41,34,20,-1,-6,3
1528276958919832,17,7,-9,-19,-25,-8,1,-24
1528276958919832,-8,-14,-3,0,13,-4,-9,17
1528276958948949,0,-5,-7,5,30,5,0,-1
1528276958948949,-4,-15,-6,-11,-39,0,6,8
1528276958949758,-6,-4,9,16,47,-2,-3,-4
1528276958949758,8,21,20,9,-31,-9,-12,9
1528276958954754,-5,-6,-8,-40,-40,-4,0,-9
1528276958954754,3,-10,-4,2,-1,-2,0,30
1528276958963707,-5,0,2,-8,18,6,-1,-23
1528276958963707,0,-23,-30,16,13,3,0,-8
1528276958977928,-3,-2,-5,10,-11,-6,-2,5
1528276958977928,8,-7,6,21,2,-6,-11,-19
1528276958979922,-2,8,6,-15,-15,-1,1,17
1528276958979922,0,-1,10,3,-3,0,6,12
1528276959001128,1,0,10,9,5,-5,-6,-10
1528276959001128,-3,1,0,-3,5,0,-1,-14
1528276959001864,-3,5,15,31,33,4,0,17
1528276959001864,-3,11,-2,-20,-31,-3,-3,-17
1528276959015068,-1,-8,-4,1,1,1,2,6
1528276959015068,-3,8,-3,-1,13,4,4,4
1528276959023804,-8,-29,-14,8,-36,-2,1,2
1528276959023804,3,5,-4,-1,14,-6,-4,-10
1528276959038770,-3,-1,8,2,20,8,0,-2
1528276959038770,-4,-8,-3,3,-31,-6,-3,-11
1528276959039819,4,2,-8,-9,-17,-4,0,12
1528276959039819,-2,0,3,14,-10,-1,1,2
1528276959061028,1,6,-4,-23,1,3,-2,-4
1528276959061028,-1,-9,-14,-7,23,-5,-5,1
1528276959062824,-3,6,7,10,-3,-1,-5,-6
1528276959062824,-3,-1,3,-1,17,-4,-3,-13
1528276959090930,-1,2,4,20,-11,-1,5,10
1528276959090930,-6,-10,-3,-11,-13,-1,-2,-5
1528276959092681,3,3,-4,-14,-22,-14,-12,-24
1528276959092681,-2,-5,-1,11,53,1,-4,11
1528276959096778,1,1,-8,3,4,12,4,-25
1528276959096778,-1,-2,2,-3,-12,1,7,21
1528276959105780,0,2,-10,0,-13,11,3,2
1528276959105780,-3,-7,11,25,-8,-16,-5,-6
1528276959121435,-3,-2,-19,-41,-27,-31,-12,-5
1528276959121435,0,-1,5,5,-2,9,-1,-5
1528276959122150,3,6,4,-4,20,18,8,6
1528276959122150,3,4,-9,-16,15,7,2,-1
1528276959134442,-3,0,-16,15,37,12,8,14
1528276959134442,4,3,24,23,-6,-14,-3,-9
1528276959143389,-1,-4,-26,36,-2,-3,-3,8
1528276959143389,2,8,15,4,-33,9,3,-6
1528276959158359,-2,-1,-4,-15,21,-10,-2,-4
1528276959158359,-3,-4,4,-7,32,1,-8,3
1528276959160041,-1,1,9,-8,-14,-30,-7,-2
1528276959160041,-1,-3,-5,0,12,40,20,2
1528276959181220,3,5,10,19,18,-3,-8,3
1528276959181220,2,2,-12,-5,14,-3,14,-2
1528276959182272,-3,-3,-11,-14,-43,60,17,6
1528276959182272,-6,-7,-10,-23,8,-15,-11,-11
1528276959194494,0,1,8,17,-10,-13,-6,-2
1528276959194494,-1,-3,-5,-8,-50,-5,-11,-5
1528276959210258,-1,-1,-1,-14,3,-29,-10,0
1528276959210258,-2,-3,-11,7,16,-8,-4,-2
1528276959218211,-1,0,10,4,30,25,6,1
1528276959218211,2,7,18,-12,-39,-20,-6,2
1528276959224164,2,-29,-2,-18,21,5,7,-2
1528276959224164,-16,-5,-37,-3,-19,3,-1,-9
1528276959241386,0,13,4,-4,8,-14,-7,9
1528276959241386,-1,5,3,-1,4,4,-3,-1
1528276959243138,1,-13,-4,1,32,0,-5,6
1528276959243138,1,0,9,-20,-60,-23,-4,-7
1528276959255080,-3,-9,-3,10,-2,5,4,-2
1528276959255080,1,6,-11,-2,22,12,7,0
1528276959271040,-4,9,3,-6,-13,-8,-10,-6
1528276959271040,1,-4,2,0,18,-7,-10,2
1528276959277272,2,5,-6,14,-12,7,6,3
1528276959277272,-5,-13,88,9,33,8,3,-2
1528276959284003,1,5,62,3,-37,-12,-4,-2
1528276959284003,0,2,-25,-61,-66,-4,0,6
1528276959300958,2,-6,-42,38,27,-4,-5,-7
1528276959300958,5,39,-54,-13,-24,-7,-5,-4
1528276959301960,-13,-72,-48,-19,-4,-9,-3,3
1528276959301960,1,7,-4,29,57,11,7,-14
1528276959323996,-3,-8,-23,-10,-55,-8,-6,7
1528276959323996,0,-12,-34,-16,-20,0,1,-5
1528276959324895,3,26,8,11,21,-4,-3,0
1528276959324895,7,-3,2,16,23,9,12,19
1528276959336865,-7,-35,15,-26,-26,-9,-14,-11
1528276959336865,-12,40,13,18,-15,-3,-2,-8
1528276959345853,3,-2,3,-1,-70,-7,-4,0
1528276959345853,-4,1,19,3,42,-1,0,-5
1528276959360851,1,11,9,-16,-12,-3,0,0
1528276959360851,-2,-16,-7,5,2,-3,1,10
1528276959360851,-2,14,-10,0,37,3,0,-5
1528276959360851,5,3,9,10,6,-3,-1,0
1528276959383000,-6,-3,15,0,-61,-7,-3,2
1528276959383000,-1,-16,-19,-15,4,0,-6,1
1528276959383737,-2,10,-13,26,35,2,0,-20
1528276959383737,-2,-5,7,-23,3,0,-3,8
1528276959397023,1,10,-5,-7,-26,-5,-6,-9
1528276959397023,-1,-16,-8,8,10,-2,1,-10
1528276959405265,6,0,1,12,34,10,11,11
1528276959405265,4,13,6,-2,-14,-15,-12,-3
1528276959420215,-15,-9,7,-17,18,5,5,2
1528276959420215,0,-20,5,-4,2,-5,-4,-12
1528276959420960,-3,20,10,1,26,1,0,10
1528276959420960,-1,-8,-3,12,-12,-1,-2,-6
1528276959443241,5,7,17,3,-6,3,1,18
1528276959443241,2,-5,2,2,33,4,0,-4
1528276959443241,-1,8,5,-16,-11,-9,-5,6
1528276959443241,-3,-6,-7,-7,-26,-1,2,-11
1528276959457445,4,4,1,12,40,5,2,1
1528276959457445,-3,-1,-9,1,-37,-4,-4,-3
1528276959465679,-4,5,-11,-14,-18,-2,2,-7
1528276959465679,3,-9,-10,-1,-15,-5,-4,5
1528276959480663,2,11,7,7,1,3,0,-7
1528276959480663,0,-17,-10,11,45,6,0,5
1528276959480663,0,2,-14,-23,-40,-1,3,4
1528276959480663,-5,4,4,18,16,0,-6,-6
1528276959502705,-1,-1,-5,11,28,1,-2,2
1528276959502705,1,1,-5,11,-28,-2,-1,0
1528276959503326,-3,-5,15,-23,45,-2,-2,-2
1528276959503326,-4,-12,7,-13,-54,-5,-1,0
1528276959526735,1,0,2,6,23,-7,-2,-9
1528276959526735,1,1,-4,-4,28,26,0,6
1528276959526735,-4,-4,-13,1,-20,-6,-1,-3
1528276959526735,0,10,14,-3,-6,8,-1,-14
1528276959547713,-1,-11,-18,-18,-6,-26,-5,12
1528276959547713,-1,-3,7,1,-2,4,-1,-4
1528276959549746,-2,-5,-11,4,33,1,-8,-5
1528276959549746,1,7,-5,15,79,16,9,4
1528276959563066,-2,10,25,-12,-98,-7,-3,-4
1528276959563066,3,-1,-3,-24,1,-12,-11,-3
1528276959563668,-9,-3,12,12,-15,2,-1,-3
1528276959563668,11,20,-13,-3,41,6,5,7
1528276959577630,-14,-1,-11,24,84,6,0,-14
1528276959577630,-4,-3,-20,-24,-110,-31,-18,-3
1528276959584614,-1,-5,6,14,22,-2,-3,2
1528276959584614,4,-6,-48,-14,-14,1,10,2
1528276959600056,4,21,8,33,83,31,16,5
1528276959600056,-1,-1,-7,-31,-92,-35,-10,-7
1528276959600720,-1,-2,-14,8,13,11,-2,-4
1528276959600720,-7,-1,9,5,-44,0,0,6
1528276959623000,8,-1,-10,-31,-27,-3,0,-1
1528276959623000,-5,-8,-12,39,100,11,11,1
1528276959623660,6,10,19,6,8,-11,-6,11
1528276959623660,-9,-16,8,-16,-63,-21,-16,-8
1528276959645600,1,-7,-1,-5,15,5,0,-1
1528276959645600,-4,-4,3,17,3,7,11,7
1528276959646598,-2,-4,-9,-21,8,11,4,-3
1528276959646598,-2,-10,1,1,-30,-14,-5,1
1528276959660715,0,-2,-1,9,-28,-3,-3,-6
1528276959660715,2,7,7,-6,46,-1,-2,3
1528276959660715,4,-3,-22,19,22,0,-2,-3
1528276959660715,-6,6,13,-14,-44,-10,-8,-1
1528276959683009,5,-14,-15,-16,-22,-3,-2,-7
1528276959683009,0,1,13,2,23,9,6,17
1528276959683604,-15,2,6,6,5,5,12,8
1528276959683604,-7,3,7,29,63,-7,-16,-25
1528276959697828,5,2,2,-9,-28,-1,-2,2
1528276959697828,4,-7,3,16,41,9,3,-1
1528276959698563,5,2,3,-53,-100,-12,-4,0
1528276959698563,-3,-6,-6,-18,-27,-1,5,-3
1528276959720493,-3,-7,2,21,31,7,0,9
1528276959720493,1,2,-8,-5,-16,-5,-4,-8
1528276959721075,0,0,13,-10,-6,-7,-5,-4
1528276959721075,2,3,-1,13,63,8,5,2
1528276959743347,0,-2,15,-19,-69,-4,-2,-6
1528276959743347,-6,-6,-4,13,35,1,-2,-5
1528276959743347,2,0,-2,7,-39,-10,-4,-5
1528276959743347,1,-6,-14,8,9,6,2,12
1528276959758201,0,0,0,-5,16,1,0,1
1528276959758201,0,7,8,14,-1,6,2,-2
1528276959758201,-3,-3,-16,-31,-13,-8,-4,-5
1528276959758201,-2,-6,8,-2,-23,-2,0,2
1528276959787897,-1,-7,-4,8,12,-3,0,3
1528276959787897,9,7,11,-10,13,9,2,-2
1528276959788893,-18,-5,2,6,-67,-19,-8,-9
1528276959788893,-1,0,7,-5,16,7,4,1
1528276959802892,3,-1,-2,-4,-6,-5,-3,-1
1528276959802892,-4,8,-3,-15,9,6,6,-1
1528276959802892,9,-10,-9,13,54,7,1,-1
1528276959802892,-2,-3,-15,-4,-50,-9,-2,2
1528276959832795,-8,-1,-25,5,21,-2,-5,-5
1528276959832795,-2,-10,-24,-1,-21,7,1,-10
1528276959833774,5,5,3,19,26,4,2,15
1528276959833774,-4,0,-4,-26,-29,-6,-4,-7
1528276959839757,0,-1,4,7,34,-1,-3,0
1528276959839757,-4,-4,-3,-2,-37,-7,-2,-1
1528276959840755,1,18,11,25,26,3,0,-2
1528276959840755,-4,-28,10,-17,17,4,1,-3
1528276959862697,2,0,4,-19,-13,-2,-2,-3
1528276959862697,-10,-14,4,4,38,-4,-3,-1
1528276959863730,2,-6,3,-1,-13,1,2,-2
1528276959863730,0,15,11,17,44,1,-3,1
1528276959877656,0,0,5,0,15,2,0,-2
1528276959877656,4,-7,-7,-14,-46,-10,-2,2
1528276959878671,-11,2,4,15,37,5,-2,-4
1528276959878671,12,4,4,-9,-9,-4,-4,-1
1528276959900680,-30,-3,4,12,18,2,-1,-2
1528276959900680,6,5,-8,-13,-8,-2,-2,1
1528276959901626,2,-2,2,6,16,5,1,-2
1528276959901626,3,-1,-6,-23,-42,-9,-1,2
1528276959923797,2,-1,-1,-9,-20,0,1,-4
1528276959923797,0,1,6,-3,11,-1,1,4
1528276959925638,2,12,2,-11,-31,-5,-1,2
1528276959925638,-7,-44,-6,16,25,5,2,-2
1528276959937753,-3,6,1,-1,-13,-5,-6,-5
1528276959937753,-3,2,2,0,8,-1,-1,-3
1528276959938493,0,-16,-7,1,28,3,0,0
1528276959938493,1,14,5,15,-37,-3,0,0
1528276959968680,3,1,-5,-1,29,3,2,2
1528276959968680,-3,14,1,-8,-72,-11,-2,-1
1528276959969414,-6,-22,-6,-4,3,1,-2,-4
1528276959969414,2,2,3,4,25,1,-1,1
1528276959982622,-3,-11,-3,-2,-19,-2,-1,-1
1528276959982622,7,12,9,5,34,4,0,2
1528276959983373,-6,3,-3,-13,-17,-5,-1,-4
1528276959983373,-3,5,1,6,9,2,1,0
1528276959997645,0,-1,5,-3,-9,-3,-3,0
1528276959997645,1,0,-1,-2,40,8,5,1
1528276960012916,4,2,2,-5,-30,-11,-2,-2
1528276960012916,-4,-4,-14,5,9,0,-3,0
1528276960020850,4,12,11,7,1,0,0,1
1528276960020850,-5,-3,11,-4,-25,-4,-2,-1
1528276960020850,1,-4,-8,8,32,8,2,0
1528276960020850,0,8,-5,-9,2,-1,0,-1
1528276960042926,4,1,3,10,-9,-1,-1,0
1528276960042926,-5,-10,-6,-15,-3,-4,-2,-2
1528276960042926,0,-1,-3,8,-1,-3,-3,-1
1528276960042926,1,10,16,5,11,-2,-5,-3
1528276960057853,2,-1,0,11,-3,2,0,0
1528276960057853,-5,-8,-3,-9,-12,-7,-4,-3
1528276960065059,1,14,14,-8,-1,3,-2,-2
1528276960065059,-7,-6,-7,10,-10,-9,-8,-7
1528276960080034,0,-5,-12,-27,-21,-3,4,2
1528276960080034,-1,-3,-10,-3,18,3,2,0
1528276960080792,0,-4,-12,-9,-9,-5,-2,-2
1528276960080792,-3,9,24,13,14,4,-2,-4
1528276960102972,-5,-8,-23,-5,-4,-3,1,1
1528276960102972,1,-1,-1,1,-5,3,1,1
1528276960103972,3,-4,-4,0,13,0,0,0
1528276960103972,-3,-2,-5,-12,21,-4,-5,-3
1528276960117144,0,1,-2,-3,-40,-1,0,2
1528276960117144,-2,3,9,9,13,2,-2,-1
1528276960125123,-1,1,-2,-2,10,1,0,-3
1528276960125123,1,1,-11,-15,-35,-4,1,3
1528276960140082,-4,0,3,-1,7,-4,-3,-3
1528276960140082,-2,-6,-8,-2,2,-6,-6,-3
1528276960140837,1,2,2,3,9,4,1,1
1528276960140837,-1,1,-3,6,-6,1,1,0
1528276960163019,0,0,1,-13,-4,-2,-3,-2
1528276960163019,-3,-1,-2,2,-16,-4,-2,0
1528276960164058,0,-1,1,0,-4,-2,-1,-2
1528276960164058,0,0,-4,-9,4,5,3,2
1528276960176802,-2,-3,0,5,2,-1,-1,-3
1528276960176802,-3,2,0,12,25,0,-2,0
1528276960186135,-1,0,2,-17,-27,-3,-2,-2
1528276960186135,-1,1,-9,1,6,-2,-2,0
1528276960200085,-1,3,7,5,-8,-4,-6,-5
1528276960200085,-1,-1,-3,0,4,6,5,3
1528276960200739,3,-10,-14,-6,-7,-2,2,1
1528276960200739,-4,16,3,5,6,3,2,0
1528276960223023,-2,-10,-4,-8,11,-2,-3,-2
1528276960223023,2,2,-1,7,-23,-8,-7,-4
1528276960223677,3,-6,1,5,14,2,0,0
1528276960223677,2,1,0,-3,-16,-1,0,2
1528276960236881,-1,-5,3,1,8,1,-1,-3
1528276960236881,1,11,6,8,19,5,0,1
1528276960244621,-2,-5,-9,-18,-29,-6,-1,1
1528276960244621,0,0,1,-5,10,-1,0,-3
1528276960259581,-2,-7,-11,1,-5,-4,-2,-2
1528276960259581,-1,-12,-3,7,3,-3,-5,-4
1528276960260590,-3,0,-11,2,9,0,-1,-1
1528276960260590,-3,-6,-4,-2,4,-1,-2,0
1528276960282743,3,5,1,-4,-10,-2,0,0
1528276960282743,-1,3,3,2,0,2,0,-4
1528276960283517,4,7,4,1,-8,-1,-2,-2
1528276960283517,-13,-11,-4,0,3,0,-1,-1
1528276960297547,0,7,6,6,-3,-1,1,0
1528276960297547,-2,-8,-5,-8,-6,-4,0,-1
1528276960305458,1,1,5,5,3,1,0,-2
1528276960305458,9,-4,-3,-2,-2,1,0,0
1528276960320776,6,17,4,5,8,1,-1,0
1528276960320776,-9,-4,-7,-14,-6,1,3,0
1528276960320776,-4,-7,2,3,-6,-3,-4,0
1528276960320776,2,-12,-2,4,7,1,2,1
1528276960342360,10,30,4,4,1,-1,-1,2
1528276960342360,1,-5,-7,-8,-8,-2,-1,0
1528276960343358,5,-1,-1,-2,-4,0,0,4
1528276960343358,1,-4,-5,0,7,-3,-2,-20
1528276960366440,-2,-10,4,-22,-1,1,-1,-39
1528276960366440,-27,30,6,-46,-8,33,-1,-68
1528276960366440,-72,-17,6,-14,0,0,2,-122
1528276960366440,-84,33,1,-10,-4,-20,13,-77
1528276960390387,-82,-26,-9,2,-12,-33,-20,16
1528276960390387,-60,-54,-21,17,0,-20,-5,35
1528276960390387,34,1,-5,11,1,-1,-1,95
1528276960390387,56,-5,3,15,2,12,2,79
1528276960403229,83,31,11,16,1,7,11,66
1528276960403229,83,10,13,-31,-1,5,4,69
1528276960403229,58,-5,-4,21,2,7,-1,32
1528276960403229,28,3,3,68,-3,2,1,22
1528276960425377,33,1,0,90,4,9,0,9
1528276960425377,11,-1,4,68,2,-3,0,0
1528276960433386,0,8,-2,-3,-3,-6,-2,-8
1528276960433386,7,25,3,-43,-2,-2,-8,-6
1528276960440368,-13,-15,-6,-55,-1,4,1,-16
1528276960440368,-13,11,0,-41,0,-6,-1,-24
1528276960441624,-11,3,-4,-42,-6,-8,-3,-9
1528276960441624,-10,-14,-6,-38,-3,0,-5,-2
1528276960462305,-21,0,-7,-24,-2,1,-1,-20
1528276960462305,-1,-4,-3,10,-4,-7,-1,-6
1528276960470287,-15,-6,-2,11,-5,0,-3,0
1528276960470287,-2,4,-1,-5,-2,2,-6,-2
1528276960485611,-9,-22,-5,-14,1,-1,0,-9
1528276960485611,-4,18,-1,-14,-3,-6,-2,-5
1528276960487312,0,1,1,4,2,0,-2,-1
1528276960487312,-8,-11,-3,-4,0,1,-2,-7
1528276960500517,11,5,-1,-9,-4,0,2,-1
1528276960500517,-8,8,-1,1,-5,-4,0,10
1528276960501619,6,12,-2,5,4,-2,-2,9
1528276960501619,-6,-16,-4,4,4,-2,-1,-5
1528276960522800,-2,10,-3,0,-1,1,0,0
1528276960522800,0,-9,2,11,1,1,-1,-9
1528276960523801,0,-10,-5,-1,-5,-3,-1,-5
1528276960523801,3,9,4,4,1,-1,-1,7
1528276960545594,-4,-23,-5,-2,-5,-2,-1,-6
1528276960545594,1,-5,-9,-6,-7,-3,-1,-3
1528276960547284,-7,23,6,2,-1,1,1,-1
1528276960547284,1,-8,-4,3,-6,0,-1,3
1528276960560449,-9,-15,-4,4,4,0,0,-4
1528276960560449,2,17,4,6,-3,-1,-2,-3
1528276960567246,3,-2,0,0,-3,-2,0,2
1528276960567246,-6,-25,6,6,0,1,-2,-1
1528276960582544,-3,-8,-6,0,1,1,1,-4
1528276960582544,-5,10,-2,-3,-1,-3,1,1
1528276960583190,-5,-40,-1,-4,-5,-1,0,-4
1528276960583190,4,13,2,-2,-4,0,0,1
1528276960606132,-8,11,2,1,8,-3,-5,-3
1528276960606132,6,-26,-2,2,3,1,-1,0
1528276960606132,3,17,5,2,1,0,0,0
1528276960606132,-1,5,-4,-8,-5,-3,-1,-2
1528276960620094,3,-7,-8,-17,-9,-2,-1,-1
1528276960620094,0,2,-3,1,1,0,-2,-3
1528276960621089,-3,-1,-6,-1,6,-2,-3,-1
1528276960621089,2,1,-4,-5,1,-1,-3,0
1528276960643230,-4,-7,0,-4,-1,-1,0,-1
1528276960643230,2,22,5,2,-2,1,-2,-2
1528276960643230,-7,8,5,2,-2,1,0,-1
1528276960643230,-2,-14,-8,-5,-2,-4,-4,-1
1528276960665973,-4,8,2,2,2,-1,-1,-2
1528276960665973,0,-12,-2,-1,-3,-2,1,0
1528276960666972,0,-7,-5,-2,-5,-3,0,-1
1528276960666972,0,18,-3,-1,4,-1,-1,-2
1528276960679932,2,9,1,-2,1,4,-2,-1
1528276960679932,1,-32,3,5,-2,-1,1,1
1528276960680929,-11,25,-2,-5,-3,-1,0,-3
1528276960680929,9,-3,-3,1,0,1,-1,0
1528276960703099,-2,-1,1,-2,-2,0,0,1
1528276960703099,1,0,-2,0,2,-2,-2,-2
1528276960703895,-3,0,3,2,0,-2,-1,-2
1528276960703895,20,-4,2,-2,-3,0,0,-5
1528276960726108,-18,-5,1,1,-2,-2,0,4
1528276960726108,1,-1,-5,-3,-1,-2,0,1
1528276960727181,-4,-8,-3,-3,-1,-1,0,0
1528276960727181,3,2,1,-7,-2,-1,1,1
1528276960740046,2,1,3,-6,-1,0,-1,-5
1528276960740046,-2,5,2,-9,2,-1,0,-3
1528276960740816,3,22,4,-15,-2,0,1,3
1528276960740816,-8,-12,-1,-12,-1,2,0,-2
1528276960763760,1,4,-1,0,-4,-3,-1,-1
1528276960763760,-6,-15,-4,3,-2,0,-3,-2
1528276960763760,3,26,6,18,2,-1,-3,-3
1528276960763760,-2,-2,1,17,0,-1,0,-1
1528276960785696,-3,-8,-6,7,-2,-2,-1,-2
1528276960785696,11,19,-2,4,-5,-4,0,1
1528276960786709,-2,14,0,7,-2,0,0,-2
1528276960786709,-2,-2,1,1,-6,-2,-2,0
1528276960800179,-10,-7,-4,3,1,-2,-1,-1
1528276960800179,0,26,-2,2,1,0,-1,-4
1528276960800913,-4,-61,-6,0,-3,0,-2,-2
1528276960800913,-6,-2,0,3,2,-1,0,-1
1528276960823966,4,4,-2,-1,-5,-2,0,0
1528276960823966,-1,-18,-4,-2,-2,-2,-2,1
1528276960823966,-7,-14,-6,-2,-1,-1,-1,0
1528276960823966,4,16,0,0,0,0,-3,0
1528276960846194,4,-5,-2,-3,-1,-1,-1,-3
1528276960846194,-1,4,2,0,0,-1,0,-1
1528276960847270,11,-1,-5,-8,-2,-1,0,0
1528276960847270,-7,-4,1,-2,0,-2,-2,-1
1528276960860404,0,4,0,-1,0,0,-1,0
1528276960860404,-3,-9,1,-2,-1,0,-3,-1
1528276960861156,-3,5,-1,0,-4,1,-1,-1
1528276960861156,-6,-10,-6,-9,-3,-2,1,-2
1528276960891323,-3,-4,2,-1,0,0,-1,0
1528276960891323,11,8,1,-1,2,2,0,0
1528276960892295,-4,-8,-6,-7,-4,-3,-2,-3
1528276960892295,-5,-15,0,0,1,-1,0,-1
1528276960906214,5,16,0,-1,-3,-2,0,0
1528276960906214,7,-10,-4,-2,-2,-3,0,-1
1528276960907290,-3,13,5,0,1,-2,-2,-1
1528276960907290,-2,-3,-4,1,-1,-3,-3,-2
1528276960920440,-1,-4,-1,2,0,1,0,0
1528276960920440,-7,-11,-2,-4,-5,0,0,-2
1528276960921417,5,-1,1,2,0,0,-1,0
1528276960921417,-2,4,2,2,2,1,-1,-2
1528276960943121,3,-6,-3,-2,-6,-2,-1,-1
1528276960943121,-8,0,-2,-2,-1,-1,-2,-2
1528276960944131,0,-6,-2,-1,0,-1,-1,-2
1528276960944131,-3,3,1,-1,-1,0,0,0
1528276960966377,0,-1,-4,-1,2,-2,-2,-1
1528276960966377,-3,-7,-5,-5,-1,0,-1,-1
1528276960966377,-2,-7,0,1,0,0,0,0
1528276960966377,2,8,12,6,2,2,-1,1
1528276960980225,-1,-5,1,2,1,-2,-2,-1
1528276960980225,-1,0,1,1,1,-2,1,0
1528276960988339,0,-3,-7,-1,-1,-3,-2,-1
1528276960988339,-1,-1,-2,0,1,0,0,0
1528276961002721,1,-1,-6,-3,-3,0,-1,-1
1528276961002721,10,-2,1,-1,0,-2,-1,-1
1528276961010728,-31,1,-1,-2,-2,-4,-1,-3
1528276961010728,-1,2,1,-3,-3,-2,-1,-1
1528276961025647,0,4,3,3,1,-2,-1,-2
1528276961025647,4,-17,-4,-1,-2,0,-2,0
1528276961027343,4,-4,2,-1,-1,-1,-2,-3
1528276961027343,-3,-7,-5,-3,-4,-3,-2,0
1528276961039720,-4,-8,-4,-9,-2,-1,1,0
1528276961039720,-1,9,-2,-1,-1,1,-1,0
1528276961048277,7,-3,3,1,0,-1,-2,1
1528276961048277,-2,-2,1,2,-3,0,-2,-3
1528276961062239,5,1,-3,0,0,0,0,0
1528276961062239,-7,-2,2,1,1,-3,-2,-2
1528276961077464,1,-12,-4,-3,0,0,-1,-1
1528276961077464,-2,-12,-7,-6,-2,0,-4,-3
1528276961086175,-2,-3,1,-2,-2,0,2,0
1528276961086175,-4,4,0,-2,-3,0,-2,-1
1528276961087340,0,-1,-2,1,0,-1,-1,0
1528276961087340,1,7,-3,0,-2,-2,0,0
1528276961100200,-3,-4,3,1,1,1,-3,-3
1528276961100200,-6,-3,2,0,0,1,0,0
1528276961108325,6,6,1,-2,-3,-1,0,-1
1528276961108325,0,-6,-5,-5,-2,-2,0,-1
1528276961123292,-1,-1,-2,-1,-2,-2,-3,-2
1528276961123292,-3,4,-1,1,-1,0,1,0
1528276961130095,3,1,-2,0,0,-2,0,-1
1528276961130095,19,19,1,-2,-2,-1,-1,0
1528276961146271,-22,-32,-2,-1,-1,-1,-1,-2
1528276961146271,-16,1,1,-2,-3,-2,-2,-3
1528276961147020,-2,-13,-5,-2,-1,-2,-1,1
1528276961147020,-3,11,-6,-8,-2,-1,1,0
1528276961159981,11,13,5,0,0,0,-2,-1
1528276961159981,2,-3,-1,1,0,0,-1,-2
1528276961168196,-2,-4,1,0,-1,-1,-2,-1
1528276961168196,-9,-2,0,0,0,-2,-2,-1
1528276961183155,6,5,-1,-1,-3,-2,-1,-1
1528276961183155,-3,-3,-4,-1,-1,-2,-1,-1
1528276961189980,2,9,0,-2,-1,-1,-2,-1
1528276961189980,0,-7,-1,4,0,-2,-2,-1
