timestamp,emg1,emg2,emg3,emg4,emg5,emg6,emg7,emg8
1528189771715333,1,-1,-2,-7,-28,-6,0,8
1528189771715333,-4,-2,-14,-60,13,12,2,-2
1528189771722314,-3,1,8,41,17,-1,-2,-11
1528189771722314,-2,0,-1,-8,-14,-5,-2,-5
1528189771728297,1,0,5,37,-7,-10,4,28
1528189771728297,0,-2,-4,-22,-18,-2,-4,-36
1528189771737274,-5,2,-3,-19,12,-6,-4,-23
1528189771737274,-1,-1,-2,-3,8,15,4,19
1528189771753231,-11,-1,5,11,25,-15,-43,-86
1528189771753231,15,-5,-1,11,-18,11,74,115
1528189771757221,13,1,-6,-5,6,22,13,43
1528189771757221,0,0,-4,-25,-9,0,-7,-22
1528189771781157,5,5,2,2,-3,-7,-29,24
1528189771781157,-19,-4,1,20,4,-2,-3,-76
1528189771783151,-4,-1,-2,4,-7,-16,-14,-3
1528189771783151,4,0,-2,-20,-12,-3,8,16
1528189771796116,-1,-3,-6,-17,4,16,2,2
1528189771796116,2,4,7,12,-15,-28,-17,5
1528189771836010,-2,0,2,7,26,11,18,6
1528189771836010,8,-2,-4,-2,-1,-8,13,20
1528189771836010,0,-3,-2,-2,6,31,-4,-7
1528189771836010,-1,0,-2,-9,-16,-18,14,3
1528189771839999,-5,-1,-1,-2,-16,-22,-12,-11
1528189771839999,-4,2,2,5,2,-7,-26,-8
1528189771840997,1,1,1,3,22,28,45,23
1528189771840997,-2,-2,-3,-1,0,-3,-33,-29
1528189771847978,0,0,0,-2,1,-5,49,18
1528189771847978,-6,0,-1,-1,-11,14,-32,-23
1528189771853961,0,-1,-3,-2,2,-13,-16,-2
1528189771853961,-4,-3,-1,-2,1,-6,3,0
1528189771870916,1,-2,1,-5,-16,9,-24,0
1528189771870916,2,-2,1,-1,5,6,10,6
1528189771876901,-3,-1,-1,0,-4,-24,-8,-7
1528189771876901,1,2,0,0,1,19,9,5
1528189771900838,-1,-2,-5,-3,-2,-8,-14,-1
1528189771900838,-4,-3,0,0,-9,-14,23,2
1528189771907818,1,0,2,-3,7,8,-3,-6
1528189771907818,1,-2,-1,3,7,2,1,7
1528189771909813,1,4,2,0,-1,-4,-7,-9
1528189771909813,-6,-6,-2,-3,-5,8,4,6
1528189771930761,-2,0,1,-2,-7,-21,-9,-6
1528189771930761,1,-2,0,3,2,8,4,20
1528189771932751,-3,0,-3,-3,1,-9,-10,-21
1528189771932751,1,-4,-3,-3,-9,-18,-9,-3
1528189771953695,-4,3,-1,-6,-9,10,-9,-4
1528189771953695,-4,-5,-3,2,17,20,7,9
1528189771954692,-1,-1,-1,-1,-12,-4,7,0
1528189771954692,4,6,1,2,19,-1,8,2
1528189771968655,-1,-5,-3,-1,-8,-13,-4,1
1528189771968655,-1,1,2,-1,-8,-11,-5,-20
1528189771969653,3,-6,-4,-2,-1,8,-10,26
1528189771969653,-1,-2,0,5,-1,-1,-2,-14
1528189771990597,-1,-3,-1,-5,0,-2,2,1
1528189771990597,-2,0,-2,3,-9,-1,-6,-9
1528189771992591,-2,-1,2,-16,-2,-7,-2,-5
1528189771992591,2,0,0,2,8,-1,-2,3
1528189772004559,0,-3,-3,0,-3,4,6,0
1528189772004559,-2,-2,-3,-2,-6,-7,-4,-2
1528189772013542,2,1,0,-1,0,-6,-4,-2
1528189772013542,0,-1,-3,0,5,11,3,2
1528189772028496,-3,-3,-1,-2,-2,4,-2,-5
1528189772028496,3,0,0,-6,-7,-12,2,4
1528189772029494,-2,-1,-1,9,1,2,0,-1
1528189772029494,-1,1,-1,-5,8,5,-3,-3
1528189772050462,1,-1,-1,4,-19,-9,-2,-1
1528189772050462,-1,0,-2,-9,15,0,3,14
1528189772065398,-3,-2,1,0,-18,3,-6,-22
1528189772065398,-2,-3,-1,1,18,1,11,4
1528189772065398,-2,-1,-3,-7,-7,-9,-1,-8
1528189772065398,4,3,3,9,-1,-2,1,14
1528189772073375,-2,-3,-1,-5,5,3,0,-3
1528189772073375,-4,0,-2,-4,-22,-7,-2,-4
1528189772095317,1,0,1,7,2,-2,-4,-3
1528189772095317,-2,-2,-4,-7,1,-3,-4,-9
1528189772097324,0,0,-2,-3,-3,-4,-5,3
1528189772097324,2,0,0,1,-1,0,-3,0
1528189772126261,-4,-2,0,-1,9,3,7,-2
1528189772126261,-4,0,-3,1,-2,-4,-5,-9
1528189772128231,1,2,-4,4,4,1,3,2
1528189772128231,-1,-3,-2,-13,-14,-7,-4,0
1528189772129228,1,2,-1,7,4,-2,3,4
1528189772129228,-2,-6,-5,-7,-2,-1,-5,-4
1528189772133218,1,4,4,1,0,1,0,2
1528189772133218,-3,0,5,9,-3,2,3,-2
1528189772148176,-1,-3,-2,-9,-4,-5,-9,7
1528189772148176,0,-1,1,4,8,11,6,-1
1528189772150171,-7,-6,-2,-3,-7,-1,-2,-4
1528189772150171,-1,0,-4,-1,16,-2,-2,-7
1528189772178095,1,-2,-3,-1,-6,-4,-3,4
1528189772178095,-1,-1,0,-6,-26,-7,-9,-12
1528189772180090,1,-1,5,21,9,5,8,13
1528189772180090,1,-1,-18,-5,19,6,1,0
1528189772184080,0,0,-2,-16,10,6,0,0
1528189772184080,-1,0,-9,4,1,-5,-2,-4
1528189772193090,-2,-3,-2,-12,-9,2,1,-5
1528189772193090,0,9,3,27,-12,-10,-7,-1
1528189772208016,0,5,61,7,-21,-6,-1,-2
1528189772208016,-7,-12,-51,-12,33,6,6,-2
1528189772210010,10,5,46,3,2,-2,2,23
1528189772210010,-4,0,7,23,-8,-4,-6,-25
1528189772230954,1,0,24,15,51,10,-5,-5
1528189772230954,-6,-1,0,-42,-20,-3,1,-3
1528189772231952,-1,-8,-41,62,-34,-4,-3,-1
1528189772231952,1,-2,-11,-48,33,-5,3,14
1528189772244917,1,4,-14,-6,-4,17,3,-1
1528189772244917,0,-1,21,113,38,-3,1,-1
1528189772260874,-2,0,-2,-126,-6,0,-2,-7
1528189772260874,1,-1,-13,8,-39,-10,-7,-2
1528189772267855,-3,-5,-22,-40,17,-4,2,-3
1528189772267855,0,3,7,59,-19,1,-1,5
1528189772269851,-4,-1,8,24,28,2,-3,-8
1528189772269851,-2,-4,3,5,7,10,6,5
1528189772290794,-3,-3,-12,0,-25,-13,-3,-3
1528189772290794,2,1,7,-35,-20,-4,-2,10
1528189772292789,-5,-2,-12,31,20,-1,9,-12
1528189772292789,0,-3,10,-22,-9,1,-15,11
1528189772304805,-1,-3,-15,-6,-5,-7,0,-6
1528189772304805,1,0,3,9,-5,-1,4,2
1528189772313735,-3,0,-2,10,-5,2,-9,-7
1528189772313735,-2,-3,-3,-10,-13,-2,-5,-2
1528189772328715,2,-1,3,0,10,-5,13,4
1528189772328715,-3,0,-2,-27,-20,-17,-55,-14
1528189772329704,-1,-3,-6,8,12,10,36,6
1528189772329704,-2,0,2,0,0,2,-3,-7
1528189772350661,-2,-2,-9,4,-26,-5,0,1
1528189772350661,0,0,7,-16,14,-3,-23,-7
1528189772352629,1,3,0,-5,-8,6,12,1
1528189772352629,-1,-1,-1,3,-1,-3,6,3
1528189772364598,-3,-7,-8,25,4,-8,-24,-4
1528189772364598,-2,-4,-4,-15,22,14,28,5
1528189772373573,-1,1,-2,-9,-14,-10,-39,-4
1528189772373573,2,0,5,7,-16,-9,31,4
1528189772387813,-1,2,-5,-16,-5,8,-4,-1
1528189772387813,1,5,8,-4,-19,-10,-4,-5
1528189772389803,-1,-1,-6,-13,8,-2,12,12
1528189772389803,-5,-3,2,8,-2,1,-15,-23
1528189772410750,-1,-5,-7,-2,-11,-8,-6,-2
1528189772410750,-2,-3,-1,-13,-3,1,2,-14
1528189772412749,2,4,0,6,-7,-4,18,15
1528189772412749,5,-1,2,-2,7,-1,-8,30
1528189772424710,-2,3,-2,4,0,6,4,-14
1528189772424710,5,4,3,-4,-1,-1,32,8
1528189772433685,-13,0,-7,-9,-1,-2,8,-2
1528189772433685,-7,-19,0,2,2,8,-32,-60
1528189772447647,1,4,4,3,-1,2,12,15
1528189772447647,-2,1,-3,-6,3,-2,1,6
1528189772454632,-2,-5,-4,-3,3,-6,-30,-9
1528189772454632,-3,-2,0,-9,-8,5,5,21
1528189772470587,-6,-15,-5,13,-29,-7,-16,-4
1528189772470587,-1,-1,-4,-3,48,8,6,0
1528189772478567,4,-1,-1,-17,-14,-5,-18,8
1528189772478567,-6,4,-1,-1,-2,-1,-10,-12
1528189772484971,4,4,4,2,-10,-10,-8,-3
1528189772484971,4,0,2,19,2,-1,-4,25
1528189772493526,-2,-4,-3,-13,19,10,-30,-6
1528189772493526,3,11,-2,-17,5,-5,58,6
1528189772507899,-5,-20,-3,6,2,2,49,11
1528189772507899,-5,-4,-16,-7,-24,-5,-12,-17
1528189772514484,-3,-3,14,8,-8,-6,-40,-32
1528189772514484,2,6,-3,7,2,-2,-3,6
1528189772538749,-5,17,-11,0,14,1,31,10
1528189772538749,-1,-15,10,-8,-17,2,8,11
1528189772539405,-13,1,43,9,4,-1,16,4
1528189772539405,0,-4,-13,-5,-1,1,-11,-58
1528189772544389,24,12,-12,17,4,-13,-4,88
1528189772544389,-9,-24,-28,-32,11,14,-16,-24
1528189772561344,-1,14,1,-16,2,5,9,-6
1528189772561344,-3,-26,-32,16,-5,-8,6,31
1528189772568326,11,71,99,12,1,13,-15,-43
1528189772568326,-19,-48,-13,-6,2,-9,-4,-25
1528189772598246,4,-5,29,18,-5,-9,9,22
1528189772598246,1,16,49,2,-14,0,-9,10
1528189772598246,1,-13,-81,-58,-3,3,-10,-13
1528189772598246,1,19,-10,55,7,-6,4,14
1528189772606225,-9,-21,-10,-39,-7,-2,0,-35
1528189772606225,6,23,28,-2,-10,-1,-1,21
1528189772607222,-9,-27,-44,30,-2,-9,-14,-5
1528189772607222,3,9,3,21,46,16,13,-9
1528189772621185,3,-5,-46,-55,4,12,7,14
1528189772621185,-1,-6,-3,-14,-36,-11,-8,4
1528189772627169,-10,-10,38,72,55,12,0,-12
1528189772627169,2,8,-1,-80,-33,-11,-2,-3
1528189772634149,8,16,5,55,10,-18,-4,2
1528189772634149,-8,-20,-19,29,21,22,-13,3
1528189772651103,-7,-7,0,-94,-56,-18,-5,-24
1528189772651103,4,6,15,107,37,14,7,8
1528189772652102,2,5,0,-125,-12,-8,-2,3
1528189772652102,-7,-4,-20,33,-1,-2,-2,-9
1528189772673295,-3,-10,-3,83,24,4,-7,2
1528189772673295,5,7,13,98,-41,1,3,5
1528189772675040,1,1,-10,-64,7,-4,25,-4
1528189772675040,-2,-1,6,74,-26,-10,6,23
1528189772688257,-5,-9,6,-7,26,1,-21,-60
1528189772688257,2,10,9,-8,-28,1,3,7
1528189772695119,-2,-6,-9,13,25,10,0,-9
1528189772695119,0,3,-1,30,-21,-29,-12,10
1528189772718213,0,-2,0,-6,-14,6,4,26
1528189772718213,0,6,-5,-35,-13,-13,-9,-21
1528189772719920,-1,-5,-10,66,0,-3,-10,1
1528189772719920,0,4,6,-20,14,4,5,-4
1528189772733189,-4,-15,-12,-48,23,10,17,12
1528189772733189,-3,-5,1,-19,-1,-8,-21,-13
1528189772735196,1,4,10,29,-11,7,7,4
1528189772735196,0,-4,-14,-34,19,6,4,-1
1528189772748291,0,3,-1,11,-14,-10,-20,0
1528189772748291,-1,-1,-2,-60,-22,-2,-12,9
1528189772754152,-3,9,5,61,2,3,3,-22
1528189772754152,3,-10,-9,-33,8,-1,-35,9
1528189772771350,0,-4,-5,-8,-11,0,57,11
1528189772771350,0,4,1,-11,1,-6,4,3
1528189772772317,-1,-7,-8,15,-19,-6,-5,9
1528189772772317,0,7,9,0,17,7,9,10
1528189772794044,-7,-2,-1,-12,-12,-6,-23,-61
1528189772794044,-8,4,2,-7,-6,-6,9,-22
1528189772795023,4,2,-10,21,2,5,-9,14
1528189772795023,8,-2,-3,-28,4,8,35,32
1528189772815986,-4,-1,3,18,-4,-7,-11,13
1528189772815986,-4,-9,-2,-3,-3,-1,-1,-3
1528189772817962,-10,-1,-3,9,-3,-6,-2,-45
1528189772817962,6,12,-1,-1,-36,-9,6,30
1528189772828932,1,-1,4,-11,39,16,6,-12
1528189772828932,3,3,3,10,13,0,4,20
1528189772838906,1,-7,-2,2,-19,-1,-3,42
1528189772838906,-5,3,4,6,-15,-3,16,-45
1528189772868096,-2,3,2,26,35,5,-13,5
1528189772868096,-3,0,-5,-43,-7,6,-3,-9
1528189772876856,4,6,-2,8,2,-4,-12,-2
1528189772876856,-5,-7,-1,-14,4,0,-16,-9
1528189772877802,1,-3,2,0,-29,-6,-25,10
1528189772877802,-2,0,1,7,9,-3,11,-7
1528189772900741,2,2,-4,4,-6,-2,-4,9
1528189772900741,-9,-4,-8,-14,6,-1,-32,-27
1528189772901879,6,3,-6,1,-6,-4,-25,17
1528189772901879,5,5,21,8,-10,-7,-6,10
1528189772904970,-5,-4,-3,-15,7,2,8,-28
1528189772904970,-6,-7,-3,4,12,5,-8,-5
1528189772928666,-7,-1,9,12,9,-2,6,6
1528189772928666,3,4,-37,-12,-4,-2,1,4
1528189772929663,-5,-26,-28,5,-11,-8,-18,-3
1528189772929663,2,3,22,-24,-7,1,6,-4
1528189772935667,-1,4,19,4,11,-7,1,3
1528189772935667,-1,-12,26,-20,0,9,12,9
1528189772937662,3,14,20,17,19,3,10,1
1528189772937662,-3,-8,-43,22,4,1,2,-5
1528189772949655,2,9,1,6,-31,-5,8,-2
1528189772949655,-4,-20,-24,41,9,-3,-10,0
1528189772958640,-2,-5,51,-66,-1,4,5,5
1528189772958640,1,-2,-22,-25,-3,-5,4,-4
1528189772972582,-2,-2,7,-9,-14,-3,-5,1
1528189772972582,0,13,3,7,4,0,2,-2
1528189772979555,-1,-2,-26,24,-3,-1,3,0
1528189772979555,-1,-3,4,-3,10,-1,6,-2
1528189772995542,-4,-4,28,4,-13,-3,4,1
1528189772995542,-2,-3,-21,4,-2,-3,-5,-2
1528189772997483,-2,-5,-7,-1,-5,1,3,0
1528189772997483,-4,-5,-4,59,14,3,-4,-3
1528189773009504,0,-1,-9,-99,3,-1,-3,1
1528189773009504,-1,-4,-16,44,-25,-9,-5,0
1528189773018430,1,2,13,60,7,0,-1,1
1528189773018430,0,-1,-19,-80,-12,-3,1,-4
1528189773032444,-3,-3,9,51,-3,-4,-3,-2
1528189773032444,1,19,20,-27,6,1,7,2
1528189773039422,-2,-17,-51,0,1,-1,1,-2
1528189773039422,-2,1,26,43,4,-1,-1,-2
1528189773063306,1,-2,-16,1,-4,0,3,-1
1528189773063306,2,5,18,-42,-1,0,-2,0
1528189773065300,-8,-1,-8,3,-5,-5,-2,1
1528189773065300,-1,-1,18,-10,10,2,0,-1
1528189773069289,-2,2,-6,9,-8,-1,0,-1
1528189773069289,-1,-7,-18,-39,2,1,1,1
1528189773078265,0,-3,-5,-3,-3,-2,-1,-2
1528189773078265,-1,1,9,16,-8,-6,-3,-1
1528189773093225,0,2,-21,46,6,1,0,1
1528189773093225,-1,-1,22,-19,14,6,2,2
1528189773099210,0,0,15,-14,-9,-1,-3,-1
1528189773099210,-3,-1,-29,-12,-8,-5,-4,-3
1528189773115168,2,3,10,2,9,7,2,-1
1528189773115168,-1,-7,-2,1,-8,-1,-1,-1
1528189773123161,0,3,8,3,-5,2,1,0
1528189773123161,1,5,37,34,29,-2,0,-1
1528189773129184,-1,-8,-39,-21,-11,-5,-1,0
1528189773129184,-3,-2,-5,13,1,-2,-2,-1
1528189773138145,0,3,5,-3,-4,-1,-1,-2
1528189773138145,2,-2,-3,-19,4,-1,0,-2
1528189773152126,-1,0,-2,-22,-13,-3,0,0
1528189773152126,-3,-4,24,-4,3,-2,-3,-1
1528189773161087,1,0,-16,1,-6,-2,-1,-1
1528189773161087,0,2,21,-9,3,3,1,1
1528189773176060,-2,-2,6,22,1,-4,-1,-2
1528189773176060,-1,1,-1,13,-22,-6,-2,-1
1528189773177044,0,-3,-22,-22,22,2,-1,-2
1528189773177044,0,3,35,5,-14,0,-1,-3
1528189773205984,-3,-5,-60,-17,-9,-4,-3,0
1528189773205984,-1,-7,0,-14,3,1,0,-2
1528189773206977,-2,-4,10,27,1,-4,-2,-2
1528189773206977,0,2,-17,-37,-8,-2,0,0
1528189773211967,-1,0,16,8,10,2,1,1
1528189773211967,0,1,-7,7,5,5,5,3
1528189773220886,-1,2,5,2,-4,-5,-3,-1
1528189773220886,-3,-4,-15,3,-1,2,0,-2
1528189773235848,-1,0,20,-5,-14,-6,-2,-2
1528189773235848,0,-2,-24,14,3,-1,1,-2
1528189773237840,0,0,20,-5,-6,-1,1,0
1528189773237840,-2,-1,-22,3,-5,-2,0,-2
1528189773258965,2,-1,16,-5,2,-1,0,0
1528189773258965,0,2,2,10,-2,-3,-3,-2
1528189773259782,1,-2,-3,-2,-3,0,-1,-1
1528189773259782,-1,1,-4,0,4,-1,-3,-1
1528189773271996,-3,-8,-10,-10,-3,1,0,1
1528189773271996,0,3,23,42,-7,-3,-1,-2
1528189773286865,-1,-1,-11,-41,-10,-4,-2,0
1528189773286865,-2,-2,-9,-11,-14,-4,-2,0
1528189773295935,0,2,9,-2,12,5,0,-2
1528189773295935,-1,2,1,13,-2,-3,-2,-1
1528189773297680,0,-2,-6,3,0,-3,-1,-1
1528189773297680,-3,-2,-4,-3,-11,-3,-1,-3
1528189773318885,-2,-3,-4,-4,-8,-3,-1,-1
1528189773318885,0,-1,-4,-16,1,-1,-3,-2
1528189773319621,0,-2,2,15,0,2,-2,-1
1528189773319621,-1,-1,-5,-9,7,3,-1,-2
1528189773332680,1,1,7,5,-2,-2,1,-1
1528189773332680,-1,-2,-8,-7,4,-3,0,-1
1528189773340924,-1,-1,-1,-1,2,0,0,-1
1528189773340924,0,-1,3,10,4,4,2,0
1528189773356202,-3,-2,-1,-8,-6,-1,0,-3
1528189773356202,-1,-2,-5,-6,-2,-8,-3,-2
1528189773356882,0,-2,0,7,-2,4,-1,-3
1528189773356882,-1,-2,-3,-7,7,0,-1,-1
1528189773378962,0,0,-7,-1,-11,-3,-7,-3
1528189773378962,-2,-4,-3,-11,0,-9,8,2
1528189773379819,0,2,5,16,11,15,1,1
1528189773379819,1,-1,-2,-1,0,-2,-1,-1
1528189773392432,-1,-2,-2,-4,6,1,2,0
1528189773392432,0,2,-3,-3,0,-4,-5,-2
1528189773401074,-1,0,0,-5,-15,-5,-2,-2
1528189773401074,-2,-2,0,-6,0,-5,-1,-1
1528189773416039,-2,-2,1,4,-3,-2,-2,-2
1528189773416039,-1,0,-2,-13,-8,2,0,-2
1528189773417029,-2,0,4,-3,-7,-6,1,-1
1528189773417029,-1,0,-3,11,-6,-3,-2,-1
1528189773439174,-1,0,-2,-20,0,-4,0,-2
1528189773439174,-4,-3,-2,1,6,4,-1,-1
1528189773439974,0,0,1,2,-2,-5,0,2
1528189773439974,-2,-2,-2,7,0,-5,-2,-1
1528189773451937,0,-2,3,4,12,4,0,-1
1528189773451937,-2,-2,4,2,6,4,-3,-2
1528189773461381,-1,-1,-8,-15,-5,-4,-1,-4
1528189773461381,-1,-3,-3,7,-7,-3,-2,-1
1528189773476467,-1,-1,1,11,19,4,1,0
1528189773476467,0,0,-10,-12,-4,4,-1,0
1528189773477341,-1,-2,4,7,3,-2,-3,-2
1528189773477341,1,0,6,-4,2,2,0,-1
1528189773498288,-1,0,-16,-2,-15,-1,-1,1
1528189773498288,-1,-2,14,9,12,-2,-2,-2
1528189773500279,-3,-2,-10,-21,-2,-1,0,0
1528189773500279,0,0,11,1,-9,2,1,0
1528189773512550,0,2,-5,-3,3,-5,-1,-1
1528189773512550,-1,-2,-6,-2,-6,-1,-1,-1
1528189773521223,-2,-1,3,8,2,-1,-1,-1
1528189773521223,-2,0,-7,-10,-1,1,-1,-2
1528189773543239,0,0,4,2,-13,-4,0,-1
1528189773543239,-1,-1,-6,-2,-2,1,0,-2
1528189773545160,-1,-1,-2,1,5,-2,0,-1
1528189773545160,-2,-2,-2,-2,-3,0,-1,-1
1528189773558387,-2,-3,-2,3,-2,-3,-2,0
1528189773558387,-1,-1,0,-2,-7,-2,-2,0
1528189773560119,-2,0,-4,-2,-3,-1,-1,0
1528189773560119,-2,0,-2,2,7,2,-1,-1
1528189773572333,-1,-3,4,-2,-4,0,-1,-1
1528189773572333,0,-1,-5,-6,-6,0,-2,0
1528189773581064,0,1,1,4,1,-1,-1,-1
1528189773581064,-2,-1,-3,-1,2,-2,2,-1
1528189773596164,-2,-2,0,-3,-3,-2,1,-2
1528189773596164,-1,-2,-4,-3,-2,-1,-1,0
1528189773597039,0,0,1,5,4,-1,-1,-1
1528189773597039,0,0,-2,-1,1,-1,-1,-1
1528189773618321,0,-1,-3,-2,-5,0,-1,-2
1528189773618321,-1,0,-3,0,-1,-1,0,-3
1528189773620141,-1,-1,0,2,-1,-1,-2,-1
1528189773620141,-2,-2,-1,-2,1,-1,-1,0
1528189773632363,-2,0,1,0,-1,-1,-1,-1
1528189773632363,-2,-2,-1,1,-2,0,0,-3
1528189773648888,-1,-2,-3,-4,-2,-3,1,-1
1528189773648888,-1,-1,-2,0,2,1,0,0
1528189773655870,-2,-1,-2,-4,-5,-3,-1,-1
1528189773655870,-2,-3,0,0,-1,2,-1,-1
1528189773656861,-1,-1,-2,0,0,0,-2,-1
1528189773656861,0,-1,-1,-2,1,-2,-3,-2
1528189773678941,-1,-2,1,-1,1,0,-2,-1
1528189773678941,-1,0,2,-1,-2,-2,-2,-2
1528189773679800,-1,-1,-1,1,-1,0,-1,-1
1528189773679800,0,-1,-1,-3,-2,-1,-3,-2
1528189773692542,-1,-2,-1,-2,-2,-1,0,-3
1528189773692542,0,1,-1,-3,-2,1,1,-1
1528189773701283,0,-3,0,0,-1,-2,-1,-2
