timestamp,emg1,emg2,emg3,emg4,emg5,emg6,emg7,emg8
1528282083662987,0,-1,-1,-3,-1,0,0,-2
1528282083662987,-1,-2,0,0,-2,0,0,-1
1528282083668980,-1,-2,-1,-1,-2,0,-1,-2
1528282083668980,0,1,1,-1,-1,-2,-2,-1
1528282083685928,-1,0,-1,1,-2,-1,0,0
1528282083685928,-2,-2,1,0,1,-1,-3,0
1528282083691911,0,-2,-2,0,0,-1,-1,-1
1528282083691911,0,-1,-1,-2,-1,2,-1,0
1528282083701886,-1,1,-2,-1,0,-2,-1,-2
1528282083701886,-2,0,1,-1,-2,-1,0,-1
1528282083706872,-1,0,-1,0,-2,-1,-1,0
1528282083706872,-1,0,0,0,-2,-1,0,0
1528282083722843,0,-1,0,-1,-2,0,-2,-1
1528282083722843,0,-1,-1,0,0,1,0,0
1528282083728860,-2,-1,-2,-2,0,0,0,0
1528282083728860,-1,-1,-1,0,-1,-1,1,0
1528282083743772,-1,0,-1,0,1,-3,-2,-1
1528282083743772,-2,0,0,0,0,-1,0,-1
1528282083752748,0,-2,1,0,-1,-1,-1,-3
1528282083752748,0,-1,-1,-1,2,-1,-1,-1
1528282083760728,-1,0,0,-1,-1,-1,-1,-1
1528282083760728,-1,0,0,-2,0,-1,-3,1
1528282083766748,0,-1,-1,0,0,0,0,1
1528282083766748,-1,-1,0,-1,-2,0,-1,-1
1528282083783666,-1,-1,0,-1,0,0,-1,-1
1528282083783666,1,0,-2,-1,0,-1,0,0
1528282083789675,0,-1,-1,0,-1,0,0,2
1528282083789675,-1,-1,1,-1,1,-1,0,0
1528282083804609,-1,1,0,0,0,0,1,-2
1528282083804609,-1,0,-2,-1,-2,0,0,0
1528282083811590,0,-1,-1,-1,-1,0,0,0
1528282083811590,-1,0,-2,-3,-1,-3,0,0
1528282083820566,-1,-1,-1,0,0,-2,1,-1
1528282083820566,-1,0,0,-1,-2,-1,0,-1
1528282083826588,-2,-1,0,-2,1,0,-2,-2
1528282083826588,-1,-1,-1,-1,0,0,-1,-1
1528282083843505,1,-2,-1,-1,0,-1,-1,0
1528282083843505,-1,1,-1,0,-1,-3,0,-2
1528282083849539,-2,0,0,-1,0,-1,0,-1
1528282083849539,0,0,-1,0,0,0,0,1
1528282083864449,-1,-2,0,-1,0,0,0,1
1528282083864449,1,0,0,0,-1,-2,-2,0
1528282083871483,-1,0,-1,0,0,0,0,-1
1528282083871483,0,-4,-1,0,0,-1,-1,-1
1528282083887387,-2,-1,0,1,-2,-1,-2,0
1528282083887387,0,-2,-1,-1,0,1,-1,-1
1528282083888385,-1,-1,0,0,0,-3,0,-1
1528282083888385,-2,0,-1,0,-1,0,-1,-2
1528282083903346,1,-2,0,-2,0,1,0,-1
1528282083903346,1,-2,0,-1,-1,-2,0,0
1528282083909328,1,-1,-1,0,-2,-1,-1,-1
1528282083909328,1,1,0,0,0,-1,0,-2
1528282083924288,-1,1,-2,1,-1,0,-2,-1
1528282083924288,-1,0,1,-1,0,0,1,1
1528282083931269,-1,-1,-1,-1,1,0,-1,0
1528282083931269,-1,-1,0,1,0,-1,1,-2
1528282083940289,-1,-1,-1,-1,-1,0,1,-1
1528282083940289,-1,-2,0,-1,-2,0,0,-1
1528282083947227,-1,1,-1,0,0,0,-1,0
1528282083947227,0,0,-2,-2,-1,0,1,1
1528282083963186,1,-2,-1,-1,1,2,-2,0
1528282083963186,-1,-1,-1,0,-2,-2,-1,1
1528282083969222,1,0,0,-1,-1,-1,0,0
1528282083969222,0,-1,0,0,-2,0,-1,-1
1528282083984130,1,0,0,0,-2,-2,2,0
1528282083984130,1,0,-2,-1,-1,2,1,-2
1528282083992110,-1,-1,0,-1,0,1,-1,-2
1528282083992110,-1,-1,0,0,0,0,-1,-2
1528282084009063,0,-1,-1,-1,0,-2,1,-1
1528282084009063,0,-1,0,1,-1,-4,-1,-2
1528282084010059,0,-1,-2,0,-1,0,-1,0
1528282084010059,0,-1,1,1,0,1,-1,2
1528282084023025,1,-1,-1,-1,-2,0,-2,-1
1528282084023025,-1,0,-2,0,2,1,-2,-1
1528282084029040,-1,-1,-1,-1,0,0,-1,0
1528282084029040,0,-1,0,-2,-1,-4,1,-1
1528282084043969,-1,0,0,0,-1,-2,0,-1
1528282084043969,1,-1,0,-1,-1,-2,0,-2
1528282084051949,-1,0,0,1,-2,-2,-1,0
1528282084051949,-1,-1,-1,-2,-3,0,1,0
1528282084060943,0,-1,-2,0,-2,-3,-1,-3
1528282084060943,-1,0,-2,0,1,0,-2,-2
1528282084073909,1,-2,-1,-2,0,0,-2,-3
1528282084073909,0,-1,-1,-1,-1,0,-4,0
1528282084082911,0,-1,0,0,0,1,-1,1
1528282084082911,1,0,0,-1,-1,0,0,1
1528282084088902,-1,1,1,-1,-2,0,0,-1
1528282084088902,0,0,-3,0,0,0,0,0
1528282084103809,-2,-1,-1,-1,-1,-1,-3,0
1528282084103809,-2,-1,-1,-1,-1,0,-1,-1
1528282084111788,-1,0,-1,1,-2,-2,-1,-1
1528282084111788,-1,-1,0,0,2,-1,0,-1
1528282084120764,0,-1,0,-1,-1,1,0,0
1528282084120764,0,-1,0,0,-2,0,0,0
1528282084134729,-1,-1,0,-2,-2,0,0,-1
1528282084134729,0,-2,-2,-2,0,-2,-1,-1
1528282084143722,-2,-1,-3,-2,0,1,-1,2
1528282084143722,-2,1,0,-2,-1,0,-1,0
1528282084149955,1,-1,-1,-1,0,0,1,-1
1528282084149955,0,1,0,1,-1,0,0,-1
1528282084165643,0,-2,-1,-1,-1,-1,0,-1
1528282084165643,0,-3,1,-1,-1,0,-1,1
1528282084171628,-1,-2,-1,0,1,-1,-1,0
1528282084171628,-2,0,0,-1,-2,-1,-1,0
1528282084180603,0,1,0,1,-1,-2,-2,-1
1528282084180603,-2,2,0,1,1,2,-2,-1
1528282084194596,-1,0,-1,-1,0,-1,-1,-2
1528282084194596,1,1,-1,0,-1,-1,0,-1
1528282084203544,-2,1,0,0,-1,-1,1,0
1528282084203544,0,-2,-1,-1,1,-1,0,1
1528282084209531,-2,-1,0,0,0,1,-3,-1
1528282084209531,-1,-1,-3,0,-1,0,-1,-2
1528282084224520,-1,-1,0,-1,-1,-2,0,0
1528282084224520,0,0,-1,-1,0,-3,0,-1
1528282084231468,0,-1,0,0,-2,-1,1,2
1528282084231468,-1,-1,0,-3,-1,-2,0,-1
1528282084240444,0,0,0,-1,-1,2,1,-1
1528282084240444,-1,-1,-2,-1,-1,0,-1,0
1528282084254434,-2,-1,-1,0,0,1,-1,-1
1528282084254434,-1,-2,0,-1,0,-1,-3,-2
1528282084263395,-1,-2,-1,-1,-1,-2,-2,0
1528282084263395,0,0,0,-2,0,-2,0,-2
1528282084269412,1,-1,-3,-2,-2,-1,0,-1
1528282084269412,2,-2,1,-1,-1,1,-1,0
1528282084284327,0,-1,1,-2,1,1,2,-1
1528282084284327,1,1,-2,-1,-2,-1,-2,1
1528282084291362,-2,-1,-2,0,-2,0,-2,-1
1528282084291362,-2,-1,-1,1,1,1,1,-1
1528282084300294,1,0,-1,0,0,0,0,-1
1528282084300294,-1,-2,0,-1,0,-2,1,0
1528282084314254,0,-2,-1,-1,-1,-2,-1,1
1528282084314254,-1,0,0,0,-1,-1,1,2
1528282084323224,0,0,0,0,-1,-2,0,-2
1528282084323224,0,-1,0,0,0,0,-1,-1
1528282084329259,-1,-1,0,0,0,1,0,0
1528282084329259,-1,-1,-1,0,-1,-1,-1,0
1528282084344221,-2,-1,1,-1,-1,0,-2,-1
1528282084344221,-1,0,-1,-1,-2,0,-2,-3
1528282084352150,-1,0,-2,-2,-1,-3,0,-1
1528282084352150,-1,0,-2,0,-1,-2,-1,-1
1528282084361121,1,0,-1,1,0,-1,1,1
1528282084361121,-2,0,0,0,0,0,-1,-1
1528282084374117,0,0,-1,0,1,1,-2,-2
1528282084374117,-2,-1,0,-1,-2,-1,-3,-1
1528282084383062,0,-2,-1,1,-2,-1,-2,-2
1528282084383062,-1,-3,-1,2,-1,-3,-2,1
1528282084389100,-2,-1,0,-1,-1,0,1,-1
1528282084389100,0,-1,1,-1,0,1,0,0
1528282084404006,-1,0,-1,-1,1,0,0,1
1528282084404006,1,-1,-1,0,-1,0,1,0
1528282084411985,-1,0,0,0,-1,-2,0,0
1528282084411985,-2,0,-2,1,-2,-1,-1,-1
1528282084420962,-2,-1,-1,-1,0,-1,-1,-1
1528282084420962,-2,1,0,0,0,0,0,-2
1528282084433940,0,-1,-1,-1,0,1,-1,2
1528282084433940,2,-2,-1,-2,-1,0,-1,1
1528282084442903,-3,1,0,-1,0,-1,-2,-1
1528282084442903,-1,0,0,-1,0,0,-1,-1
1528282084448887,0,-1,0,0,1,-1,-1,-1
1528282084448887,-1,0,-1,1,-2,-1,-1,0
1528282084463900,0,-1,0,0,0,0,0,0
1528282084463900,1,-2,-1,-1,0,-1,-2,1
1528282084471825,-1,-2,0,-2,0,-2,0,0
1528282084471825,0,0,-1,0,1,-3,-1,-1
1528282084480802,0,0,-2,0,-1,-2,0,-2
1528282084480802,-1,0,-1,-1,0,-1,1,-2
1528282084493819,0,-2,-1,0,-2,0,0,-1
1528282084493819,-1,1,-1,-1,1,1,-2,-2
1528282084502795,0,0,-1,-2,-1,1,1,0
1528282084502795,0,-1,0,-2,-1,-1,-2,0
1528282084508779,-1,1,0,-1,0,-1,-1,-2
1528282084508779,-1,-2,1,-2,-1,-1,-1,1
1528282084524683,0,0,1,-1,0,2,-2,1
1528282084524683,-1,-1,-1,0,0,0,-1,-1
1528282084531711,-2,1,0,-1,-1,-1,0,0
1528282084531711,-1,-1,-2,-1,-2,-2,0,-1
1528282084540663,0,-1,-1,-1,-1,-2,0,-1
1528282084540663,0,-1,-1,-1,-1,1,0,-1
1528282084554605,1,-1,-2,1,0,0,0,0
1528282084554605,0,-2,0,0,1,-1,0,-1
1528282084571559,-2,-1,-1,-1,-1,-2,0,0
1528282084571559,1,-1,-1,-2,-2,-1,-2,-2
1528282084572556,1,0,-1,0,-3,1,0,1
1528282084572556,-1,0,0,0,0,1,4,1
1528282084584524,-1,-1,-2,0,0,-1,-2,-1
1528282084584524,-2,-1,0,1,0,0,1,1
1528282084592571,1,-1,-2,-2,-1,-1,-1,0
1528282084592571,0,0,-1,0,-2,-3,-2,0
1528282084606466,-1,-2,-1,-1,1,1,0,-1
1528282084606466,-1,-2,0,-1,1,0,0,1
1528282084614444,0,-1,0,1,0,-1,-1,-1
1528282084614444,-1,-1,-2,-1,-3,1,-1,0
1528282084629408,0,-1,0,-1,-3,0,-1,-1
1528282084629408,-1,0,-3,-1,-3,-1,-1,-1
1528282084630402,0,1,-1,-1,0,-3,-1,0
1528282084630402,0,1,1,-2,0,-2,-1,0
1528282084644365,1,0,-1,-1,-1,-1,-2,-2
1528282084644365,-1,0,0,-1,0,-1,-1,0
1528282084652443,-2,-2,0,0,-1,0,-1,-1
1528282084652443,-1,-2,0,-1,-1,-1,0,0
1528282084666921,-2,-3,-1,-1,-1,0,0,1
1528282084666921,0,0,-2,-1,0,-1,-1,-2
1528282084674301,-1,-1,0,-1,-1,-1,0,-1
1528282084674301,-2,0,-1,0,0,0,-1,-1
1528282084690149,-1,-1,-1,-1,-2,-2,-2,0
1528282084690149,-1,-1,0,-1,-2,-1,-2,-2
1528282084690860,-1,-2,0,-1,-1,1,0,0
1528282084690860,1,-1,1,-1,2,1,0,-1
1528282084704087,-2,0,-1,0,0,0,-1,0
1528282084704087,-1,-1,-2,-1,-1,-3,0,1
1528282084711806,0,0,1,0,0,0,-3,-2
1528282084711806,1,0,-1,-2,-1,0,-2,-1
1528282084726778,-1,-1,-1,0,-1,-1,-1,-2
1528282084726778,0,-1,-1,1,0,2,-1,0
1528282084734760,0,2,0,-2,-3,0,1,-2
1528282084734760,-1,-2,0,1,0,0,1,0
1528282084750037,1,-2,-3,-2,0,-1,1,0
1528282084750037,-1,-1,-1,-2,-2,0,0,-1
1528282084750727,-1,-1,-2,0,0,1,0,-1
1528282084750727,-2,-1,1,0,0,0,-2,-1
1528282084764998,0,1,0,-2,-2,-1,-1,-2
1528282084764998,1,0,-1,0,-1,0,-1,-1
1528282084771660,0,-2,-2,-1,-1,-2,0,-2
1528282084771660,0,0,-1,-1,0,-1,0,0
1528282084786958,0,-1,1,0,0,-1,0,-1
1528282084786958,-1,0,0,1,-2,0,-1,0
1528282084794991,1,-1,-1,0,-2,0,0,0
1528282084794991,-1,0,-1,-1,0,-2,1,-1
1528282084810658,-3,-1,-1,-1,-2,-1,0,0
1528282084810658,0,0,0,-1,-1,1,0,0
1528282084811554,-2,-2,0,1,-1,-1,0,1
1528282084811554,-1,-1,0,0,0,-1,-2,1
1528282084824519,0,0,0,1,0,-2,0,0
1528282084824519,-1,-1,1,-1,-2,0,0,-1
1528282084832120,0,-1,-2,1,0,-2,0,1
1528282084832120,0,-1,-3,-1,0,1,0,-1
1528282084847222,-1,-1,-1,-1,0,1,-1,-2
1528282084847222,0,-2,-1,-2,0,-3,-1,-1
1528282084854424,-1,0,-2,-2,-3,-2,-1,-1
1528282084854424,-2,-2,1,0,1,1,-1,1
1528282084870525,0,2,0,-2,0,1,-1,-1
1528282084870525,-2,0,0,0,0,0,0,-2
1528282084871443,0,-2,0,-1,0,-1,-1,-1
1528282084871443,-1,-2,-2,0,-2,-3,-4,0
1528282084884351,-1,-3,0,0,-2,-1,-2,-1
1528282084884351,-1,0,1,0,-1,0,-1,-1
1528282084892330,-1,0,-2,0,1,0,-1,0
1528282084892330,1,-1,-2,1,-1,0,-1,-2
1528282084906296,-2,-1,0,0,0,-1,0,-1
1528282084906296,-1,0,-1,-1,-1,2,0,1
1528282084914274,-2,0,0,-2,0,-2,-1,0
1528282084914274,-2,0,-1,-1,0,-1,-1,-2
1528282084930231,-2,0,-1,0,-1,-1,-2,-1
1528282084930231,1,-1,0,0,2,0,0,0
1528282084931230,-1,0,1,0,0,0,-1,0
1528282084931230,-1,0,-1,-1,0,0,1,0
1528282084944769,1,-1,0,-2,-1,1,1,0
1528282084944769,-1,0,0,-2,-1,-2,0,-2
1528282084952504,-1,0,0,0,-1,-1,0,-1
1528282084952504,1,-1,-2,-2,-1,-1,-2,-2
1528282084966710,-2,0,-1,-2,-1,-2,0,0
1528282084966710,1,-2,0,1,-2,-1,0,0
1528282084974689,0,0,-1,-3,-1,0,1,-1
1528282084974689,1,0,0,0,-1,0,-1,0
1528282084990636,-2,-1,-2,-1,1,0,-2,0
1528282084990636,-1,0,-2,-1,-2,0,-3,-2
1528282084990636,-1,0,-1,-1,0,-1,0,0
1528282084990636,0,1,0,-1,-1,-1,0,-1
1528282085004611,0,1,2,-1,-2,-1,0,-1
1528282085004611,-1,-2,-2,-2,0,-2,1,-1
1528282085011675,0,-1,-1,-2,-1,0,0,0
1528282085011675,-1,-2,-1,1,-1,-1,1,0
1528282085026596,0,0,-2,0,0,-1,0,0
1528282085026596,0,-1,1,0,1,-1,0,0
1528282085034575,0,-1,1,-1,0,1,-2,-1
1528282085034575,1,-1,-1,0,0,0,0,-1
1528282085049833,0,-1,-1,1,-1,0,1,0
1528282085049833,-2,1,-1,0,0,-2,-1,-1
1528282085057516,0,-1,-1,1,1,-1,-2,0
1528282085057516,-1,0,-1,1,-1,-2,-2,0
1528282085064524,-1,-1,0,0,-2,0,-1,-1
1528282085064524,-1,-1,-2,-1,-2,0,0,0
1528282085071506,0,-1,-2,-2,-1,-1,-1,0
1528282085071506,-2,0,0,-2,-2,-1,1,-1
1528282085086720,0,0,-2,-1,0,-2,0,-2
1528282085086720,0,0,-2,-1,0,-1,-1,1
1528282085094700,-1,-1,-1,-1,-1,-1,-2,0
1528282085094700,1,-1,0,-2,0,2,0,0
1528282085109433,-1,-3,-1,-2,1,0,-1,0
1528282085109433,-2,-1,0,0,0,0,2,0
1528282085117396,-1,1,1,0,1,-1,0,0
1528282085117396,-1,1,-1,0,1,0,0,2
1528282085124400,1,-1,1,-1,-1,0,1,0
1528282085124400,0,1,-1,-3,0,0,-2,0
1528282085131384,0,0,-2,-1,-2,-2,0,-2
1528282085131384,-1,0,0,0,-1,-3,0,-1
1528282085146303,0,0,0,-1,-1,-2,-2,0
1528282085146303,1,-1,0,0,-1,-1,-1,1
1528282085154284,0,-2,-1,-1,1,1,0,-1
1528282085154284,1,-1,0,1,-2,0,0,-2
1528282085169241,0,0,-1,0,0,0,0,-1
1528282085169241,0,-2,-1,-2,0,-2,-1,-3
1528282085177247,-2,-1,0,-1,-1,-1,1,-3
1528282085177247,-3,-1,0,-1,0,-1,0,0
1528282085184231,-1,-3,-1,0,0,1,-2,1
1528282085184231,-1,-1,-1,-1,-2,0,-2,0
1528282085200162,-1,-2,0,-2,-2,0,-1,-1
1528282085200162,1,0,-2,-2,0,1,-3,-1
1528282085207467,-1,0,-1,-1,-2,0,-2,0
1528282085207467,-1,-2,-1,0,-2,0,0,-2
1528282085214126,0,-2,-1,0,0,-1,0,-1
1528282085214126,-1,-1,-1,-1,-2,-2,-1,0
1528282085229084,-1,0,-2,0,0,-1,0,-1
1528282085229084,-1,-2,-2,-2,-1,0,0,-1
1528282085237989,-3,0,-1,0,-1,1,-1,0
1528282085237989,-1,0,0,-2,1,0,0,-1
1528282085251975,-1,0,-1,-1,-2,-1,-2,-1
1528282085251975,-1,1,0,0,0,-1,-1,1
1528282085252965,0,-1,-1,0,0,-3,-1,0
1528282085252965,-1,0,-2,-1,-1,0,0,-1
1528282085266915,1,-2,-2,0,0,-1,2,1
1528282085266915,0,-2,-1,-1,-1,-1,0,-1
1528282085274285,0,-1,-1,0,-1,0,-1,0
1528282085274285,-1,0,-2,-1,-1,-1,-2,-1
1528282085289924,-2,0,1,0,-1,0,0,0
1528282085289924,0,-1,-2,0,-1,0,-3,-2
1528282085298078,0,0,1,1,0,1,0,1
1528282085298078,-2,-2,0,0,1,-2,-1,-1
1528282085313044,-2,-2,-1,-1,-1,-2,0,0
1528282085313044,-1,0,-1,-1,1,0,0,1
1528282085313807,1,0,-1,-2,-2,-1,0,-1
1528282085313807,-1,0,0,-1,-3,0,1,-2
1528282085327018,-2,0,0,-1,-1,0,-1,-3
1528282085327018,-2,0,0,0,-2,0,1,0
1528282085333736,-1,-1,0,1,0,0,0,0
1528282085333736,2,-3,0,1,0,-2,1,2
1528282085349693,1,-1,-3,0,1,-2,0,1
1528282085349693,0,0,0,-2,1,-2,-1,-2
1528282085357702,0,-1,-2,-2,0,0,-1,0
1528282085357702,-1,-1,-1,-2,-2,0,-1,-2
1528282085372635,0,-1,1,0,-1,1,1,-1
1528282085372635,-3,-3,0,1,0,0,0,-2
1528282085373629,0,-1,2,-1,-1,-3,-2,1
1528282085373629,1,0,-1,-1,0,-1,-2,2
1528282085386629,1,0,-2,-1,-2,-1,1,0
