timestamp,emg1,emg2,emg3,emg4,emg5,emg6,emg7,emg8
1528448466759566,-1,-1,-1,0,-1,0,-1,0
1528448466759566,-1,0,0,-1,0,-1,-2,0
1528448466778515,0,-1,1,-2,-1,0,-1,0
1528448466778515,-1,-1,-1,-1,0,0,-1,0
1528448466780511,0,1,-1,1,0,-1,0,0
1528448466780511,1,-1,-1,1,0,0,1,-1
1528448466795471,0,0,-1,-2,-1,0,-1,-1
1528448466795471,-1,-1,0,1,-1,-2,-1,0
1528448466803450,0,-1,-2,-2,-2,-1,0,1
1528448466803450,-1,-1,0,-1,-1,0,-1,0
1528448466821401,-1,-2,0,0,1,-1,-2,0
1528448466821401,-1,-1,0,-2,-1,-1,-2,-2
1528448466833370,0,-1,-1,-1,-1,-1,-1,0
1528448466833370,-1,1,-1,-3,-1,-1,-1,0
1528448466855347,-1,0,-2,0,-1,-1,-1,0
1528448466855347,-3,-1,0,-1,-2,0,1,0
1528448466863325,0,0,-1,0,0,0,-2,0
1528448466863325,-1,-1,0,1,-1,1,0,0
1528448466870289,1,0,0,1,-2,-1,0,-1
1528448466870289,0,-2,-1,-1,1,-2,-1,-1
1528448466900191,-1,1,0,0,0,-2,-1,-1
1528448466900191,0,1,0,-1,-1,-1,0,-1
1528448466908171,-2,-2,-1,0,0,2,1,-1
1528448466908171,1,-1,0,-1,-1,-1,-1,-1
1528448466915178,0,0,-1,-1,-2,1,-2,1
1528448466915178,-2,-2,-2,1,0,-2,0,-1
1528448466931156,1,-1,-1,-1,-3,-2,-2,1
1528448466931156,1,1,-3,0,-2,1,1,-3
1528448466938089,0,-1,-2,0,0,0,-1,0
1528448466938089,-1,-1,1,0,-3,-2,-2,1
1528448466953050,-1,0,1,-2,-1,0,1,-2
1528448466953050,1,-1,0,0,1,-2,-1,0
1528448466961031,0,-2,-1,0,0,2,0,0
1528448466961031,-2,2,-2,-1,1,1,0,-2
1528448466968012,-1,0,-1,0,0,-1,1,0
1528448466968012,-1,-1,-1,-1,-3,0,-1,0
1528448466976016,0,-1,-1,0,0,0,-1,-1
1528448466976016,0,-2,0,0,1,0,-2,0
1528448466990949,-1,-1,-1,0,1,0,-1,1
1528448466990949,-2,0,1,-1,-2,1,-1,0
1528448466997957,0,0,-1,-1,-2,1,-1,0
1528448466997957,0,0,-1,-1,-1,1,0,-1
1528448467020884,-1,0,-1,0,1,-1,0,0
1528448467020884,0,-1,-1,-1,1,0,-2,-1
1528448467027905,0,-1,1,0,-1,-1,0,-1
1528448467027905,0,-1,1,0,0,-1,0,-1
1528448467035829,0,-1,-1,-1,-1,-1,0,-2
1528448467035829,-1,0,-2,1,-3,1,-1,-2
1528448467050828,-1,-1,-1,-1,-1,-1,0,-1
1528448467050828,-2,0,-3,0,0,-1,-2,0
1528448467065787,-1,0,0,-1,-1,-1,0,-1
1528448467065787,-1,0,-1,-1,1,-1,-1,-1
1528448467080726,-2,0,1,-1,0,2,0,-3
1528448467080726,-1,-2,0,-1,0,-2,1,1
1528448467087730,-1,0,0,0,-3,-2,-2,-1
1528448467087730,0,-1,1,1,-2,-1,0,-2
1528448467095669,1,-2,-1,-1,0,-1,1,2
1528448467095669,-1,0,-2,0,-1,0,-1,-1
1528448467102679,0,0,-2,-1,0,-1,0,0
1528448467102679,-2,0,0,0,-1,1,-1,1
1528448467110673,0,0,0,-2,-2,-3,-3,-1
1528448467110673,-1,0,-1,0,1,0,-1,0
1528448467118655,-1,-1,-1,0,-1,-3,0,1
1528448467118655,1,-1,0,0,0,-1,0,0
1528448467133623,1,2,0,1,0,-1,0,0
1528448467133623,-1,-1,1,-1,0,-1,-1,-2
1528448467140619,-1,0,-1,0,0,0,-1,-2
1528448467140619,0,0,-1,0,0,0,0,-1
1528448467148529,-1,-1,-2,-1,-1,-2,-2,-1
1528448467148529,-1,-1,0,0,-1,0,0,0
1528448467155548,0,0,0,-1,0,2,1,-2
1528448467155548,0,1,-1,-1,-4,-2,0,-1
1528448467170469,-1,0,0,-1,0,1,-2,0
1528448467170469,0,0,-2,-1,-1,-2,0,-1
1528448467178450,-1,-2,-1,-3,0,-2,-1,-1
1528448467178450,0,-1,-1,-1,0,0,-1,-1
1528448467193435,-2,1,1,0,-2,-2,1,-1
1528448467193435,-1,-2,0,-2,-1,-1,0,-1
1528448467200389,-1,-2,2,1,0,0,-2,0
1528448467200389,1,-1,1,-1,-1,-1,-1,-1
1528448467208385,0,-2,-1,-2,-1,0,-2,0
1528448467208385,-1,-1,-1,0,1,0,1,-1
1528448467215351,0,1,-2,0,-1,-1,-1,0
1528448467215351,-3,0,-1,-1,-1,-1,-1,0
1528448467230347,1,0,-3,0,0,1,0,-1
1528448467230347,-1,0,1,-1,-1,0,-2,-1
1528448467238315,1,0,-1,-2,-2,-2,0,-1
1528448467238315,-2,-1,0,-2,-1,-3,0,-1
1528448467253249,0,-1,-1,-1,0,0,1,0
1528448467253249,-1,-1,-1,0,-2,0,0,-2
1528448467260281,0,0,1,0,0,0,-2,-1
1528448467260281,-1,0,-1,-1,0,-1,0,0
1528448467268261,-2,0,0,1,-1,-1,0,-1
1528448467268261,-1,2,-1,1,0,-2,-1,1
1528448467275243,-1,-2,-1,0,0,0,-1,0
1528448467275243,0,-1,0,0,-2,1,-2,0
1528448467291179,1,0,-1,-1,-1,-2,-1,-1
1528448467291179,-1,-1,-2,-1,-1,-1,-1,0
1528448467298130,-2,-1,-2,0,-1,-1,-1,-1
1528448467298130,0,-1,0,0,-1,-1,-2,1
1528448467313090,-1,0,0,-1,-2,-1,-1,0
1528448467313090,0,1,-1,0,-1,-1,-1,0
1528448467328048,0,0,0,-2,1,-2,0,0
1528448467328048,-1,-1,-2,0,1,-1,0,-1
1528448467336028,-1,-1,2,0,-1,0,0,-1
1528448467336028,-1,1,0,-1,0,-2,0,-1
1528448467343010,-1,0,-1,-1,-2,0,-1,-1
1528448467343010,0,0,-1,-1,1,1,0,-1
1528448467357991,-1,0,-1,0,0,0,-1,-3
1528448467357991,-1,-1,-1,-1,-1,1,0,-1
1528448467365972,-1,0,0,0,-2,1,0,0
1528448467365972,1,0,-1,1,0,0,1,-2
1528448467380962,1,-1,-2,0,-1,-1,0,-2
1528448467380962,0,-2,-1,1,-1,0,0,-1
1528448467395915,-1,0,1,0,-2,0,-2,0
1528448467395915,-1,0,0,0,2,-1,-1,-1
1528448467417808,-1,-2,0,0,-1,-1,0,-1
1528448467417808,-1,-2,0,-2,-1,0,0,0
1528448467425787,0,0,-1,-1,0,0,0,-1
1528448467425787,1,-1,-1,0,-2,-2,-1,-1
1528448467440746,-1,-1,-2,-1,1,-1,-2,-2
1528448467440746,0,0,0,-2,0,0,-1,1
1528448467447728,0,0,-1,1,-1,0,-3,-2
1528448467447728,-1,0,-1,-2,-2,-2,-1,-1
1528448467455706,0,0,1,-1,0,-1,-1,0
1528448467455706,-1,0,-2,-1,-2,0,0,-2
1528448467470667,-1,-1,0,-1,-1,0,-2,0
1528448467470667,0,0,-1,0,-1,0,-2,-1
1528448467477648,-1,0,0,0,-1,-1,-1,0
1528448467477648,-2,-2,-2,-2,0,-1,-1,0
1528448467493607,0,-1,0,0,-1,0,-1,-2
1528448467493607,-2,-1,-1,0,-1,1,-2,-1
1528448467500587,0,-2,-2,-1,0,-1,-1,-2
1528448467500587,0,1,-1,1,-1,-1,1,0
1528448467515598,-1,-1,-1,0,0,-1,0,-1
1528448467515598,1,-1,-1,0,-1,0,0,0
1528448467523574,0,0,0,0,-1,-1,0,-1
1528448467523574,1,0,-1,-3,0,-1,0,0
1528448467538488,0,0,0,-1,-2,-1,-1,0
1528448467538488,0,-1,-2,2,-3,-1,-1,-2
1528448467545511,-2,-1,-1,0,1,1,1,0
1528448467545511,0,-1,2,-1,0,-1,-1,0
1528448467560470,0,1,0,-1,1,-1,-2,0
1528448467560470,-1,1,-2,0,0,0,0,1
1528448467568449,-1,0,2,-1,0,-1,-2,-1
1528448467568449,-1,1,0,-1,0,-1,-1,0
1528448467575430,1,-2,-1,0,-1,-2,0,-1
1528448467575430,0,0,0,-1,0,-1,-2,-1
1528448467590394,-1,-2,-1,-1,-2,-1,0,0
1528448467590394,0,0,-1,-1,-1,0,-1,-1
1528448467605308,-1,0,-2,-1,-1,-1,-1,-2
1528448467605308,1,0,-1,0,-2,0,-1,-1
1528448467620266,0,0,0,-1,-1,0,1,0
1528448467620266,-1,-2,-1,-3,1,-1,0,0
1528448467628246,-1,-1,0,0,0,-1,-1,-1
1528448467628246,0,-2,0,2,-2,-1,0,-2
1528448467635226,0,0,-2,0,-1,0,1,-1
1528448467635226,0,-1,1,0,-1,1,0,-2
1528448467643233,0,0,-1,-1,-1,0,-2,0
1528448467643233,0,0,-2,-1,-1,-1,-1,0
1528448467658174,0,-1,-1,-1,-1,1,-1,-1
1528448467658174,-1,-1,0,-1,0,-1,0,0
1528448467673178,0,-2,-2,-2,-2,0,-2,-1
1528448467673178,-1,-2,0,0,-1,0,-2,-1
1528448467681139,-2,1,0,0,-1,-2,0,-1
1528448467681139,-1,0,0,-1,-2,-1,0,0
1528448467688089,-1,0,-2,1,1,-2,-1,-1
1528448467688089,-2,0,-1,-1,0,-2,-2,-1
1528448467696339,0,0,-1,0,-2,0,-2,0
1528448467696339,0,1,1,0,0,0,0,-1
1528448467711351,-1,-1,-1,-2,-2,-1,-1,0
1528448467711351,0,0,-1,1,-1,-1,0,-1
1528448467718604,0,0,-2,-3,0,0,1,1
1528448467718604,0,-1,1,-1,0,-1,-2,0
1528448467733551,0,-1,0,-1,0,1,-1,0
1528448467733551,1,-1,1,-1,1,-1,1,-3
1528448467741391,0,-1,0,-2,0,-1,-2,-1
1528448467741391,0,0,-2,-2,0,1,-1,0
1528448467748515,-1,0,-2,-1,-1,1,1,0
1528448467748515,-1,2,0,0,0,-1,-2,2
1528448467756391,-1,0,0,0,-1,-2,0,-1
1528448467756391,-2,0,-1,1,0,-2,-1,0
1528448467770737,0,-1,-1,-1,-1,-2,-2,0
1528448467770737,-1,-1,-1,-1,-1,-2,2,0
1528448467778866,2,-1,-1,0,-2,-1,0,-1
1528448467778866,-1,-2,-1,-1,-2,-1,0,-2
1528448467793919,-1,0,-1,0,-1,-1,-1,-1
1528448467793919,1,0,-2,-2,0,-2,-1,-1
1528448467808909,-2,-1,1,-1,0,-1,-1,-1
1528448467808909,-2,-1,0,-2,-1,0,0,0
1528448467823869,-1,-1,0,-2,0,1,0,-1
1528448467823869,-1,0,-1,-1,-1,-1,1,0
1528448467831158,0,0,-2,0,0,2,0,-1
1528448467831158,-1,0,0,0,0,-1,0,-1
1528448467846381,0,0,-1,1,0,-2,-2,-1
1528448467846381,-1,-2,-1,0,-2,0,-1,1
1528448467853102,0,0,-2,-1,-1,-1,-1,1
1528448467853102,0,-1,-2,-1,-1,-1,0,-1
1528448467868325,0,-1,-1,0,-1,-1,1,0
1528448467868325,-1,0,0,0,1,-1,0,-1
1528448467883267,-1,1,0,1,-1,-1,-1,0
1528448467883267,-1,-2,-1,0,0,1,-1,0
1528448467898249,0,-1,-2,0,-1,-1,2,-1
1528448467898249,1,-1,1,0,-1,-1,-1,-1
1528448467913199,0,0,-1,-1,1,2,0,-1
1528448467913199,1,0,0,-2,0,0,-1,0
1528448467920246,-1,0,-1,0,0,-1,-1,-1
1528448467920246,-2,0,-2,1,0,0,-1,-1
1528448467935470,0,-1,-1,0,-3,0,-1,-1
1528448467935470,0,-1,-1,-2,-2,-1,0,1
1528448467951317,-1,-1,0,0,1,0,0,0
1528448467951317,-1,1,-2,1,0,-1,0,-1
1528448467966125,0,-1,-1,-1,0,-2,-1,0
1528448467966125,1,2,0,-1,-1,0,-2,-1
1528448467973105,0,-1,0,-1,-1,0,1,-1
1528448467973105,-1,-1,1,-2,-1,0,0,1
1528448467988064,0,-1,-3,0,0,2,0,-1
1528448467988064,0,-2,-2,0,0,0,0,-2
1528448467996332,0,-1,-1,-1,-1,-1,0,-1
1528448467996332,0,-2,-1,-2,-1,-1,-2,-2
1528448468011415,0,-2,-1,-1,-1,-1,0,-1
1528448468011415,0,-1,1,-1,0,-1,2,-2
1528448468025915,-1,-2,-2,-1,0,-1,-2,1
1528448468025915,-1,0,-1,-1,-1,0,0,-2
1528448468033964,-3,0,0,-2,-1,-2,0,-1
1528448468033964,0,-2,0,0,0,0,-1,-2
1528448468048783,1,-1,1,-1,0,0,0,0
1528448468048783,1,0,-1,-1,-2,0,-2,0
1528448468055751,2,-2,-1,-1,-1,0,0,-1
1528448468055751,-2,-1,-2,1,-2,0,1,-1
1528448468070812,-1,-1,0,-1,-1,-1,-1,0
1528448468070812,-1,0,-2,-2,0,-1,-2,0
1528448468085787,-1,-1,-1,0,0,0,3,-1
1528448468085787,-1,1,0,0,-1,-2,1,-1
1528448468092977,-2,-1,0,-2,-1,1,0,-2
1528448468092977,0,0,0,-1,0,0,-2,-1
1528448468108885,0,0,-1,1,-1,-1,-1,-1
1528448468108885,0,0,-1,-2,1,-1,0,0
1528448468115915,0,-1,0,0,0,-1,0,1
1528448468115915,-2,-1,0,0,1,-2,2,0
1528448468130611,2,-1,-1,-1,-1,-1,-1,-2
1528448468130611,-1,1,-2,-2,-1,0,-2,0
1528448468145610,-1,-1,-1,-1,-1,0,-1,-2
1528448468145610,-2,-2,0,-1,-1,-1,0,-1
1528448468153552,-1,0,-1,0,0,-2,-2,0
1528448468153552,0,-2,0,-2,-2,-1,-1,-1
1528448468168749,-3,-1,0,-1,0,0,-2,0
1528448468168749,0,-1,-1,-2,-1,0,0,-1
1528448468183746,0,-1,0,-1,-2,0,-1,0
1528448468183746,0,1,-1,0,1,0,-1,0
1528448468190726,-1,0,-1,0,-1,-2,-2,0
1528448468190726,-2,-1,-1,-1,-1,0,0,0
1528448468205990,-2,-1,-1,-1,-1,0,-1,-1
1528448468205990,1,-2,-1,-1,-1,0,1,-1
1528448468213961,0,1,-1,-2,0,0,0,1
1528448468213961,0,0,-1,-1,0,0,-1,0
1528448468228454,1,-2,-3,-1,0,0,0,-1
1528448468228454,-1,-1,-1,1,-2,-1,0,-1
1528448468243703,-2,0,-1,0,0,-1,1,0
1528448468243703,0,0,0,0,-2,-1,0,-1
1528448468251497,-1,0,0,0,0,0,0,0
1528448468251497,-1,-1,-1,0,-1,0,-1,0
1528448468265331,1,-2,0,0,-1,-1,-1,0
1528448468265331,-2,0,-1,-1,-1,-1,-1,-1
1528448468273600,-1,-2,-1,1,-1,1,1,0
1528448468273600,1,0,-1,-1,0,1,0,0
1528448468288536,-1,0,-1,-1,0,-1,-1,1
1528448468288536,1,-2,0,-1,-1,1,1,0
1528448468295727,-2,0,1,-1,-1,0,-1,-2
1528448468295727,-1,0,0,1,0,-1,-1,-1
1528448468310993,0,-1,-1,-1,0,0,-1,-1
1528448468310993,-1,0,-1,-2,0,0,-1,0
1528448468326113,0,-3,0,-1,-1,-2,0,0
1528448468326113,0,0,1,0,-1,1,0,-1
1528448468334020,-1,-2,1,-1,-1,0,0,1
1528448468334020,-1,0,-1,-1,0,-1,0,-1
1528448468349025,-1,0,-2,-1,-1,-2,-1,-2
1528448468349025,-1,-1,-1,-1,-1,-1,-1,0
1528448468363935,-1,-1,-2,-1,-1,-1,-1,0
1528448468363935,0,-1,-1,-2,0,1,-1,-1
1528448468370877,-1,-1,0,-2,-1,-1,0,-1
1528448468370877,-1,-1,2,0,-2,0,-1,-2
1528448468385838,0,1,-2,0,-1,-2,0,-1
1528448468385838,-1,0,-2,0,-1,-1,-1,0
1528448468393911,-1,0,-2,-1,0,1,-1,1
1528448468393911,0,-2,-1,0,-1,-1,1,0
1528448468408410,1,2,-1,0,-2,0,0,0
1528448468408410,0,-1,0,0,1,-1,-1,-1
1528448468424088,-1,-1,-2,-2,-2,1,0,-2
1528448468424088,-1,-1,-1,-1,0,-1,0,1
1528448468438326,-2,1,-1,0,-1,2,1,0
1528448468438326,-2,-1,-2,-1,0,-1,2,-2
1528448468452968,-1,0,-1,-1,0,-1,-1,0
1528448468452968,-1,0,0,0,0,0,-1,-1
1528448468461209,0,-1,-1,0,-3,-2,-2,-1
1528448468461209,-2,-2,1,-1,-2,-1,0,-1
1528448468475951,0,0,0,-2,0,-2,-1,-3
1528448468475951,-1,1,0,-1,-1,-1,-1,-1
1528448468491106,-2,-1,0,0,-1,-1,1,0
1528448468491106,0,1,-2,1,0,1,-1,-1
1528448468506408,0,0,-2,0,1,-2,0,1
1528448468506408,0,0,2,0,-1,-2,1,0
1528448468513651,0,-3,0,0,0,-2,-1,0
1528448468513651,0,-3,0,0,-1,1,-1,0
1528448468528610,0,0,-1,0,-1,-2,1,-2
1528448468528610,-2,0,-1,-1,-1,-1,0,2
1528448468543573,-1,-1,-1,0,2,-2,-1,-2
1528448468543573,1,0,-1,-1,0,-1,-1,-1
1528448468551407,-1,0,-2,-1,0,0,-1,0
1528448468551407,1,-1,-1,-1,-1,1,0,0
1528448468566078,-1,-1,3,-2,0,0,0,0
1528448468566078,-2,-2,0,0,1,0,0,1
1528448468573888,-1,-1,1,-1,-2,-1,-2,-1
1528448468573888,-1,0,-1,-1,1,0,-1,0
1528448468588662,1,-1,0,-1,-1,-2,-2,-1
1528448468588662,1,-1,-1,0,5,0,1,1
1528448468603323,-1,-2,-1,0,0,-1,-1,-2
1528448468603323,-1,0,0,-2,-2,2,-1,-1
1528448468611414,-2,-2,-2,-3,-2,2,0,0
1528448468611414,-1,-2,-2,-2,-2,-1,-2,-2
1528448468625568,0,-2,0,0,0,-1,1,-2
1528448468625568,0,0,0,0,0,0,-1,0
1528448468633919,-2,-1,-1,0,2,-1,-1,-1
1528448468633919,-1,-1,-1,-1,-2,-1,-1,-3
1528448468648877,0,-1,0,-2,-1,0,3,-1
1528448468648877,-1,-1,1,-1,0,-1,0,0
1528448468663838,-1,-3,-1,-1,-1,1,2,1
1528448468663838,-1,-2,-1,0,0,-1,-2,0
1528448468670781,0,-1,1,1,1,-1,-2,0
1528448468670781,0,-1,0,-1,-1,-1,0,-1
1528448468685745,0,-1,0,-2,-2,-2,-1,-1
1528448468685745,-1,-2,0,-1,0,0,1,0
1528448468692721,0,0,-1,2,-1,-1,1,-2
1528448468692721,0,0,-1,0,-1,-1,0,0
1528448468715659,0,-2,-2,-2,-1,0,-1,-1
1528448468715659,-2,1,-1,0,-1,-4,0,0
1528448468723645,-1,-1,-1,-1,-1,-2,0,0
1528448468723645,-1,-1,-1,-1,-3,-1,0,0
1528448468745631,0,0,-1,0,-2,-2,-1,-1
1528448468745631,2,-1,-1,-2,-2,-2,-1,-1
1528448468768577,-2,-1,-1,0,-1,-1,1,-2
1528448468768577,1,-1,-1,0,1,2,2,0
1528448468775553,-1,-1,-2,-4,-2,-1,-1,0
1528448468775553,-1,0,0,0,-2,-1,-1,-1
1528448468783530,0,0,1,0,0,-1,-1,-1
1528448468783530,0,-1,0,0,-2,-3,-1,-2
1528448468790514,-1,-1,-2,-3,0,3,0,0
1528448468790514,-2,0,0,0,-2,-1,0,-1
1528448468798493,0,-1,0,1,-1,-3,0,0
1528448468798493,0,-1,0,-1,1,-3,-1,0
1528448468813451,-3,-1,-1,0,-1,-1,-1,-1
1528448468813451,0,-2,-1,-1,-1,0,-1,1
1528448468820433,-3,0,0,0,-2,-2,-1,-1
1528448468820433,0,0,-1,0,3,3,-1,-1
1528448468828412,1,0,-2,0,-1,-2,1,1
