timestamp,emg1,emg2,emg3,emg4,emg5,emg6,emg7,emg8
1528878099621875,1,1,7,-1,-10,3,2,3
1528878099621875,0,1,-2,5,0,-3,-2,-3
1528878099628857,7,7,13,10,8,2,4,3
1528878099628857,-3,1,8,26,21,0,-3,-2
1528878099644814,-4,0,24,29,11,6,-1,-3
1528878099644814,0,0,-4,-14,-33,-7,-2,-1
1528878099659973,-2,-4,2,2,38,0,-3,-1
1528878099659973,2,5,7,1,-26,-3,0,1
1528878099666759,-3,-7,-22,-22,-15,0,-2,-1
1528878099666759,0,-6,-15,-17,8,-1,-2,-4
1528878099682131,-1,0,3,7,-12,-3,0,2
1528878099682131,0,2,1,3,-28,0,-1,0
1528878099691073,3,1,-4,8,30,-4,-1,0
1528878099691073,-3,-7,-24,-30,26,1,-2,-1
1528878099704072,3,17,14,-19,-13,-2,0,0
1528878099704072,1,2,14,35,21,-2,0,0
1528878099718999,-5,-8,-20,-24,-4,-2,-1,-2
1528878099718999,-2,-2,3,15,1,6,1,1
1528878099726977,-5,-8,-8,13,16,1,-2,-1
1528878099726977,1,4,5,-12,1,-3,0,1
1528878099742934,4,5,0,-8,-34,5,-1,-1
1528878099742934,-2,-2,10,14,27,-12,-3,-3
1528878099763878,-2,-1,-3,-9,-9,-10,-3,-1
1528878099763878,-4,-14,-10,11,27,11,1,4
1528878099771857,2,6,-25,-26,-53,-6,-1,-3
1528878099771857,1,3,20,14,-9,-4,-2,0
1528878099778837,1,-9,-7,-5,13,1,1,-1
1528878099778837,10,28,27,2,13,-2,4,6
1528878099786869,-9,-1,7,-36,-49,-4,-3,-3
1528878099786869,-2,3,5,7,65,1,-3,-3
1528878099801792,5,-4,-12,-14,-34,-7,0,5
1528878099801792,3,7,-13,1,1,-3,-4,-4
1528878099809756,-7,-18,-18,10,-2,9,2,-4
1528878099809756,7,12,22,-20,-45,-1,4,3
1528878099824717,0,-3,-19,-29,-57,-11,-4,-2
1528878099824717,-24,-21,-14,25,32,11,-3,-10
1528878099831698,3,6,22,-8,30,-2,2,5
1528878099831698,-2,8,-8,22,-24,-4,-2,-6
1528878099839685,4,0,11,-19,42,4,0,1
1528878099839685,3,-3,-6,6,-16,-2,1,4
1528878099846658,7,13,3,2,30,0,3,3
1528878099846658,-20,-27,-17,15,-27,8,-1,-7
1528878099861618,-9,-25,-53,-27,6,-11,-8,-5
1528878099861618,4,18,8,-75,-39,-1,0,-1
1528878099869598,4,9,14,9,3,-3,-3,1
1528878099869598,3,2,-3,31,53,8,1,1
1528878099884556,-3,-10,-8,25,-46,2,1,-2
1528878099884556,-6,-24,-39,-18,14,0,-3,-4
1528878099891538,23,46,87,22,-37,-5,0,2
1528878099891538,-6,-10,-45,-42,29,-1,-2,-1
1528878099899516,-6,10,42,48,79,-3,-3,-2
1528878099899516,-2,-32,-44,-32,-56,-9,2,2
1528878099906497,-15,-14,-21,2,-20,0,0,-4
1528878099906497,18,30,71,38,-57,-7,0,3
1528878099921457,0,14,14,13,56,14,5,2
1528878099921457,15,13,27,36,45,-5,0,1
1528878099929435,-19,-39,-55,-29,-57,-13,-10,-10
1528878099929435,-7,5,-4,-23,-18,-18,-8,-4
1528878099944422,-6,4,30,38,51,16,4,-1
1528878099944422,3,-3,-1,-33,-68,-17,-7,-3
1528878099951413,5,7,-15,11,31,8,2,2
1528878099951413,-8,-25,-26,-13,-25,-5,-1,-2
1528878099959357,-6,5,-3,-22,-2,-1,-2,0
1528878099959357,7,16,37,38,27,0,4,2
1528878099966337,4,0,-17,-33,-1,19,5,3
1528878099966337,-1,-3,2,32,35,5,-3,-4
1528878099981298,3,0,-8,-22,48,-2,-2,-2
1528878099981298,-8,-1,-2,3,5,-1,1,0
1528878099989276,3,0,-3,19,-10,4,1,1
1528878099989276,3,-7,-13,-37,-53,0,2,1
1528878100004236,0,-8,-22,-2,14,-1,-3,-3
1528878100004236,8,26,62,44,50,10,3,4
1528878100019196,-7,-7,-22,-26,41,-3,-2,-2
1528878100019196,6,0,-4,-12,-16,0,0,0
1528878100027174,-14,-11,-21,-6,-40,-11,-4,-7
1528878100027174,-9,-1,4,-21,8,2,1,-1
1528878100034156,20,0,-19,3,40,-3,-4,-3
1528878100034156,-2,-13,-1,-25,-2,0,2,4
1528878100049117,14,22,11,9,-36,-5,2,3
1528878100049117,-14,-11,-3,-11,31,20,6,0
1528878100057095,-2,12,24,24,-26,-4,-2,-2
1528878100057095,1,-4,12,57,22,-5,-5,2
1528878100064122,5,5,-12,-17,9,12,5,2
1528878100064122,-6,-12,-16,-7,-7,-5,-7,-1
1528878100072054,1,-3,-1,17,1,-5,1,0
1528878100072054,5,2,-6,-38,-4,5,3,1
1528878100079035,11,14,33,10,13,15,5,5
1528878100079035,8,6,-6,6,-10,-12,-2,0
1528878100087016,-13,-4,-8,1,-32,-6,-5,-5
1528878100087016,-2,-9,-17,18,22,0,1,-1
1528878100101975,1,9,31,16,26,-5,0,2
1528878100101975,-6,-7,-7,16,-55,2,-3,-4
1528878100108955,-1,-6,-6,4,14,0,1,3
1528878100108955,-8,-5,-2,2,42,1,-2,-4
1528878100123927,8,5,8,12,4,-4,-1,0
1528878100123927,-2,0,-5,-14,-33,-5,-3,-4
1528878100131894,0,-4,-4,-4,24,7,4,8
1528878100131894,-15,11,20,19,-8,5,0,-5
1528878100138876,16,-9,4,29,-7,-5,-4,-2
1528878100138876,2,10,19,-18,-3,4,2,1
1528878100146854,-8,-2,-1,10,40,5,1,-3
1528878100146854,2,-4,-11,-33,-37,-10,-1,0
1528878100161814,-5,-7,-20,-40,-8,2,0,-1
1528878100161814,-10,-2,-7,12,24,-1,0,0
1528878100168796,-1,-8,-13,-14,-35,-4,0,-2
1528878100168796,18,15,23,12,24,7,-1,0
1528878100184753,-22,-6,-8,-17,9,-3,-3,-1
1528878100184753,17,-5,-16,3,5,2,-3,-1
1528878100191735,-6,7,7,-8,-8,1,-1,0
1528878100191735,-7,-13,-20,-23,13,-5,-3,-5
1528878100199713,-4,-2,12,7,-21,-2,3,0
1528878100199713,8,6,-1,-3,-11,0,2,0
1528878100206695,0,-5,-2,21,29,1,-8,-6
1528878100206695,-1,7,9,-7,-2,-5,-2,-1
1528878100221655,3,-4,-3,-2,-48,-6,-2,1
1528878100221655,-35,-12,-13,-19,-21,-4,1,-5
1528878100229633,32,8,4,-5,-27,-4,-4,-2
1528878100229633,-25,-11,-9,-3,1,-3,0,-2
1528878100244596,3,7,-4,-6,-18,-2,-3,1
1528878100244596,6,0,-3,-4,14,1,1,3
1528878100251575,-6,-3,1,-7,26,1,0,-1
1528878100251575,-1,-5,-9,4,26,9,-4,-5
1528878100259553,-4,-4,16,1,-8,-8,-1,-2
1528878100259553,-8,1,2,1,-42,-3,-6,-6
1528878100274771,18,-5,-9,-10,3,-5,-12,7
1528878100274771,0,0,-5,-1,-1,3,4,-8
1528878100281785,-4,2,0,-1,9,-6,-1,2
1528878100281785,6,7,0,2,28,-3,1,-2
1528878100296938,-12,-5,-1,-1,3,9,9,-16
1528878100296938,-2,-8,-6,-6,-24,31,-11,11
1528878100304712,6,3,-1,-3,-16,-19,-3,6
1528878100304712,5,6,1,5,52,11,12,-11
1528878100319648,-9,5,10,12,-76,-6,5,-4
1528878100319648,-13,-8,-10,-9,40,-4,-5,-12
1528878100327540,6,-12,5,-2,-33,-1,-21,-2
1528878100327540,12,4,8,15,49,7,15,20
1528878100342084,-4,-5,-18,-8,-27,1,-6,53
1528878100342084,13,8,20,7,13,-2,15,-65
1528878100357131,1,11,-3,0,23,-5,-7,31
1528878100357131,15,-2,-1,-11,-62,-13,9,30
1528878100364103,3,8,12,14,41,15,17,3
1528878100364103,-14,-23,0,2,7,-20,-17,9
1528878100380144,-20,-15,2,5,39,9,1,-12
1528878100380144,9,14,-6,-4,-6,4,-9,15
1528878100395113,-15,-6,11,6,5,-9,-5,-5
1528878100395113,10,3,-7,-20,-89,-3,-17,3
1528878100409818,3,20,8,6,17,4,17,11
1528878100409818,-24,-36,-4,-1,-5,-1,-44,-33
1528878100424755,-22,-13,3,-4,10,9,30,3
1528878100424755,26,9,-10,1,8,-12,13,-13
1528878100432506,-9,5,15,4,-28,-13,10,-1
1528878100432506,5,-7,-29,-24,18,14,8,23
1528878100447065,-12,-21,-9,-2,27,-14,-19,-24
1528878100447065,-4,16,-3,5,21,-16,-44,-12
1528878100461339,25,14,-13,3,13,2,-4,-1
1528878100461339,-23,5,-30,-11,1,8,9,11
1528878100476861,41,20,26,-1,-32,-26,-18,0
1528878100476861,-37,-56,4,5,3,2,-15,-47
1528878100484590,11,61,19,7,12,20,4,15
1528878100484590,-1,-5,4,-3,-25,-5,21,5
1528878100499816,-16,-17,-3,-16,-26,27,-6,-19
1528878100499816,13,-9,-8,-8,-64,-2,-24,19
1528878100515015,-46,-29,-14,1,14,29,11,8
1528878100515015,-9,-35,-17,-12,-48,0,12,6
1528878100522100,5,7,13,7,12,-2,-5,-18
1528878100522100,11,25,17,12,-12,2,0,-3
1528878100537046,-31,-16,-11,-19,21,0,-15,-17
1528878100537046,-20,-35,-68,-20,7,-16,-19,4
1528878100544781,11,14,-32,-17,-34,-12,4,-5
1528878100544781,-11,-8,15,9,55,16,16,3
1528878100559366,-48,-5,-15,1,11,3,-18,-45
1528878100559366,-2,16,32,18,7,-11,8,4
1528878100575013,14,14,-9,34,30,0,-1,9
1528878100575013,-1,8,-9,-52,-30,-16,-2,-14
1528878100581999,6,-38,-14,2,24,-8,5,17
1528878100581999,-10,-4,4,-8,-55,-21,-19,-5
1528878100597267,-5,12,12,11,43,-6,11,0
1528878100597267,-14,-7,9,6,12,33,-6,2
1528878100604239,-10,-29,-27,-9,62,18,11,16
1528878100604239,-5,-15,-42,-31,-72,-3,6,-4
1528878100619836,-46,-31,-15,-26,-84,-19,-7,-9
1528878100619836,36,-21,-52,-25,5,9,8,11
1528878100634266,18,8,-5,-17,-48,-26,-17,-15
1528878100634266,3,15,-11,-13,3,-5,9,1
1528878100642249,12,1,25,27,19,-2,-6,-5
1528878100642249,-15,-3,4,-13,8,-1,8,6
1528878100657202,2,-16,-18,-7,-2,3,-1,-4
1528878100657202,-10,20,11,-5,-2,9,-1,-15
1528878100664453,35,8,1,6,-20,-30,8,26
1528878100664453,9,5,-1,5,41,20,0,2
1528878100679405,6,-3,14,19,52,4,5,-5
1528878100679405,-14,2,13,0,13,4,0,-14
1528878100694365,-1,-20,-42,-5,-24,12,-1,-1
1528878100694365,15,44,22,3,-6,-19,4,11
1528878100701345,10,-2,4,-17,-20,-3,0,-3
1528878100701345,-2,-4,-3,25,-21,-7,3,5
1528878100717454,1,-6,1,-31,4,-1,0,5
1528878100717454,-7,-23,-12,19,21,-5,-10,-17
1528878100724284,9,9,-10,-4,-4,9,5,2
1528878100724284,3,8,7,-5,-15,10,8,6
1528878100739578,5,15,21,9,-22,8,-2,-6
1528878100739578,-14,-11,31,20,29,14,3,-4
1528878100762425,-3,-7,2,-11,-17,-9,-16,-7
1528878100762425,-3,-8,-13,-12,-13,10,-2,7
1528878100769943,3,1,11,10,33,5,13,-2
1528878100769943,11,7,1,17,43,-8,2,-2
1528878100784132,-22,-18,-19,-24,-25,-1,-6,1
1528878100784132,30,11,5,7,21,0,-4,-3
1528878100792127,-10,6,6,5,3,-4,-3,3
1528878100792127,-8,-10,-5,-20,-58,-20,-8,3
1528878100807142,0,-7,-1,-16,-43,-3,-4,-3
1528878100807142,9,14,20,11,19,21,5,4
1528878100822358,0,-6,-9,2,49,6,-7,-9
1528878100822358,-9,-2,-2,-7,-17,-3,5,3
1528878100837347,16,8,-4,-4,-14,3,3,5
1528878100837347,-7,1,5,2,17,12,0,3
1528878100844957,0,-1,-3,5,11,5,-2,-3
1528878100844957,2,-4,2,3,6,-8,-3,-2
1528878100858859,-8,-2,-6,-9,-16,10,4,0
1528878100858859,14,0,1,10,26,-4,0,4
1528878100875095,6,9,-5,4,38,10,-12,-4
1528878100875095,-7,0,9,1,-20,5,7,-5
1528878100882318,5,-6,-9,-6,-18,-10,-3,7
1528878100882318,-4,0,-3,-5,2,-11,-1,-7
1528878100897272,-3,-5,-1,4,4,6,5,-1
1528878100897272,2,-1,-5,1,27,4,-6,5
1528878100904564,0,-2,0,-1,2,-2,9,4
1528878100904564,0,1,0,-1,-7,-7,-13,-7
1528878100919656,-2,-3,-1,-5,6,-6,1,-2
1528878100919656,-3,0,-3,-2,-5,-5,0,2
1528878100934667,0,1,-2,4,15,-3,6,-3
1528878100934667,-1,0,0,-8,-3,16,-3,3
1528878100942174,-1,-1,-1,3,-5,-5,-4,1
1528878100942174,0,-1,-5,-3,-2,3,-1,-1
1528878100957162,0,0,-3,-4,0,-1,3,2
1528878100957162,1,2,4,2,12,3,0,-4
1528878100964498,2,2,-2,-5,-17,-10,-4,-2
1528878100964498,0,1,-1,3,19,9,4,2
1528878100980181,-1,-3,-1,-4,-12,6,-1,1
1528878100980181,-1,0,-3,-2,-9,-1,-3,-4
1528878100994823,-1,-1,0,2,3,7,-1,-1
1528878100994823,-2,-1,-2,3,8,6,-1,0
1528878101002514,0,-1,1,0,8,4,-3,-5
1528878101002514,-1,-1,-2,-3,-9,-4,2,4
1528878101017526,2,2,4,1,-2,-9,1,0
1528878101017526,-1,0,2,2,3,-21,0,-1
1528878101024690,-1,-2,-2,-3,-2,-17,0,-2
1528878101024690,1,-1,-1,-3,3,-18,0,1
1528878101039909,-1,-2,-1,-1,-4,1,-3,-3
1528878101039909,0,2,1,0,-3,12,-1,0
1528878101054609,-1,0,1,-1,2,14,-2,-1
1528878101054609,0,0,-2,-1,-9,12,0,-2
1528878101069829,0,-1,0,1,10,10,-5,-2
1528878101069829,-1,-2,-2,-5,-4,7,1,0
1528878101084539,0,-1,-4,-3,-4,3,3,0
1528878101084539,-1,1,-1,1,1,1,-2,-4
1528878101091512,1,1,2,-3,-2,3,2,0
1528878101091512,0,1,1,6,0,-2,0,-5
1528878101106470,1,4,12,-2,-5,-3,-2,1
1528878101106470,0,-2,0,4,-2,1,2,0
1528878101121456,-3,-1,-4,2,0,1,-1,-2
1528878101121456,-3,-6,-8,-1,5,11,6,2
1528878101136446,2,7,15,4,-2,-3,-3,-2
1528878101136446,-1,-1,-8,-10,-1,-2,-1,-1
1528878101144424,-1,-1,-1,4,1,-5,-2,-4
1528878101144424,-3,-3,-2,-3,-2,-2,0,0
1528878101159384,-2,-1,-3,-5,-4,1,2,1
1528878101159384,-1,0,-8,-3,2,-3,-3,-4
1528878101174347,-2,-1,5,4,-1,1,0,3
1528878101174347,1,3,8,6,3,-3,-2,-1
1528878101181325,0,-3,-6,2,2,-2,-1,-1
1528878101181325,-1,-4,-3,-7,-5,-4,0,-1
1528878101197228,-3,-3,-16,-13,-3,-4,-1,-3
1528878101197228,1,4,10,11,4,1,0,-2
1528878101204264,2,2,4,5,4,1,0,0
1528878101204264,-1,1,2,-2,-3,-6,-1,-1
1528878101219224,-1,-3,-2,-3,-1,-1,-1,0
1528878101219224,-1,1,-1,3,0,-3,-2,-1
1528878101234130,-2,1,6,-2,-1,0,-1,-2
1528878101234130,-1,-1,-1,-1,-1,-1,-1,1
1528878101242164,-2,-2,-4,-4,-3,0,-1,-3
1528878101242164,0,-1,1,1,-1,0,0,0
1528878101257068,0,0,-2,2,0,-1,-1,-2
1528878101257068,2,1,0,-1,1,0,-1,-1
1528878101264105,0,-2,-2,1,0,0,-2,0
1528878101264105,-2,0,-1,-4,-4,-2,-2,-1
1528878101279009,3,2,-10,-1,-1,-1,0,1
1528878101279009,0,2,18,6,-1,1,0,1
1528878101294021,1,0,-1,0,-1,0,0,-1
1528878101294021,0,0,-4,-8,0,-4,-1,-1
1528878101302003,-5,-3,-5,-5,-4,0,-1,-3
1528878101302003,0,3,-1,1,-6,-3,-2,0
1528878101316909,0,-3,-1,0,11,1,-1,-1
1528878101316909,-1,-2,-2,-2,1,1,-1,-1
1528878101323890,0,0,4,6,1,-1,0,0
1528878101323890,2,-1,-1,-2,3,-2,1,0
1528878101338850,-1,-1,1,3,-4,-1,-1,1
1528878101338850,-1,-2,-2,-1,0,0,2,-1
1528878101346829,1,2,3,-1,-1,0,-2,-1
1528878101346829,-1,-3,0,-1,0,2,2,1
1528878101361789,-1,-2,0,-5,-1,-2,1,0
1528878101361789,0,0,-1,-1,-2,-1,-2,-2
1528878101376749,1,-2,1,1,-1,0,0,-1
1528878101376749,-2,1,-2,-4,6,-2,1,-1
1528878101384728,-2,-1,-2,2,-9,1,-2,-2
1528878101384728,-1,-1,-2,0,2,-1,-2,0
1528878101399960,0,-2,-2,0,5,-2,-1,-1
1528878101399960,1,0,1,0,-6,-1,0,0
1528878101406924,-1,-2,-1,-1,3,-2,0,0
1528878101406924,0,1,-2,-1,1,-1,0,1
1528878101422213,-2,-1,-1,-1,1,0,0,0
1528878101422213,0,-2,-1,0,-5,-1,0,0
1528878101437167,-2,-1,1,0,0,0,0,0
1528878101437167,0,1,-2,-3,-2,0,-1,0
1528878101444459,0,-1,0,-2,-1,-1,1,-1
1528878101444459,0,-1,-1,0,-1,-1,-3,-3
1528878101459514,0,0,-1,0,-3,0,0,0
1528878101459514,0,-2,-1,0,0,3,1,1
1528878101474628,0,-2,0,0,-2,-3,-1,0
1528878101474628,-1,-2,-1,-1,2,-1,0,-1
1528878101489814,0,0,0,0,1,0,0,0
1528878101489814,0,0,-2,-1,0,0,0,1
1528878101505015,-1,-2,-2,-1,-4,-2,-1,-2
1528878101505015,-1,0,-1,-1,-1,-1,2,-1
1528878101512358,-2,-2,-1,-2,-1,-2,0,-1
1528878101512358,0,-1,0,-1,-1,0,0,1
1528878101519995,0,0,-1,-1,-1,0,-1,1
1528878101519995,-1,-1,0,-1,0,-1,-1,-2
1528878101527033,0,0,0,0,0,1,0,-2
1528878101527033,-2,-1,0,-1,-1,-1,-1,-2
1528878101542365,1,1,-1,-1,1,-1,0,0
1528878101542365,-1,0,0,-1,-1,-1,0,-1
1528878101556902,-1,-2,1,0,-1,1,-1,0
1528878101556902,-1,2,0,0,0,-2,-2,-1
1528878101565105,-1,-2,-1,-3,-1,-1,-1,1
1528878101565105,-1,0,-3,-1,-1,0,0,0
1528878101579983,-1,0,-1,-1,-1,0,0,1
1528878101579983,1,-2,-1,-1,-2,-1,0,-2
1528878101587087,0,0,-1,0,0,-1,0,0
1528878101587087,0,0,0,-1,0,0,0,1
1528878101602449,-1,-1,0,0,-1,-1,1,-2
1528878101602449,0,-1,-1,-1,-1,-1,0,-2
1528878101617394,0,1,-1,1,-1,-1,-2,0
1528878101617394,-1,-1,-1,0,-1,1,0,-1
1528878101624409,1,0,-2,0,0,-1,0,-2
1528878101624409,-2,0,0,0,0,0,-1,-2
1528878101639723,-1,1,1,-1,-1,-1,0,-1
1528878101639723,-2,-2,-1,-1,-1,0,0,-1
1528878101654259,1,0,0,-2,-1,0,0,-1
1528878101654259,1,0,0,1,-1,0,0,0
1528878101670016,-1,-1,0,0,0,0,-2,0
1528878101670016,-1,-3,0,0,0,-1,1,1
1528878101684265,0,-2,-2,-1,0,0,-1,1
1528878101684265,0,1,-2,-1,-1,-1,0,-2
1528878101692554,0,-2,-1,-1,-1,0,-1,-1
1528878101692554,0,-1,0,-1,0,-1,1,0
1528878101699128,-2,0,1,0,-1,1,0,1
1528878101699128,-2,0,-1,0,0,-1,-1,-1
1528878101706838,0,-1,-1,0,0,-2,0,-1
1528878101706838,-1,-1,-2,-2,-2,-1,-1,-2
1528878101721848,-2,0,0,-1,0,0,0,0
1528878101721848,0,-1,0,0,-1,0,0,1
1528878101737018,0,0,-2,0,-1,-1,0,-2
1528878101737018,-1,0,0,-1,-2,1,-1,0
1528878101745012,0,-1,-2,0,0,-2,-1,-1
1528878101745012,-1,-1,-1,1,-1,-1,0,1
1528878101759965,0,-1,-1,-2,1,0,0,-2
1528878101759965,-1,1,1,0,0,0,0,-1
1528878101766906,0,0,0,-2,0,0,0,-1
1528878101766906,-2,1,-1,-1,0,-1,-1,-1
1528878101782450,-1,-1,-1,-1,1,-1,0,1
1528878101782450,-1,0,-2,-1,-1,-2,-1,-2
1528878101796751,-2,-1,-2,-1,0,-1,1,1
1528878101796751,0,-3,-1,-1,-1,1,-1,0
1528878101804598,-1,-1,0,1,-3,0,0,0
1528878101804598,-1,0,2,0,0,0,-1,-1
1528878101819710,0,-1,-2,1,-2,-1,0,-1
1528878101819710,-1,1,0,-2,0,-2,1,1
1528878101827225,-1,-1,2,0,0,0,-1,0
1528878101827225,-1,-1,0,-1,0,0,-2,-2
1528878101841602,-1,-1,-1,0,1,0,-1,0
1528878101841602,0,0,-1,-2,-1,-1,-1,0
1528878101856788,-2,0,-2,-2,0,-1,0,0
