timestamp,emg1,emg2,emg3,emg4,emg5,emg6,emg7,emg8
1528878099587966,2,2,15,-31,3,3,2,2
1528878099587966,-1,2,9,1,13,6,0,0
1528878099593951,-1,-2,-23,3,-10,-7,-3,-2
1528878099593951,1,1,24,21,-3,3,2,0
1528878099602927,-1,-5,6,26,20,2,-1,0
1528878099602927,3,9,-24,-2,-16,-6,-2,-1
1528878099616898,-5,-15,-9,-29,-19,-6,-3,-2
1528878099616898,-4,0,6,-16,8,8,4,-3
1528878099625873,0,-2,1,43,-8,-6,-2,0
1528878099625873,1,10,-8,-75,5,-2,1,1
1528878099647819,1,2,34,51,-3,-1,0,0
1528878099647819,-7,-7,-64,-55,2,-4,-5,-6
1528878099649800,0,9,38,11,-20,-10,-6,-1
1528878099649800,-5,-13,-7,21,-11,-4,-5,-4
1528878099661994,0,4,-31,-38,-1,0,-3,-1
1528878099661994,0,-13,18,11,-2,4,5,4
1528878099671006,-6,-2,-14,-16,3,-3,-7,-4
1528878099671006,6,8,-14,12,-4,-6,0,-1
1528878099686086,-3,0,30,-15,-6,4,-1,-1
1528878099686086,0,0,29,-20,-3,-3,-2,0
1528878099687085,-4,-8,-37,22,-4,-2,1,-2
1528878099687085,1,2,18,6,18,5,2,1
1528878099708031,-2,3,4,45,-5,6,-1,-1
1528878099708031,2,-3,3,-50,1,0,4,2
1528878099710022,-1,-7,-40,11,1,1,-4,-2
1528878099710022,-2,6,45,-15,-16,-4,-2,-1
1528878099721990,-3,-9,-54,-1,8,-5,-5,-4
1528878099721990,1,5,-1,-44,-24,-10,-3,-1
1528878099730967,-2,-5,-2,37,-3,-2,-3,-4
1528878099730967,-6,-13,-16,-49,-25,-17,-7,-4
1528878099745926,3,11,17,67,37,2,-9,-1
1528878099745926,2,7,34,8,-9,15,5,5
1528878099746924,1,4,8,11,36,14,10,-2
1528878099746924,4,-2,-3,-17,-5,-1,-43,1
1528878099767867,-2,-6,10,6,22,10,47,6
1528878099767867,-4,-4,-19,2,-18,-23,-24,-7
1528878099769862,-3,-2,25,-6,-14,-4,4,-1
1528878099769862,0,-10,-30,-39,-2,5,4,1
1528878099781830,2,-1,-23,-56,-53,-29,-11,0
1528878099781830,-2,-1,-7,69,68,17,5,-3
1528878099790807,4,2,8,-36,-11,10,-1,2
1528878099790807,-1,4,72,35,6,7,17,0
1528878099805766,-6,-12,-47,0,6,1,-13,-8
1528878099805766,4,9,-16,37,-20,-25,14,5
1528878099807760,0,7,87,11,15,19,-6,-3
1528878099807760,-1,-1,-30,-16,37,14,3,0
1528878099827709,0,2,57,78,11,3,2,1
1528878099827709,-2,-6,-42,-85,-38,-17,-5,-3
1528878099829704,0,-2,4,15,-36,-10,-1,-1
1528878099829704,6,-2,-83,75,61,8,22,8
1528878099841671,-7,8,93,-56,-20,3,-15,-9
1528878099841671,-2,-4,-47,58,65,-6,-50,-12
1528878099850648,1,2,4,-69,-29,-14,3,8
1528878099850648,-10,-22,-107,28,31,40,39,-11
1528878099866624,1,2,33,23,-70,-28,11,4
1528878099866624,-4,-10,33,45,80,29,0,2
1528878099869598,-1,-3,-47,24,5,-21,-5,4
1528878099869598,-3,0,-13,14,-3,-15,-30,-13
1528878099888546,6,9,23,35,2,-25,-27,1
1528878099888546,-1,10,58,7,-63,-47,63,-15
1528878099889543,-7,-12,-4,-42,-9,1,30,1
1528878099889543,5,8,18,37,16,81,26,10
1528878099901521,1,-4,-35,19,85,92,40,7
1528878099901521,-8,-32,-27,10,-22,-20,-16,-1
1528878099910487,-1,4,-11,-94,-33,-50,-57,-16
1528878099910487,1,3,43,-60,-50,-38,17,17
1528878099925447,-10,14,-11,15,23,-2,-21,-30
1528878099925447,0,4,-2,47,-13,1,-22,6
1528878099927457,4,-1,44,-30,-4,-8,-40,-9
1528878099927457,-12,-30,-58,-29,-33,-6,15,-3
1528878099948413,5,13,14,-40,-39,6,50,12
1528878099948413,4,9,19,-53,31,9,0,6
1528878099949410,3,4,-48,84,25,28,51,3
1528878099949410,1,13,105,5,-3,-22,-43,-4
1528878099961404,-5,-20,-48,5,-4,-18,-10,-2
1528878099961404,-2,-8,-53,-93,-42,11,-7,-2
1528878099970326,6,12,27,82,26,20,32,9
1528878099970326,-5,-10,-51,-7,-13,-20,-41,-20
1528878099985287,-6,-10,-9,-50,5,-13,16,2
1528878099985287,6,18,27,11,-11,6,-36,5
1528878099987282,-11,-16,-51,-22,17,16,13,-7
1528878099987282,0,11,39,11,-32,-7,8,2
1528878100008226,5,2,-11,28,38,3,-17,6
1528878100008226,2,3,31,0,21,13,-6,-4
1528878100010221,3,10,25,-58,-19,-8,14,4
1528878100010221,-10,-20,-52,20,-22,-23,-35,-11
1528878100022187,-1,-10,-32,-9,-19,-13,-23,-4
1528878100022187,1,7,15,-20,11,-1,11,2
1528878100031164,-2,-5,-26,0,-30,-9,-22,-4
1528878100031164,0,9,67,51,-4,9,12,2
1528878100045128,6,-3,13,-32,26,-1,-10,3
1528878100045128,-4,-6,-31,12,-39,1,-13,-2
1528878100052108,-1,14,3,-11,28,-11,-16,-4
1528878100052108,-5,-12,-3,-6,26,26,50,3
1528878100068066,1,4,39,-7,-25,-18,2,3
1528878100068066,1,0,-66,-9,-17,18,7,-3
1528878100070060,-5,-7,55,-7,5,-5,-15,-5
1528878100070060,3,5,1,-3,13,-15,-11,1
1528878100082028,-3,3,10,-3,-16,-5,-21,-3
1528878100082028,-1,-3,-17,-18,-10,-7,29,0
1528878100091004,0,-1,-30,7,36,18,-10,1
1528878100091004,-2,-5,-25,-5,-17,-20,11,1
1528878100105964,-3,-3,43,2,-5,-2,-2,-4
1528878100105964,-4,-5,-41,-4,-5,-6,-10,-3
1528878100106961,-5,-11,20,36,-16,-10,3,0
1528878100106961,2,5,13,3,14,-7,-18,-3
1528878100127905,1,-5,-52,-40,5,6,5,3
1528878100127905,0,5,51,31,36,14,15,2
1528878100129900,-3,1,0,29,-23,-11,-17,-3
1528878100129900,0,8,64,19,-2,-10,2,-3
1528878100141868,-2,0,26,-50,-17,13,7,-2
1528878100141868,-1,-1,-18,10,2,-14,-9,-2
1528878100150844,2,6,61,19,14,5,5,4
1528878100150844,2,-7,-29,-16,-9,6,-13,-4
1528878100165805,1,1,-43,-15,1,-8,12,-4
1528878100165805,-2,-9,-20,-6,-10,-12,-47,-2
1528878100166802,0,-1,25,-6,2,22,30,5
1528878100166802,4,3,-45,10,0,-11,-8,5
1528878100187745,-5,-5,31,10,2,-9,-15,1
1528878100187745,-1,8,51,10,1,6,-7,-6
1528878100189753,-10,-19,-48,-20,-11,-10,-6,5
1528878100189753,0,-3,16,-20,10,-12,-19,-22
1528878100201708,-2,6,-54,-5,-5,10,9,-4
1528878100201708,3,15,36,19,9,3,23,2
1528878100210684,2,-8,-7,-12,-15,8,-4,-2
1528878100210684,0,13,46,21,20,14,16,11
1528878100224647,-12,-23,-51,-4,-11,-21,-23,2
1528878100224647,8,-11,35,8,-19,-6,12,-19
1528878100233628,4,14,-10,1,6,19,18,-2
1528878100233628,-28,-24,21,4,3,-15,-11,-8
1528878100248583,23,24,-7,16,-1,1,-26,-5
1528878100248583,7,-22,0,-17,-6,23,30,22
1528878100249581,2,9,-9,7,-10,-29,23,-4
1528878100249581,10,24,-13,-44,-10,37,10,10
1528878100261548,-13,-6,44,12,-4,-10,-1,1
1528878100261548,-41,1,62,32,7,-7,-29,-23
1528878100276799,4,2,-84,-29,-7,10,16,1
1528878100276799,-1,17,13,15,8,-8,-11,0
1528878100284743,0,-49,-31,-1,-9,4,2,10
1528878100284743,-12,1,53,15,0,-5,12,6
1528878100291756,14,13,-8,-12,18,15,1,5
1528878100291756,-22,-20,-65,-10,-22,4,13,-3
1528878100307716,11,3,-21,7,14,-13,-18,9
1528878100307716,-5,-16,-2,-3,-7,8,-9,-16
1528878100309674,8,-24,17,7,4,-14,32,4
1528878100309674,10,21,67,20,15,-3,-28,-13
1528878100321643,-5,-14,32,-2,5,-5,-9,-10
1528878100321643,-3,0,-26,-2,10,-14,-7,-1
1528878100331627,-9,-5,-48,-41,-8,1,-8,-1
1528878100331627,17,-5,-33,4,-29,2,4,13
1528878100345070,-18,-4,17,4,-7,-35,-50,-24
1528878100345070,-14,19,43,-5,-5,-1,57,3
1528878100359120,19,-2,-68,5,4,-10,-31,9
1528878100359120,-9,-14,68,33,17,30,-17,-5
1528878100368041,-12,3,-63,-32,-16,27,42,-2
1528878100368041,8,15,-43,-17,-1,-24,-14,-20
1528878100370037,-10,-9,24,24,13,-19,-30,-9
1528878100370037,6,-13,53,-9,-32,-62,-8,-6
1528878100382354,-9,12,-42,6,36,31,11,1
1528878100382354,13,-22,24,-13,-16,-24,-30,10
1528878100390982,-7,31,-20,-4,-2,17,15,2
1528878100390982,-5,32,6,9,-12,-39,-26,-10
1528878100405400,15,48,40,-15,-11,13,16,6
1528878100405400,-1,24,-37,-12,-38,-30,-11,0
1528878100412663,0,-15,3,16,43,68,33,0
1528878100412663,0,-13,-8,-12,-5,-25,-9,7
1528878100428113,5,-46,23,18,-7,35,79,11
1528878100428113,7,-16,-72,-5,22,51,18,10
1528878100430462,-11,-23,18,15,-2,6,3,-3
1528878100430462,6,-13,54,21,16,8,7,10
1528878100451053,-9,-2,-11,-27,-36,-71,-59,-31
1528878100451053,7,-13,-64,-6,5,18,20,17
1528878100452051,-2,35,58,-8,-48,-45,-29,-12
1528878100452051,4,-6,-26,-12,10,46,44,9
1528878100465330,0,-47,-34,12,2,-24,-27,-2
1528878100465330,-8,10,-39,-7,5,-70,-92,-26
1528878100471622,-16,-35,7,-23,-28,64,68,-3
1528878100471622,-13,-34,-89,-14,17,-15,-39,-19
1528878100488842,12,42,35,22,35,41,19,15
1528878100488842,6,13,45,9,-20,12,38,14
1528878100489578,-8,-13,-40,-23,-4,-24,-24,-8
1528878100489578,6,18,-5,-16,-15,-25,-17,4
1528878100511134,-12,1,14,-7,-20,-8,-12,-18
1528878100511134,-1,-19,-15,23,35,7,-43,-13
1528878100512164,5,13,12,23,3,-52,-2,1
1528878100512164,7,7,3,-43,-27,38,4,12
1528878100524835,8,-8,-58,18,54,42,3,6
1528878100524835,4,34,4,-31,-46,-31,-7,3
1528878100531844,-3,-12,-64,3,20,22,39,0
1528878100531844,6,34,66,30,5,7,35,8
1528878100547082,-1,28,7,18,25,26,-8,3
1528878100547082,7,62,2,9,2,23,21,5
1528878100556617,4,-32,34,-5,-5,-38,-50,7
1528878100556617,-3,-10,1,15,27,49,33,-2
1528878100571167,3,15,59,25,6,-4,7,8
1528878100571167,-11,-5,13,3,-13,-34,-32,-14
1528878100572803,-6,26,7,-11,-17,-34,-32,-8
1528878100572803,-3,4,-11,-26,-37,-28,-5,-7
1528878100593013,-3,2,58,27,-11,-31,-25,-8
1528878100593013,-5,-28,-35,-56,-37,8,48,-6
1528878100595007,-6,-26,-17,5,4,12,-10,-2
1528878100595007,-5,-13,-13,-23,-11,-32,-21,-9
1528878100607235,-1,4,5,-4,-24,12,40,9
1528878100607235,7,-14,49,-4,7,17,20,15
1528878100615683,-2,1,-8,-18,-17,-11,-13,-9
1528878100615683,1,-7,-35,-2,8,62,58,12
1528878100631409,-4,-13,-33,-17,-18,-36,-19,-4
1528878100631409,-3,-5,-10,21,13,-44,-27,-5
1528878100632269,-4,-14,19,-9,-27,-10,-10,-5
1528878100632269,7,40,-40,-8,20,3,-46,0
1528878100653214,0,-2,-8,-19,12,51,97,8
1528878100653214,-2,-13,11,31,12,29,11,2
1528878100655213,5,21,4,-25,-12,-11,-16,1
1528878100655213,-15,-18,-56,-1,1,-43,-26,-16
1528878100667430,-5,-4,21,5,-10,-15,-40,-13
1528878100667430,1,3,-1,-9,16,21,-10,2
1528878100676395,0,18,52,27,2,7,13,-1
1528878100676395,-1,-7,37,-6,5,1,14,1
1528878100690376,-4,-1,-17,-31,-17,-32,-27,-9
1528878100690376,0,-24,-53,2,-3,12,12,6
1528878100692371,-1,4,11,-18,6,6,-26,-5
1528878100692371,-3,-15,8,10,-4,0,19,-2
1528878100713653,7,16,1,11,2,-4,-9,4
1528878100713653,-2,-18,86,-5,2,17,9,20
1528878100715611,-4,-18,17,1,3,10,20,-11
1528878100715611,-1,-1,-59,-8,-12,-18,-34,-5
1528878100726300,3,7,16,14,8,-12,-11,0
1528878100726300,-1,2,-4,7,10,2,-1,-4
1528878100736266,0,4,5,7,15,-17,-47,5
1528878100736266,-1,-1,-20,0,-2,31,72,2
1528878100750478,-2,-6,-17,-14,-5,-16,-32,0
1528878100750478,-3,-3,-21,1,0,5,26,-8
1528878100757195,-2,7,2,-11,4,-4,-32,-2
1528878100757195,-1,6,51,36,4,-7,-10,-4
1528878100781167,0,-5,6,-33,-12,14,32,4
1528878100781167,-3,-1,-33,6,3,2,-1,-4
1528878100782925,3,10,60,15,11,-3,7,1
1528878100782925,-2,-3,-80,-3,-2,-5,-9,-1
1528878100787141,-1,-17,16,-2,-3,0,4,1
1528878100787141,1,-5,-14,17,-4,-5,4,1
1528878100795884,0,5,-13,-14,7,19,11,0
1528878100795884,1,-11,-7,-13,-14,-1,1,2
1528878100810478,-2,-4,11,7,2,5,3,-2
1528878100810478,-1,7,-8,-2,-7,-3,-5,-4
1528878100817355,3,2,11,36,18,21,12,3
1528878100817355,-1,-12,-11,-1,2,-11,-7,2
1528878100833336,-4,4,-31,-50,-9,4,-10,-4
1528878100833336,2,1,-5,6,-3,3,5,3
1528878100835066,-3,-9,26,6,-6,1,7,0
1528878100835066,-1,0,24,-9,-4,-7,-5,1
1528878100847136,1,4,-1,13,-1,-9,-18,-5
1528878100847136,7,-6,5,-10,7,4,-1,5
1528878100855867,-1,4,-39,-8,-3,-6,-5,-4
1528878100855867,4,2,41,14,1,1,18,3
1528878100870445,-1,-7,-18,-1,13,15,3,1
1528878100870445,-2,0,30,5,1,0,1,-3
1528878100877326,-2,-4,-8,0,-6,-5,-1,-1
1528878100877326,-1,-3,39,-3,-1,-1,0,0
1528878100893283,-1,3,-10,1,-2,-1,2,-3
1528878100893283,-3,-2,4,-9,-1,-3,-4,-6
1528878100895034,0,1,-7,13,3,2,1,5
1528878100895034,-3,0,6,-11,1,-2,-11,-3
1528878100916465,0,1,30,24,9,0,3,0
1528878100916465,-4,-3,-11,0,0,-2,-9,-3
1528878100917263,-3,-7,-15,-3,-7,0,5,-2
1528878100917263,1,0,5,2,10,1,-3,0
1528878100930754,-2,-8,4,2,-4,-1,1,0
1528878100930754,-1,-11,-48,-9,1,8,11,1
1528878100937638,0,-1,-35,-9,1,-1,-2,-1
1528878100937638,-3,-2,15,1,-3,-2,-4,-4
1528878100953905,0,5,8,5,-6,-4,2,1
1528878100953905,-1,9,15,3,2,-5,0,0
1528878100954870,-1,3,-20,-15,-2,0,5,-1
1528878100954870,-5,1,0,3,-2,-2,-10,-5
1528878100975992,-1,1,-9,-2,-4,-5,-2,1
1528878100975992,2,3,0,-10,-9,-1,-4,-1
1528878100978157,-1,0,-1,5,1,0,0,-2
1528878100978157,-1,-1,12,2,-1,-1,-1,-2
1528878100990707,-2,-4,-21,-3,-1,0,-1,-2
1528878100990707,-1,1,21,-4,-4,-3,-4,-1
1528878100997706,0,-2,1,3,-1,0,-1,0
1528878100997706,-1,-3,-10,0,8,4,-2,0
1528878101021139,-5,-6,-9,-10,-10,-4,-3,-1
1528878101021139,1,0,-6,6,11,3,-1,0
1528878101023088,3,4,4,3,-1,-2,0,0
1528878101023088,-4,-11,-6,8,7,0,-1,1
1528878101035923,-1,-1,-12,-2,-4,-4,-3,-2
1528878101035923,-1,-2,20,-10,-6,-5,-3,-3
1528878101037924,-1,0,-8,-5,0,2,0,-1
1528878101037924,1,2,4,2,-7,-5,-3,-2
1528878101049886,1,0,-1,6,4,1,0,-1
1528878101049886,4,12,9,2,6,1,0,0
1528878101058599,-5,-13,-10,8,-7,-4,-1,-3
1528878101058599,4,10,-3,-3,5,-3,-5,0
1528878101073590,-7,-14,-3,-7,-4,-3,-1,-4
1528878101073590,0,3,17,-7,-10,-2,-2,-3
1528878101074722,-1,-4,-19,-2,6,2,0,0
1528878101074722,-2,-2,13,5,-3,-2,0,-2
1528878101095501,3,6,-19,-6,2,-1,-1,0
1528878101095501,-2,1,13,5,2,-2,-3,1
1528878101097495,-2,-4,5,1,-2,-2,1,-1
1528878101097495,-3,-7,-7,-12,-12,-2,-4,-2
1528878101118439,-1,1,0,2,1,-2,-1,0
1528878101118439,-3,-8,-8,5,-1,1,-2,-3
1528878101118439,-1,2,6,-4,0,-1,0,-2
1528878101118439,0,0,-7,-1,-4,0,0,-1
1528878101132456,0,0,5,-4,-5,-1,0,-1
1528878101132456,0,-4,-12,-7,-7,-3,-4,-1
1528878101133452,0,1,4,6,3,-2,-2,0
1528878101133452,-1,-1,4,0,1,1,0,-2
1528878101155395,0,-2,-1,3,3,-1,-1,2
1528878101155395,-2,-2,-2,0,-3,-1,-2,-1
1528878101155395,1,4,7,-1,-1,1,-1,0
1528878101155395,-1,-3,-6,-10,-8,-3,-2,-3
1528878101178337,2,1,-9,2,0,0,-2,1
1528878101178337,-4,-9,-10,-2,1,1,0,0
1528878101179331,-1,-1,4,-3,-4,-2,-1,-2
1528878101179331,0,3,3,1,0,-1,1,0
1528878101192297,0,0,0,0,-3,-3,-2,-2
1528878101192297,-1,1,0,-2,3,1,-1,-1
1528878101193238,1,2,7,1,0,-1,-1,2
1528878101193238,1,-5,-1,4,4,0,0,-2
1528878101215234,0,1,8,0,0,-2,-1,-1
1528878101215234,-2,-4,-18,-6,-3,-4,-4,-1
1528878101216233,0,-1,-1,-6,-4,-3,-2,-1
1528878101216233,-2,0,0,6,-1,-2,-1,-1
1528878101238173,-2,-3,-12,-2,-1,-2,-2,-1
1528878101238173,-1,1,6,0,-2,-2,-2,-1
1528878101239170,-1,-1,14,3,2,0,0,0
1528878101239170,-1,-4,-19,-11,-5,-2,-2,0
1528878101252136,-2,-4,-25,-4,-1,-1,0,0
1528878101252136,-1,-3,8,2,-1,1,0,0
1528878101253078,0,1,-4,3,2,2,0,-1
1528878101253078,-2,-1,12,0,-1,-3,0,-1
1528878101276032,-1,1,12,3,1,-1,-1,-2
1528878101276032,-1,-2,-10,-6,-5,-2,0,0
1528878101277035,-2,0,3,-3,2,-1,1,0
1528878101277035,-1,-3,5,4,0,-1,-1,-2
1528878101298015,0,0,2,-3,0,0,-2,-1
1528878101298015,1,4,6,14,4,-1,1,-1
1528878101298956,-2,-7,-17,-15,-19,-6,-3,-2
1528878101298956,-4,-2,-4,-5,9,3,-2,-2
1528878101312919,1,2,5,7,2,-2,-1,-1
1528878101312919,-2,-5,-17,-11,-4,-1,1,-1
1528878101312919,-2,2,-8,1,1,1,-4,-1
1528878101312919,0,-2,-35,13,1,1,1,0
1528878101334861,-2,-4,6,1,0,-2,1,0
1528878101334861,-1,0,16,17,7,1,-2,-1
1528878101335858,-1,-3,1,-4,-3,-2,0,0
1528878101335858,2,5,19,-5,-3,-1,-1,0
1528878101348823,2,0,-23,-4,2,4,0,-2
1528878101348823,-3,-6,13,-10,-8,-4,-1,1
1528878101357799,0,0,21,11,4,0,-1,0
1528878101357799,-1,-3,-52,-12,-3,-2,-1,-1
1528878101372759,-1,-1,29,-1,-3,-3,-2,-2
1528878101372759,-1,-1,-13,-6,-3,0,-1,-2
1528878101373757,-3,-3,8,1,1,0,0,-3
1528878101373757,-1,1,13,2,-1,1,0,2
1528878101394702,-2,-1,-4,-5,-4,-3,-2,-2
1528878101394702,-2,0,-8,-9,0,2,0,-1
1528878101395697,-1,-2,-14,9,2,0,-1,-1
1528878101395697,-1,-1,20,-2,-7,-3,-2,-1
1528878101409662,-2,-4,-10,-5,-2,0,-1,-1
1528878101409662,-1,0,9,0,-1,0,-3,-2
1528878101417962,1,0,-5,-2,0,-1,0,0
1528878101417962,-1,-2,-2,-4,-5,-3,-1,-1
1528878101433184,-1,0,37,4,-3,-1,-2,-1
1528878101433184,1,-4,-27,-3,0,-1,-1,-2
1528878101433184,-2,-4,4,-1,-4,-1,0,-1
1528878101433184,-1,0,-15,-1,-1,-3,-2,0
1528878101455492,2,-1,3,3,0,1,1,-1
1528878101455492,-1,0,-7,-3,-1,-2,0,1
1528878101456159,-2,1,5,-1,0,1,-1,-1
1528878101456159,-2,-1,12,-2,-1,1,0,-1
1528878101469597,0,0,-15,-4,-1,0,-2,2
1528878101469597,0,2,10,0,-1,-2,0,-3
1528878101477575,-1,-4,-21,-7,0,-1,-3,0
1528878101477575,-1,-3,17,0,-1,2,0,-2
1528878101492806,-2,-1,-11,-2,0,-2,-2,1
1528878101492806,-1,0,7,3,-1,-1,0,-1
1528878101493788,0,1,0,-2,-1,0,0,0
1528878101493788,0,-2,-8,-3,-2,0,0,-2
1528878101515338,-2,-2,3,0,1,-1,-1,-1
