timestamp,emg1,emg2,emg3,emg4,emg5,emg6,emg7,emg8
1528873444541822,0,0,-1,0,-1,0,0,1
1528873444541822,-3,-1,0,-1,1,-1,-1,-1
1528873444549813,-1,-1,0,-1,-1,-1,-1,-1
1528873444549813,-1,-1,-2,0,0,-1,1,-2
1528873444556784,1,-1,-1,-1,-1,-1,-2,-3
1528873444556784,-1,-1,-1,-1,-2,-1,-1,-1
1528873444564787,0,-1,-2,-2,-1,0,0,0
1528873444564787,0,0,-2,-2,-1,0,0,1
1528873444580718,-1,0,0,-1,-1,1,-2,-1
1528873444580718,0,0,-1,1,-1,0,0,-1
1528873444587698,0,-1,0,-1,0,-1,-1,-2
1528873444587698,1,-3,-1,0,-1,0,-2,-1
1528873444594680,-3,-8,-4,1,0,-2,-2,-1
1528873444594680,-2,-2,-3,-3,0,-2,0,-2
1528873444609640,5,20,9,2,4,0,1,0
1528873444609640,3,12,11,5,2,1,3,1
1528873444616622,3,1,0,1,0,1,1,0
1528873444616622,-4,-9,-2,-3,-2,-2,-2,-1
1528873444634576,-5,-11,-7,1,-1,0,-2,-3
1528873444634576,-5,-5,-5,-8,-3,-2,-1,-1
1528873444639563,-2,-1,0,0,-2,-2,-1,-1
1528873444639563,1,-2,-1,-1,0,0,-1,1
1528873444662499,0,0,1,0,1,-1,0,0
1528873444662499,-1,1,0,-1,-5,-2,0,-1
1528873444677460,-3,-2,0,0,0,-1,-1,-2
1528873444677460,-1,-4,-1,0,1,-1,-3,-1
1528873444687435,-1,-1,-2,-1,1,0,0,-1
1528873444687435,-3,-19,-4,3,3,-1,-2,-3
1528873444699403,-1,-2,-8,-12,-15,-6,-1,-2
1528873444699403,-2,13,0,-4,-8,-2,-2,-1
1528873444714362,6,0,1,-3,-6,-1,1,2
1528873444714362,-2,12,5,6,2,-1,1,2
1528873444729322,2,-1,21,7,1,-3,-2,-3
1528873444729322,-8,-20,-9,-8,-1,-1,-1,-1
1528873444740292,-6,-1,-6,-9,-4,-2,-2,-4
1528873444740292,0,-9,-10,-1,-4,-4,-3,-3
1528873444752259,-7,-10,-17,-12,-4,-1,-1,0
1528873444752259,-1,18,11,6,-3,-2,-2,-2
1528873444759240,-1,-4,-3,-3,-1,-1,-1,-2
1528873444759240,-2,-7,-5,-4,-1,1,-2,1
1528873444774200,2,39,10,0,-3,-1,0,-1
1528873444774200,12,27,18,5,4,3,0,3
1528873444790158,0,-8,-1,2,2,1,2,5
1528873444790158,-7,-31,-12,0,4,1,-3,0
1528873444797140,-4,8,-2,-8,-5,-4,-1,-3
1528873444797140,6,34,16,8,0,-1,-1,-1
1528873444812099,2,-6,-5,0,1,0,-1,0
1528873444812099,-6,-19,-8,-5,0,-1,1,-3
1528873444819107,-5,-23,-7,-6,-2,0,0,0
1528873444819107,0,17,12,-2,-2,0,-2,-1
1528873444849998,-3,-7,-4,2,1,-2,-3,-1
1528873444849998,-6,-22,-12,-2,-2,-1,-1,-1
1528873444856980,-2,-7,-2,2,1,1,-1,-1
1528873444856980,0,9,4,0,-1,1,0,0
1528873444864961,-1,30,13,2,2,2,3,1
1528873444864961,19,13,4,-2,0,0,1,2
1528873444871939,-8,-18,-3,3,1,1,0,-2
1528873444871939,-6,-13,-8,-3,-3,-1,-1,1
1528873444879917,-9,-21,-10,-3,-1,-3,-4,-7
1528873444879917,16,5,1,4,1,2,4,8
1528873444894880,2,31,9,-1,-2,-1,0,0
1528873444894880,1,-4,0,0,-1,-2,0,-2
1528873444901861,-9,-23,-5,-8,-5,-2,0,-2
1528873444901861,-13,1,-2,-5,0,0,-3,-5
1528873444916865,11,3,-8,-1,-2,-3,0,-1
1528873444916865,6,16,8,4,5,1,3,1
1528873444931829,1,-5,1,6,2,2,0,0
1528873444931829,-7,-16,-5,-5,-3,-3,-1,-1
1528873444946741,7,-1,-20,-8,-1,-1,0,2
1528873444946741,10,44,45,14,2,2,0,2
1528873444961701,1,-5,3,-1,0,1,0,-1
1528873444961701,-7,-21,-13,0,1,0,-3,0
1528873444969679,0,9,6,-2,1,2,-2,-1
1528873444969679,-5,-9,-13,-7,-3,-8,-2,0
1528873444984638,3,13,5,3,0,-7,-4,2
1528873444984638,-10,-12,-11,0,-3,-1,-1,-6
1528873445000150,1,11,2,-8,-3,1,3,-1
1528873445000150,-3,7,8,6,0,-2,-5,-2
1528873445014888,-3,-12,-9,-5,0,-1,-3,0
1528873445014888,0,5,2,1,1,3,0,-2
1528873445021881,2,-2,-8,-8,-2,1,0,1
1528873445021881,-3,-5,-4,2,-1,-4,-1,-1
1528873445036800,-1,10,7,5,2,3,-1,-4
1528873445036800,1,3,-26,-11,-6,-4,1,0
1528873445044779,-1,-7,23,14,4,-2,-1,0
1528873445044779,-3,6,14,-4,1,4,1,0
1528873445059790,-5,-24,-21,-11,-6,1,-1,-3
1528873445059790,-4,5,-1,-3,-4,-7,-3,-4
1528873445081679,1,4,5,-4,-12,-7,-4,-3
1528873445081679,0,-6,-2,-3,3,1,-5,1
1528873445089686,-3,0,0,7,4,1,7,-1
1528873445089686,-1,-6,1,6,-4,2,1,-1
1528873445104654,1,3,-3,-11,-1,-3,-2,-2
1528873445104654,0,0,2,2,-1,1,6,4
1528873445119577,1,5,4,5,2,-2,-8,-3
1528873445119577,-1,-4,-4,-3,4,0,0,-1
1528873445126558,3,4,1,-4,-1,1,2,1
1528873445126558,2,-4,-18,-6,-5,2,2,1
1528873445142537,-2,-3,0,-1,-3,-4,-4,-2
1528873445142537,0,4,11,10,4,0,-4,-1
1528873445149537,1,2,-1,-3,-5,1,2,3
1528873445149537,-2,-5,-16,-18,-5,0,2,-2
1528873445164512,7,2,-2,-3,-4,-2,-3,1
1528873445164512,-1,-4,1,7,-1,-1,0,2
1528873445179417,-2,-3,-9,-2,1,2,-1,0
1528873445179417,-2,3,11,5,-3,-4,-5,-4
1528873445194397,1,0,3,6,-2,1,3,1
1528873445194397,-2,-4,-8,-11,-3,-1,-2,-1
1528873445202357,-3,0,4,-2,0,-1,-5,-1
1528873445202357,-1,-5,-7,-2,3,4,6,3
1528873445217343,-3,-1,2,5,2,2,-6,-5
1528873445217343,5,0,1,-3,-1,-7,2,3
1528873445224298,-4,-3,-5,-4,-12,-19,0,2
1528873445224298,-1,-3,7,6,0,-1,-10,-6
1528873445239287,2,7,12,-1,7,9,5,1
1528873445239287,-4,-6,-12,-9,1,0,-1,-1
1528873445254217,-2,-2,-7,-6,-4,0,2,2
1528873445254217,-2,-3,2,-2,-3,1,-3,-3
1528873445262196,2,4,-6,-2,0,4,0,-1
1528873445262196,0,-3,-3,2,3,-4,-1,0
1528873445277156,3,-3,3,7,-1,-3,-4,1
1528873445277156,0,11,29,3,-7,-1,2,-1
1528873445285237,-2,-3,-4,4,4,2,0,-3
1528873445285237,3,2,-1,-3,3,2,-2,5
1528873445299098,2,0,4,5,-6,-20,-6,-1
1528873445299098,-8,-6,-3,-1,0,0,1,-3
1528873445322037,8,5,7,-2,-2,-9,-5,-2
1528873445322037,1,2,-3,-1,0,3,0,2
1528873445337227,-7,1,7,4,5,8,1,-3
1528873445337227,-11,-10,-14,-3,-1,-2,-8,-5
1528873445352210,21,7,4,3,2,1,6,7
1528873445352210,-14,0,-4,-1,0,2,1,0
1528873445360260,-11,-8,-7,-7,-6,-4,-7,-12
1528873445360260,11,3,1,-3,1,1,2,1
1528873445375279,-20,-8,-4,5,-1,1,4,-1
1528873445375279,-6,-2,-3,-6,-5,1,-3,-2
1528873445381942,4,-3,-1,-1,2,2,1,2
1528873445381942,-9,-8,-17,-10,1,2,1,-2
1528873445419885,5,29,89,47,-5,-4,-3,1
1528873445419885,0,5,15,-17,-4,-3,3,-1
1528873445427223,0,-11,-23,-18,-2,2,-1,0
1528873445427223,10,5,3,5,-5,-10,-2,0
1528873445450254,-17,-10,-22,-10,-2,0,-1,-1
1528873445450254,-1,-7,-8,5,0,-3,-2,-2
1528873445457471,14,14,13,1,4,6,2,4
1528873445457471,-4,0,11,10,11,12,3,1
1528873445464075,4,0,-7,-24,-12,-6,-4,0
1528873445464075,-3,0,1,11,6,5,3,1
1528873445472055,-3,-10,-22,-25,-4,3,-1,-3
1528873445472055,4,6,-8,-8,-9,3,3,0
1528873445487013,3,-2,-11,-3,-1,5,1,0
1528873445487013,1,3,13,4,9,5,3,2
1528873445494994,-3,1,-8,-1,8,6,3,-1
1528873445494994,1,-9,-5,-2,-3,-3,-2,1
1528873445502009,-5,0,2,8,-2,-5,-2,-2
1528873445502009,3,6,4,-5,1,0,2,-1
1528873445516934,11,-1,3,12,5,0,1,6
1528873445516934,6,5,9,2,3,2,-1,-1
1528873445525261,0,0,1,5,3,-1,1,4
1528873445525261,-5,-2,-6,-10,-8,-4,-2,-5
1528873445540309,-11,-1,-5,-9,-5,-1,2,-2
1528873445540309,2,1,4,4,7,-5,-12,-5
1528873445547201,10,-1,-3,4,-2,-1,2,3
1528873445547201,-2,0,0,-5,-9,-5,-5,2
1528873445555288,2,1,-2,-1,2,2,-4,4
1528873445555288,-8,-7,-5,0,-1,1,2,-12
1528873445562138,-2,-1,1,-1,-7,-1,3,0
1528873445562138,-1,-3,-2,-2,2,-12,5,2
1528873445577312,-4,2,-2,-3,-4,-15,-15,-10
1528873445577312,-1,-4,-1,-4,-2,3,3,4
1528873445585287,0,-2,0,0,-3,0,-1,-1
1528873445585287,1,0,1,0,-4,5,-5,-3
1528873445600285,1,-2,-2,-2,9,7,6,2
1528873445600285,-4,-1,-3,-1,-6,-8,-1,1
1528873445607543,-2,-5,-5,-1,-9,-1,-2,-4
1528873445607543,4,3,8,4,1,0,3,3
1528873445615293,-3,0,-5,-3,5,-1,0,-3
1528873445615293,-1,-3,-10,-9,3,8,6,4
1528873445630221,0,-4,-6,2,0,1,-4,-1
1528873445630221,1,2,5,1,-4,-2,-5,-4
1528873445644228,-2,-1,-5,-2,-10,-10,-4,0
1528873445644228,-1,1,4,2,1,0,-3,1
1528873445652163,0,-5,-11,-1,3,4,4,-2
1528873445652163,1,-4,-3,0,0,-1,3,1
1528873445667123,1,1,7,2,-1,-4,-2,-3
1528873445667123,0,-2,-6,0,6,-4,-1,1
1528873445675314,-2,0,2,1,-3,4,5,1
1528873445675314,0,0,0,1,3,-2,0,-1
1528873445682110,-1,1,4,2,-7,-7,-11,-3
1528873445682110,-8,-2,1,0,-2,-3,-10,-17
1528873445697056,8,-2,-5,-4,-2,7,10,18
1528873445697056,-3,-1,2,3,7,8,4,-4
1528873445705076,-5,1,5,2,9,0,0,-2
1528873445705076,-30,-9,-4,-2,1,-4,9,-5
1528873445727485,15,-2,-6,-5,-9,14,-8,-2
1528873445727485,-1,0,6,1,-26,-23,-22,2
1528873445735317,9,1,-3,-8,2,-16,11,-18
1528873445735317,15,2,-2,-1,-5,7,-12,23
1528873445742487,-29,-8,-2,2,20,10,27,-24
1528873445742487,22,9,7,2,6,-8,9,41
1528873445749478,-5,6,5,6,-1,3,-6,-8
1528873445749478,0,-3,-2,-2,10,2,-7,-2
1528873445764729,-3,-6,-4,1,-2,-5,-2,7
1528873445764729,9,3,0,1,17,5,4,-3
1528873445779703,1,5,9,5,0,3,-11,0
1528873445779703,-6,-4,-6,-3,-2,2,12,-8
1528873445787690,-4,0,-1,1,3,0,-14,6
1528873445787690,7,1,2,1,-17,6,-1,-3
1528873445794401,-1,-6,-7,-5,15,-5,1,-3
1528873445794401,5,4,3,1,13,-12,-7,-1
1528873445809399,7,4,4,10,38,21,14,9
1528873445809399,-6,-3,-3,-6,-31,-15,-3,-4
1528873445824360,0,-1,0,-2,3,1,-3,1
1528873445824360,-3,2,4,1,-10,3,2,-5
1528873445832339,-1,-2,1,-1,-4,2,1,0
1528873445832339,4,-1,-2,-2,9,-4,2,0
1528873445854242,0,-1,0,-1,-3,4,-1,1
1528873445854242,-4,-5,-5,-3,-3,-1,1,-3
1528873445862221,0,0,1,1,0,-4,-9,0
1528873445862221,-6,-20,-34,-12,-8,2,-1,-6
1528873445869202,0,6,21,3,-7,-6,-2,0
1528873445869202,4,9,2,-1,12,17,7,3
1528873445885379,-1,1,-3,-3,8,2,-2,0
1528873445885379,4,9,17,7,-5,-19,-7,-1
1528873445892140,-4,-13,-16,2,0,12,3,-2
1528873445892140,0,-6,-7,-2,2,-1,-1,1
1528873445900302,5,7,7,3,-5,1,1,1
1528873445900302,-5,-6,-9,-8,5,6,0,-2
1528873445915357,1,0,-2,-8,-24,-7,0,5
1528873445915357,-12,-1,2,2,9,7,9,-4
1528873445929670,23,4,4,0,-10,-5,-11,8
1528873445929670,-11,-1,2,7,27,7,4,7
1528873445937561,14,-5,-7,-2,-19,-3,-4,-6
1528873445937561,9,5,5,2,0,0,-4,-1
1528873445952602,-9,-2,-2,-1,-2,-4,9,-2
1528873445952602,-3,-5,-7,-4,-6,1,0,-2
1528873445960062,-7,2,4,4,6,-6,-5,-1
1528873445960062,-2,2,7,6,9,6,-1,1
1528873445974761,-7,1,2,0,4,-6,-6,-2
1528873445974761,3,0,1,0,-4,2,2,-1
1528873445990262,-2,-3,-6,-4,-1,3,0,1
1528873445990262,-6,0,1,-3,-6,-9,-2,-4
1528873445997017,-1,1,0,-1,6,-3,-2,0
1528873445997017,3,-1,-2,-2,-14,2,-1,1
1528873446019947,-1,0,-2,-1,-1,-6,-1,-2
1528873446019947,-2,0,0,-1,-5,-4,-3,-5
1528873446026902,2,-1,0,0,10,3,2,2
1528873446026902,-4,-2,-1,-3,-11,0,-4,-2
1528873446041892,-1,-1,2,0,-11,-4,0,0
1528873446041892,-3,0,-1,1,12,6,3,-1
1528873446056866,2,-1,3,0,-3,-2,-2,1
1528873446056866,-1,-5,-3,0,3,0,-1,-2
1528873446064852,-1,3,0,1,2,2,1,-1
1528873446064852,0,0,0,-2,-7,-1,-1,-2
1528873446079812,-1,1,-1,-1,3,4,2,1
1528873446079812,1,1,1,1,-4,-3,-1,0
1528873446094736,-1,0,0,0,-1,-4,1,-1
1528873446094736,1,-3,-4,1,8,6,0,0
1528873446109727,0,1,1,-3,-9,-2,0,-1
1528873446109727,-2,0,-2,0,1,-4,-2,-1
1528873446116713,1,-1,0,-1,-1,-1,0,0
1528873446116713,-1,-1,0,1,3,0,-2,0
1528873446139601,0,0,-1,-1,2,0,0,0
1528873446139601,0,-1,1,-1,-6,-3,-1,-1
1528873446146582,-1,-1,-3,0,0,0,1,0
1528873446146582,-2,0,0,0,0,0,-1,1
1528873446162539,-1,-1,0,-1,-1,0,1,-1
1528873446162539,-2,-1,0,-1,-3,-2,-1,0
1528873446177500,0,0,0,-3,1,1,-1,0
1528873446177500,-2,0,-1,-1,-8,0,-1,-1
1528873446184481,-2,0,0,-1,3,-1,1,1
1528873446184481,0,-1,1,0,4,3,1,0
1528873446199441,-2,0,0,1,-4,-1,-1,0
1528873446199441,1,2,1,0,3,1,0,2
1528873446214401,-3,-7,-8,-1,-1,0,-1,-3
1528873446214401,-1,1,4,0,2,-1,-2,1
1528873446229361,-3,-5,-4,-3,-3,-1,0,0
1528873446229361,0,0,0,-4,-9,-5,-3,0
1528873446237340,2,4,4,2,2,4,-1,1
1528873446237340,0,-4,-4,-2,-2,-1,-2,-1
1528873446259281,-1,0,0,1,-1,0,-1,2
1528873446259281,0,-4,-6,1,-1,-2,-1,-1
1528873446267260,0,1,5,-1,0,0,0,0
1528873446267260,-1,-1,3,0,-2,-2,0,-1
1528873446282220,1,1,-4,-3,0,-1,-1,-1
1528873446282220,-1,-2,-5,0,0,0,0,0
1528873446297178,1,9,11,0,-1,0,-1,0
1528873446297178,-1,-1,-1,-2,-2,3,1,0
1528873446304160,-2,-3,-2,0,4,0,0,0
1528873446304160,0,-4,-10,-7,-5,-3,-1,-1
1528873446327101,0,-1,0,0,-4,-2,-2,0
1528873446327101,-2,-3,-8,-1,0,1,1,0
1528873446342090,-1,0,1,1,0,-1,-1,1
1528873446342090,0,2,-1,-3,-1,-3,0,-1
1528873446365208,0,-2,-1,1,-1,-2,0,0
1528873446365208,-2,-4,-4,0,0,1,0,-2
1528873446372027,-2,-1,6,1,-1,1,1,-1
1528873446372027,0,1,1,1,0,0,1,2
1528873446386987,0,-5,-10,-7,0,1,1,2
1528873446386987,1,1,4,3,0,-2,-1,-2
1528873446401944,-1,-1,-1,0,-2,-2,-1,-1
1528873446401944,-3,-1,-2,-2,0,0,0,-1
1528873446417156,-1,0,-1,-3,-1,-1,-2,-1
1528873446417156,1,-1,3,-2,0,-1,-2,0
1528873446432115,0,0,1,-1,0,-1,0,0
1528873446432115,0,-2,-1,-2,1,0,-1,-2
1528873446440286,1,-3,-4,0,-1,-2,0,-1
1528873446440286,-2,-2,-2,0,-8,-1,0,-2
1528873446455055,-1,0,1,2,9,2,1,-1
1528873446455055,-3,-1,3,-1,0,0,-1,-1
1528873446470015,0,1,-2,-1,-2,0,1,-1
1528873446470015,-1,0,8,4,3,1,-2,1
1528873446476998,1,2,-5,-3,-7,-4,-1,0
1528873446476998,1,-1,-5,0,1,-2,-1,0
1528873446492207,-2,0,1,-1,-2,0,0,-2
1528873446492207,-4,-5,-9,-3,0,-1,0,-2
1528873446499988,0,-3,3,0,-1,-1,-1,-2
1528873446499988,-1,4,5,2,1,-1,-1,1
1528873446514949,-1,-2,-1,-1,0,-2,-2,-1
1528873446514949,0,-2,-2,0,1,-1,0,-1
1528873446529905,-1,-1,1,1,-2,-1,-1,-1
1528873446529905,-1,-1,-2,-2,-1,-1,0,1
1528873446537056,-1,1,2,0,-1,1,-1,-2
1528873446537056,0,0,-3,-2,-1,0,0,-1
1528873446552919,0,1,-2,-2,-1,-1,0,0
1528873446552919,2,-1,-1,-1,1,-2,-1,-1
1528873446560303,1,0,-1,1,-3,1,0,1
1528873446560303,-1,-1,0,-1,1,1,-1,1
1528873446575422,0,-2,1,0,1,1,1,-1
1528873446575422,-1,1,1,1,-2,0,1,-1
1528873446589994,1,-1,1,0,1,-1,0,-1
1528873446589994,-1,-2,-2,0,0,-1,-2,-1
1528873446597301,-1,0,0,-1,-3,-1,0,-2
1528873446597301,0,-1,-1,-1,-1,-1,0,-2
1528873446611627,-1,0,-2,-1,-2,-2,0,1
1528873446611627,-1,0,0,-2,-1,0,-2,-1
1528873446619587,0,1,-1,0,2,0,-1,1
1528873446619587,0,0,-2,2,-1,-2,-1,-2
1528873446634543,-1,0,-1,0,-1,-2,-1,0
1528873446634543,0,-1,-1,-1,0,-1,-1,-1
1528873446649503,-1,-1,1,0,0,0,-1,-1
1528873446649503,0,0,-1,0,-2,0,-1,-1
1528873446657512,-1,-2,-1,-1,-1,0,0,-1
1528873446657512,0,-2,1,0,0,0,-1,1
1528873446672475,0,0,0,-1,-1,0,-1,-1
1528873446672475,1,-2,0,-1,-1,0,0,0
1528873446679722,0,-1,-2,-1,-1,-2,-2,1
1528873446679722,-1,-1,-1,0,1,0,-2,0
1528873446694685,0,0,-1,0,-2,0,0,-2
1528873446694685,-1,0,-1,-1,-1,-2,0,0
1528873446709668,0,1,-2,-2,-1,-3,-1,-1
1528873446709668,0,1,-1,0,0,-1,-1,-2
1528873446717647,-2,0,-2,0,0,-1,0,0
1528873446717647,-2,0,0,-1,0,1,-1,-1
1528873446731889,-2,-2,0,0,-1,-1,-1,-1
1528873446731889,-1,-2,-2,-1,0,-1,-1,0
1528873446739868,0,1,0,-1,0,-2,0,-2
1528873446739868,0,-2,-1,0,-1,-2,1,-1
1528873446754828,-1,-1,0,0,1,-1,-2,0
1528873446754828,-1,-1,-2,-2,-1,-1,0,0
1528873446769787,0,-1,-1,0,0,-1,-1,-3
1528873446769787,1,0,-2,-1,-3,-1,2,0
1528873446777054,1,0,-2,-1,-1,-1,-2,-1
1528873446777054,0,0,1,-1,-1,0,0,-2
1528873446792783,-1,-1,-1,-2,0,-2,-2,-1
1528873446792783,-1,-1,2,-1,0,0,-3,0
1528873446800037,0,1,-1,0,-1,0,1,0
1528873446800037,0,-2,0,-1,-2,-2,-3,-1
1528873446814321,0,-1,-1,-1,-1,-1,0,0
1528873446814321,-2,-1,-2,0,0,0,0,-1
1528873446829772,-2,0,-1,-1,-1,0,-1,0
1528873446829772,-1,0,0,-2,0,-1,-1,-1
1528873446836771,1,-1,1,0,-3,0,-1,0
1528873446836771,0,-1,-2,-1,0,1,1,0
1528873446852758,-1,0,0,-1,-1,-1,0,0
1528873446852758,-1,-1,-2,0,-1,1,-1,0
1528873446859948,-1,-2,-1,-3,0,-1,-1,-2
1528873446859948,-2,0,-1,0,0,-1,-1,-1
1528873446882785,-1,-2,-1,-1,-1,-1,3,0
1528873446882785,0,0,-2,-1,0,-1,-2,-2
1528873446897813,0,-1,-1,-1,0,-1,0,-1
1528873446897813,0,-2,-1,-1,0,0,-3,-1
1528873446905120,-1,0,0,0,0,0,-2,-1
1528873446905120,-1,-1,1,-1,-1,-1,0,-1
1528873446927282,-1,-1,1,-1,0,1,0,0
1528873446927282,-1,0,1,0,0,0,0,1
1528873446942350,-3,0,0,-1,-1,0,-2,-1
1528873446942350,0,0,-3,0,-2,-1,-1,-3
1528873446957315,0,2,0,-1,0,0,0,0
1528873446957315,-1,-2,-1,-1,1,-1,0,-2
1528873446965232,-1,-1,-1,-2,0,-2,-1,0
1528873446965232,1,-2,0,-1,0,-1,-1,0
1528873446972247,-1,-3,0,-2,-2,0,0,0
1528873446972247,-1,-1,0,-1,0,1,-1,-1
1528873446980269,1,-1,-2,-1,1,-1,-1,-1
1528873446980269,-2,0,-1,-1,-1,-1,-1,0
1528873446994220,-1,-2,-1,-3,-20,-12,-5,-3
1528873446994220,0,0,2,6,23,14,4,3
1528873447009716,-2,-6,-10,-20,-60,-36,-11,-3
1528873447009716,-1,-2,-2,-1,-1,12,3,-3
1528873447017687,-2,0,-1,0,8,6,3,-1
1528873447017687,1,-1,1,1,4,2,-1,-1
1528873447032818,0,0,2,6,12,6,3,0
1528873447032818,1,-1,-1,-2,-2,0,-1,-2
1528873447039944,1,-1,0,-1,1,1,-1,-1
1528873447039944,-1,-2,-2,-5,-16,-6,-4,-2
1528873447054875,1,0,-1,5,10,5,2,0
1528873447054875,-1,0,-1,-1,-4,-7,-2,-1
1528873447069876,1,-1,0,-1,4,2,0,0
1528873447069876,0,-1,0,2,3,-2,-1,0
1528873447077086,-1,-1,0,-1,-8,-5,-2,0
1528873447077086,-1,-1,0,-2,-3,-3,0,-1
1528873447091821,0,0,-1,3,7,5,2,0
1528873447091821,1,0,1,-3,-3,1,0,1
1528873447100080,0,-2,0,-1,4,2,-1,0
1528873447100080,0,-1,-1,-2,-3,-3,-1,0
