timestamp,emg1,emg2,emg3,emg4,emg5,emg6,emg7,emg8
1528446345915073,1,-1,-1,0,0,0,-2,-2
1528446345915073,0,-1,-1,-2,-1,-1,-2,1
1528446345916070,-3,-1,0,-2,-2,-1,-1,-2
1528446345916070,-4,-2,-2,-1,-1,-1,-1,-2
1528446345917067,5,0,-1,1,-1,-1,3,4
1528446345917067,0,-2,-2,-2,-1,0,0,-2
1528446345919062,-1,-1,-2,-1,-2,-1,-3,1
1528446345919062,-3,-1,0,-1,0,0,-1,-2
1528446345933024,-4,0,0,0,0,-2,-2,-3
1528446345933024,-2,-2,-1,-1,0,-1,-1,0
1528446345940006,-1,-1,-1,-1,0,-1,-1,-4
1528446345940006,-3,-1,-2,-2,-1,-2,-1,-2
1528446345948981,-2,1,-1,-2,-1,0,0,-1
1528446345948981,-1,1,-2,0,0,-2,-1,0
1528446345954965,-3,-1,-1,0,0,0,-1,-3
1528446345954965,-1,-4,-1,-1,0,-1,-1,1
1528446345961947,0,-2,0,-2,-2,-1,0,-2
1528446345961947,1,-1,-1,0,-2,-2,-1,-6
1528446345991868,4,-2,-2,-1,-1,-2,-2,9
1528446345991868,5,-1,-3,-1,0,-1,-3,1
1528446345992864,0,-1,-1,-1,-1,-1,-2,-1
1528446345992864,0,-1,-1,-1,-1,-1,-1,-3
1528446346029766,-3,-1,-1,0,-1,-1,-1,-1
1528446346029766,-2,-1,0,-1,-1,-1,-1,0
1528446346030771,-4,-2,-1,-1,-1,0,-2,-3
1528446346030771,-1,1,-1,-1,-2,0,-1,-1
1528446346031761,-3,-1,-2,-1,-2,-2,-1,-2
1528446346031761,-2,-1,-2,-2,-4,-1,1,-1
1528446346032764,0,0,-1,-1,-2,-2,-1,-3
1528446346032764,1,-1,0,-2,-1,-3,0,1
1528446346042731,-3,-2,1,0,-1,-2,-2,-1
1528446346042731,-2,0,-1,-2,-2,-1,-1,2
1528446346051707,-2,0,-1,-2,-1,-1,0,2
1528446346051707,-2,0,-1,-1,-2,0,-1,-2
1528446346058689,3,-2,-1,-1,-2,-1,0,2
1528446346058689,2,-1,-1,0,0,-1,-1,-5
1528446346082624,0,-1,-1,-1,-2,-1,-1,1
1528446346082624,0,-2,-1,-1,-1,1,-3,0
1528446346083622,0,-1,0,-2,0,-1,-2,-2
1528446346083622,0,-2,-2,-1,-1,0,0,0
1528446346095590,0,-1,-2,0,-2,-2,0,0
1528446346095590,-3,-2,-2,-1,-1,-2,0,2
1528446346105568,-4,-2,-2,1,0,-1,-1,-6
1528446346105568,1,0,-1,0,-1,-1,0,0
1528446346119538,-2,-2,-1,1,-1,-1,-1,-1
1528446346119538,-3,0,-2,-1,-4,-3,-1,-3
1528446346121520,2,0,-2,-2,0,-1,1,0
1528446346121520,-1,0,-1,0,0,-1,-1,-1
1528446346141468,-1,-2,1,-1,-2,-3,-4,-3
1528446346141468,-1,-2,-1,0,0,-3,2,0
1528446346143462,-1,-1,-1,-2,-2,-1,2,1
1528446346143462,-4,-1,-2,-2,-1,-3,-2,-1
1528446346155430,-4,0,0,-2,-2,0,-2,1
1528446346155430,-2,-2,0,-1,-1,0,-2,0
1528446346165405,-1,0,0,-1,-1,0,-2,0
1528446346165405,-2,-2,-2,-1,-1,-2,-1,-2
1528446346179366,-2,-1,-1,-2,-2,1,0,-4
1528446346179366,-3,-2,-1,-3,0,-2,0,-2
1528446346181361,-3,-1,-1,-1,0,-1,0,-3
1528446346181361,-2,1,-1,-1,-2,1,-2,-8
1528446346202304,1,-1,-1,-1,1,-1,0,8
1528446346202304,1,-1,-2,0,0,-2,-1,-2
1528446346203302,0,-1,0,-1,-2,-3,0,1
1528446346203302,1,-1,0,-1,-1,0,-1,0
1528446346216267,0,1,-2,-1,-2,-1,-1,-1
1528446346216267,1,-2,-2,0,-1,0,-1,0
1528446346224255,3,0,-2,-2,0,0,-1,-1
1528446346224255,-2,-1,-1,-2,-3,-2,-1,-1
1528446346239206,-2,-1,-2,-1,1,0,-1,-2
1528446346239206,-6,-1,-1,-2,0,-1,-2,-3
1528446346241201,-5,-2,-1,0,0,-2,-4,-2
1528446346241201,1,-3,0,0,-1,0,0,2
1528446346262145,-2,-2,-1,1,0,-1,-2,-4
1528446346262145,0,0,-1,-3,-2,-2,0,2
1528446346263162,-3,0,-1,-2,-1,-1,-2,1
1528446346263162,-4,-2,-2,0,0,-2,-1,-4
1528446346275110,-1,-2,1,-2,-2,-1,0,6
1528446346275110,2,0,0,-3,-1,-2,-2,-3
1528446346285083,2,0,0,0,-1,-2,-1,1
1528446346285083,1,0,-1,0,-1,-2,0,1
1528446346299046,2,-2,-1,-1,0,0,-2,-5
1528446346299046,-2,-2,0,-1,0,1,0,-1
1528446346301041,1,-2,0,-1,-2,-1,-1,0
1528446346301041,0,0,-1,-1,-1,0,-2,-1
1528446346321985,-1,-1,-1,-1,0,-1,0,0
1528446346321985,0,0,1,1,-2,1,-1,0
1528446346323999,1,-2,-2,-1,-1,0,-2,-4
1528446346323999,-3,-2,0,-3,0,0,-1,0
1528446346343926,-4,0,-2,-1,-3,0,0,-4
1528446346343926,-1,-2,-2,-1,1,-2,-1,0
1528446346351905,-3,0,0,0,-1,-1,0,-1
1528446346351905,0,-3,-2,0,-1,-2,-1,1
1528446346358888,1,-1,-1,-1,0,-2,-1,-3
1528446346358888,-4,-2,0,-1,-1,-1,-1,-3
1528446346365868,3,-1,1,-1,-1,-1,0,6
1528446346365868,0,-1,0,0,0,-2,-1,-1
1528446346381851,-1,-1,-1,-2,-1,-2,-2,-2
1528446346381851,1,-1,0,0,-1,-2,-1,-3
1528446346383819,-1,-2,-2,-2,-3,0,-1,-2
1528446346383819,-2,-1,0,-1,-2,1,1,-1
1528446346411745,-1,-3,-1,0,-1,0,-1,-2
1528446346411745,-2,-1,-2,-1,0,-1,0,-5
1528446346413740,0,-2,0,-1,-1,-1,-2,9
1528446346413740,-1,0,-1,-1,-1,-2,-2,-3
1528446346419723,-3,-1,-1,1,0,-2,0,-1
1528446346419723,0,-2,0,-1,-2,-1,-2,-2
1528446346420721,1,0,-1,-1,-1,0,-2,-3
1528446346420721,3,0,-2,0,-1,-1,-1,-1
1528446346441666,2,-1,-1,-2,-1,1,-1,1
1528446346441666,-3,0,-2,-2,1,0,-2,-3
1528446346443661,1,-1,-2,-2,-2,-2,0,1
1528446346443661,0,-1,-1,-2,0,-1,-2,1
1528446346464604,0,1,0,0,-1,-2,-2,-2
1528446346464604,0,-1,0,-1,-1,-1,-2,2
1528446346465601,-6,-1,-1,-1,-1,-1,-1,-5
1528446346465601,-4,0,-1,0,-3,0,-2,-2
1528446346478567,3,0,-1,-1,0,-1,1,3
1528446346478567,0,-1,-1,0,-2,0,-2,-2
1528446346485548,0,1,-1,1,2,0,0,2
1528446346485548,0,-2,1,-2,-2,-1,0,-1
1528446346501506,-3,0,0,-2,-1,-1,-1,0
1528446346501506,-1,-1,0,-1,0,-2,0,4
1528446346503505,-3,-1,-3,-1,-1,0,-1,-6
1528446346503505,-2,0,1,0,2,-1,-1,2
1528446346524444,-1,-2,-1,0,0,-2,-2,-2
1528446346524444,0,-1,-2,-1,-1,2,0,-1
1528446346526586,-5,-2,-2,-1,-1,-2,-2,-7
1528446346526586,-3,-1,-3,-1,0,-1,-1,0
1528446346538557,1,-2,0,0,-2,-2,-1,-1
1528446346538557,0,-2,0,1,0,-3,0,-2
1528446346547534,-1,-2,2,-2,-1,-1,0,-1
1528446346547534,-2,-2,-2,-1,-1,-1,-2,-3
1528446346562567,-1,-2,-1,-2,0,-2,-1,5
1528446346562567,1,-1,-1,-1,-1,-1,-1,0
1528446346563497,-1,-2,0,-1,0,-2,-2,-5
1528446346563497,1,0,-1,0,-2,-2,-3,0
1528446346584470,-4,-1,-1,0,-1,-1,1,-4
1528446346584470,0,-1,0,-1,-1,0,-1,0
1528446346586428,1,0,-1,-1,-1,-2,-1,1
1528446346586428,-1,-2,-2,-1,0,0,-1,-3
1528446346598434,-3,-1,-3,-1,-2,-2,-1,-2
1528446346598434,-4,-1,-1,-2,-1,-1,-1,0
1528446346605397,-2,-3,-2,-1,0,-1,-1,-1
1528446346605397,-1,0,0,-2,-1,-1,-1,-2
1528446346621589,0,-3,-3,-1,-1,1,-1,0
1528446346621589,-3,-2,-3,0,-1,-1,-2,-2
1528446346623586,5,0,-2,-1,-1,1,0,1
1528446346623586,2,-3,-1,-2,-1,0,-1,10
1528446346645151,2,-1,1,-1,1,1,0,-1
1528446346645151,-2,0,-1,-1,-2,-1,-1,-3
1528446346645879,-5,-2,-2,-1,-1,-3,-1,-2
1528446346645879,-4,-1,-1,0,-1,-1,1,-2
1528446346658207,-1,0,0,-2,-1,-4,-3,-3
1528446346658207,2,-1,-2,-1,1,1,2,2
1528446346667131,0,-1,-1,1,0,-1,-3,-2
1528446346667131,1,-2,0,-2,-1,-2,1,-1
1528446346681093,-1,-2,1,0,0,-2,-1,2
1528446346681093,1,-1,-1,-1,-2,-2,-2,-2
1528446346690088,3,0,-2,-1,-1,-1,-2,1
1528446346690088,-1,-3,-1,0,-1,0,-2,-3
1528446346704065,-2,-2,-2,0,-2,-1,-2,-3
1528446346704065,2,-1,-1,0,-1,-1,-1,-2
1528446346706027,0,0,1,0,-1,-1,2,2
1528446346706027,0,-2,1,-1,-3,0,-1,-1
1528446346718028,-2,-1,-1,-1,-2,0,0,-1
1528446346718028,-3,-1,0,-2,-1,-1,-3,-4
1528446346727911,-2,-1,-1,-2,1,0,-2,-1
1528446346727911,-1,-1,0,0,-2,-1,-1,-1
1528446346742086,-1,-2,-1,-1,0,-2,-1,-3
1528446346742086,0,-1,-2,-2,-2,-3,-2,-1
1528446346744066,-2,-2,-1,-2,1,-1,-1,-3
1528446346744066,-1,-1,-2,0,-1,0,0,1
1528446346765013,-3,-1,-1,-1,-2,-2,-1,-2
1528446346765013,-2,0,-1,-1,-1,1,-1,1
1528446346767329,-2,-1,0,-1,-3,0,-1,-5
1528446346767329,-1,-2,-2,-2,0,-1,-2,10
1528446346778530,-1,0,-1,-2,-2,-1,0,-5
1528446346778530,0,-1,1,0,0,-2,0,0
1528446346787162,0,-2,-1,-2,-1,-2,0,1
1528446346787162,0,-1,0,0,0,-1,-1,-2
1528446346802389,-1,-1,-1,-1,-1,-1,-3,0
1528446346802389,-1,-1,-1,-1,-2,-1,1,1
1528446346803525,-1,-2,0,0,-3,0,-2,-2
1528446346803525,0,-1,-2,-2,-1,-1,-2,-4
1528446346832423,1,-1,-1,-1,-1,-1,0,3
1528446346832423,-4,-1,-1,-1,-1,-2,-1,-4
1528446346834303,-3,1,-2,0,-1,-1,-2,0
1528446346834303,-2,-1,-2,-2,0,0,-1,-2
1528446346846593,1,1,-2,0,-1,-2,-2,-2
1528446346846593,1,-2,-1,-1,-1,0,-3,0
1528446346847269,2,-1,-1,-1,0,0,0,-2
1528446346847269,0,0,-2,-2,0,-2,-1,-2
1528446346861611,-1,-1,-1,-3,-1,2,-1,-1
1528446346861611,-3,-1,-1,-1,-1,-1,-1,-3
1528446346862830,-5,-2,-3,-1,-1,-1,0,2
1528446346862830,-2,-1,1,-2,-1,-1,-1,-5
1528446346884348,2,1,-1,0,0,1,1,1
1528446346884348,-1,-1,0,-1,-1,-1,-1,0
1528446346884348,-5,0,-1,0,-1,-4,-1,-2
1528446346884348,-1,-1,0,0,-1,-1,-1,0
1528446346906363,-3,-2,-2,-1,-1,-3,-2,-3
1528446346906363,-4,-2,0,-1,-1,-1,-2,2
1528446346907359,-3,0,-2,-1,-1,-1,-1,-1
1528446346907359,-4,-1,0,-2,-1,-1,-2,-11
1528446346921322,1,-2,-2,-1,-1,-2,-1,6
1528446346921322,3,-2,-2,1,1,-1,-1,-1
1528446346922322,3,-2,-1,-1,0,-1,-2,-4
1528446346922322,0,0,0,-1,-1,-2,0,-2
1528446346943264,1,-1,-1,-1,-1,-1,-1,-3
1528446346943264,0,-2,0,-2,-1,0,0,0
1528446346944267,0,-1,-1,0,-2,-3,-1,3
1528446346944267,-4,-2,-1,1,-2,-2,-1,-2
1528446346966793,-3,-1,-1,0,-1,0,-1,-3
1528446346966793,3,-1,-1,-3,-1,0,-1,1
1528446346967488,-5,-1,1,1,-2,0,-1,-2
1528446346967488,-7,-1,-3,1,-2,-1,-1,2
1528446346981692,-8,-2,-1,-1,-1,-2,-2,-6
1528446346981692,-3,0,-1,-2,-2,-2,0,1
1528446346982687,-1,-1,-1,-1,-3,1,0,-1
1528446346982687,2,-1,-1,0,-2,-2,-2,2
1528446347004440,0,-2,-1,0,-1,-1,-1,-3
1528446347004440,3,1,-2,-1,0,0,0,-2
1528446347004440,3,-1,-1,-2,0,-2,-2,-1
1528446347004440,4,-2,0,-2,1,-2,-2,-3
1528446347026333,2,0,0,-1,-1,-2,-1,1
1528446347026333,1,0,-1,-1,-2,0,0,2
1528446347027327,-2,-1,-1,0,-1,0,-1,-4
1528446347027327,0,0,-1,-2,-1,0,1,-1
1528446347049532,-1,-2,-1,-2,0,0,0,0
1528446347049532,-4,-3,-1,0,-1,1,-3,-1
1528446347049532,0,1,-2,-2,-3,-1,0,-2
1528446347049532,-2,-1,-1,-1,-1,-1,0,-6
1528446347071782,2,-1,0,-1,-2,0,-1,10
1528446347071782,-2,-1,0,0,-1,-1,0,-4
1528446347072783,0,-2,-1,-1,0,1,-1,-1
1528446347072783,-1,-1,-1,-4,-1,-1,-1,-3
1528446347087014,-1,0,-1,-2,-1,-2,0,-2
1528446347087014,0,-1,0,-1,-1,-1,-1,-3
1528446347087938,1,-2,-1,-1,-2,-2,-2,0
1528446347087938,1,-1,-2,0,-2,-2,1,2
1528446347109252,-2,-1,-1,-3,-1,1,-1,-4
1528446347109252,1,0,-2,-2,-3,-3,-1,-1
1528446347110258,1,0,1,-1,-1,0,0,1
1528446347110258,-2,-1,-2,1,0,0,-1,-2
1528446347124213,-1,-1,-2,-1,0,-1,-2,-3
1528446347124213,-2,-1,-1,0,-3,-2,-1,-3
1528446347124213,-3,-1,-1,0,-1,-1,-1,-1
1528446347124213,-2,-1,-3,-2,-1,-3,-1,5
1528446347146694,-2,1,-1,0,-2,1,1,-2
1528446347146694,-2,0,0,-1,0,0,0,-5
1528446347147697,-2,-1,-1,-2,-1,-1,-1,7
1528446347147697,-1,0,1,-1,-2,2,-2,1
1528446347169583,-2,-1,-2,0,-1,0,0,-2
1528446347169583,-2,0,0,-1,-1,0,-2,-1
1528446347169583,0,-1,-2,-3,-2,-2,0,-4
1528446347169583,2,1,-1,1,0,-1,-1,1
1528446347184060,1,0,-1,0,-1,-1,-1,-1
1528446347184060,-1,-2,-1,1,0,0,-1,0
1528446347184803,-1,-1,0,-1,0,0,-2,-4
1528446347184803,1,-1,0,-1,-1,-2,-1,2
1528446347206917,-1,0,1,-1,-3,-1,-2,-4
1528446347206917,0,0,-1,-1,-1,-2,-1,2
1528446347206917,-2,-1,-2,0,0,0,-1,-3
1528446347206917,0,-1,-1,-1,0,0,0,0
1528446347228686,0,-1,0,1,-3,-3,-3,1
1528446347228686,-1,-1,-2,0,-1,-1,-1,3
1528446347229684,0,1,0,-1,-1,0,-1,-3
1528446347229684,-1,1,-1,1,-1,-2,-1,-2
1528446347243649,-2,-1,-1,-1,-1,-4,-1,1
1528446347243649,-3,-1,-2,-2,-1,-2,0,-5
1528446347244643,1,-3,1,-2,0,-1,-2,-2
1528446347244643,1,-2,0,-1,0,1,1,1
1528446347267500,-1,-1,-3,-2,-1,0,-1,-10
1528446347267500,-2,-1,-1,-1,0,-3,-1,0
1528446347267500,-3,0,-3,1,-1,-1,0,-1
1528446347267500,-3,-1,0,-1,-2,-1,-2,-3
1528446347289173,1,-2,-2,-1,-1,-2,0,0
1528446347289173,-2,0,0,0,-3,0,-1,1
1528446347289173,-2,-1,0,-2,-2,0,-1,0
1528446347289173,-2,-2,0,-1,-1,0,-1,-1
1528446347303915,0,0,0,0,0,-1,-1,2
1528446347303915,-1,0,-2,-2,-2,-2,-2,-2
1528446347304665,-1,-1,-3,0,-1,-2,1,-1
1528446347304665,1,-1,-2,-1,-1,-1,-1,-1
1528446347326622,-2,-1,-2,-1,-1,-2,0,-2
1528446347326622,-1,-1,0,-1,-2,-1,-1,5
1528446347326622,-1,-2,1,-1,-1,-2,-1,-1
1528446347326622,-3,-1,-2,-2,0,-1,-1,-2
1528446347349602,-2,-1,-1,-1,-1,-2,-1,-1
1528446347349602,-1,-1,-1,-1,-2,0,-2,-1
1528446347349602,-1,0,-2,-1,-1,-1,-1,-2
1528446347349602,-1,-1,-2,-1,-1,0,0,1
1528446347364233,-2,0,0,-2,-1,0,-2,-2
1528446347364233,2,-2,-2,-1,1,0,-2,-3
1528446347365216,1,-1,1,-1,0,-1,-1,-1
1528446347365216,-1,0,-1,-1,-1,0,-2,-3
1528446347386440,-1,-1,-2,0,-1,-1,-1,2
1528446347386440,0,-2,0,-1,-4,-1,-1,-1
1528446347387177,1,-1,-3,-1,0,-1,-2,1
1528446347387177,0,-1,0,0,-2,-3,-1,-1
1528446347409502,1,0,-1,-1,0,-3,0,-1
1528446347409502,1,-2,0,0,0,-2,-1,-1
1528446347410387,-1,-2,-2,-2,-3,-3,-1,2
1528446347410387,-1,0,1,-1,-3,0,0,-3
1528446347423616,1,-1,-1,-3,-1,0,-1,6
1528446347423616,0,-1,-1,0,2,1,1,-7
1528446347431328,0,0,0,-1,-2,-2,-1,-2
1528446347431328,3,-1,-1,-2,-1,0,1,1
1528446347446876,-1,-1,-1,-1,-1,-1,-2,-5
1528446347446876,-2,-2,-2,0,-2,-2,-1,-1
1528446347447630,-2,0,-1,-2,-1,-1,0,-1
1528446347447630,-1,-1,-1,-2,0,-3,-2,-2
1528446347468878,-2,-2,-1,0,-2,1,0,-2
1528446347468878,-1,-1,0,-2,1,-1,-1,-1
1528446347469856,-3,-2,-1,0,-1,-1,0,-2
1528446347469856,-2,0,-3,1,-1,-2,-3,-2
1528446347482822,1,-2,-2,-1,0,-1,2,1
1528446347482822,-1,0,0,0,-3,-2,-3,-1
1528446347491798,-1,-2,-2,-1,0,-1,-1,-3
1528446347491798,-3,-1,-1,-1,-2,-2,-2,-1
1528446347506757,0,0,1,-1,-1,1,0,0
1528446347506757,0,0,-1,-2,-2,0,-2,-6
1528446347506757,1,-1,-2,-1,-2,0,-3,5
1528446347506757,0,0,-1,-2,1,0,-1,-2
1528446347528710,-1,1,-2,0,-3,0,-1,-1
1528446347528710,-2,-1,-1,0,0,-1,0,0
1528446347529711,-3,-1,1,-2,-1,-1,-1,-2
1528446347529711,0,-4,-2,-2,0,-1,-1,-2
1528446347542661,0,-2,-2,0,0,0,-2,0
1528446347542661,-1,0,0,-1,-1,-2,-2,0
1528446347551691,0,-2,-2,-1,0,-1,0,-1
1528446347551691,-3,0,-1,-1,-1,-3,0,0
1528446347566652,-1,0,0,-2,-1,-3,-3,-3
1528446347566652,-1,0,-1,-1,0,0,-2,2
1528446347567610,-2,0,-1,-1,-1,-2,-1,-2
1528446347567610,-3,-2,0,0,-1,-2,-1,-7
1528446347596517,-1,-2,0,-1,-1,-1,0,5
1528446347596517,1,0,-2,-2,0,2,0,0
1528446347597527,0,0,1,0,-2,1,-1,2
1528446347597527,0,-1,0,0,-1,0,0,-2
1528446347603498,-2,-3,-1,-1,-1,0,-2,-1
1528446347603498,0,-3,-2,-2,-1,-1,-1,-2
1528446347611477,2,0,-2,-2,-2,-1,-1,-1
1528446347611477,-1,-1,-1,-1,-2,-2,0,5
1528446347626437,0,-1,0,1,-2,-1,0,-3
1528446347626437,-2,-1,0,-1,-1,-2,1,0
1528446347627434,-3,0,-1,-1,1,-1,-1,-4
1528446347627434,-3,0,0,-1,-1,-1,-2,1
1528446347648390,-2,-2,-2,-1,0,0,-2,-3
1528446347648390,0,-2,-3,-1,-2,0,0,-1
1528446347649376,0,-1,0,0,-1,1,-2,-1
1528446347649376,1,-2,0,-1,-1,0,-2,-3
1528446347663338,-1,-1,-3,-1,-1,-1,-1,-1
1528446347663338,-3,-1,0,-1,-2,-2,-2,-7
1528446347671317,0,-2,-3,-2,-1,0,-1,6
1528446347671317,1,-2,-1,-1,-1,0,-1,-1
1528446347686278,0,-1,-2,-2,-1,0,-1,1
1528446347686278,-2,-1,-2,-1,-2,-2,0,-4
1528446347687275,-2,0,-1,-1,-1,-2,-2,-2
1528446347687275,-2,0,0,0,0,-1,-2,1
1528446347708219,-1,-2,-1,-1,-1,-2,-1,0
1528446347708219,-2,0,-3,0,-1,0,-2,3
1528446347716198,-2,1,-1,-1,-2,-1,-1,-2
1528446347716198,-1,-1,-1,-2,-1,-1,-2,0
1528446347723179,-3,0,-1,-1,-1,-1,-1,-1
1528446347723179,0,-3,0,-1,0,-1,-2,-3
1528446347731159,0,-1,-2,-1,-2,-3,0,-2
1528446347731159,1,0,-3,-1,0,-1,0,-2
1528446347746118,0,0,0,-2,-1,-2,-1,-2
1528446347746118,-1,-3,-3,-2,-1,0,-1,0
1528446347747116,-2,0,0,-2,-1,1,0,-1
1528446347747116,-2,-3,-2,0,-2,0,0,-2
1528446347769109,-1,0,-1,-3,0,-1,0,0
1528446347769109,-3,-1,-1,-1,0,-2,-1,-4
1528446347770066,-1,-1,-1,-2,-2,-4,-2,7
1528446347770066,-1,-1,-1,-2,-2,-3,1,-1
1528446347800207,1,-1,0,0,-2,-1,-2,-2
1528446347800207,1,-1,-1,-1,-2,-2,0,2
1528446347800207,-3,-1,-2,-1,0,-1,0,-3
1528446347800207,-1,-3,-1,-2,-1,0,-2,1
1528446347806988,-3,-2,-1,0,0,-2,-1,-1
1528446347806988,0,1,0,-1,0,0,-2,1
1528446347806988,0,-3,-2,1,-1,-2,0,-5
1528446347806988,0,-1,-2,-2,-1,-2,-1,4
1528446347830137,0,0,-2,-1,-1,-1,-1,-6
1528446347830137,-1,-3,1,1,-1,0,1,4
1528446347831076,-1,-1,-1,1,-3,0,0,-2
1528446347831076,-1,0,-2,-2,-1,-1,-2,-1
1528446347851838,-1,-1,0,0,0,0,-1,0
1528446347851838,1,-2,-1,-1,-1,0,-1,-2
1528446347852833,0,-1,-1,-1,-2,-2,-2,5
1528446347852833,-2,-1,-1,0,-1,-2,-2,-9
1528446347866898,-1,-2,0,-2,-1,-2,0,1
1528446347866898,1,-1,-2,-2,1,-1,-3,0
1528446347866898,-2,-2,-1,-1,-2,-1,-1,-3
1528446347866898,1,-1,-2,0,-2,0,2,0
1528446347889734,-2,-1,-2,-1,-1,0,0,0
1528446347889734,-1,0,-3,-1,-2,0,-2,-5
1528446347890921,0,-2,-2,-2,0,-1,-2,-3
1528446347890921,-3,-1,-1,-1,-1,0,-1,1
1528446347911925,-2,-1,0,0,-1,-1,-1,-1
1528446347911925,-2,0,-1,-1,-2,-2,-2,3
1528446347912675,-2,0,-1,-2,0,0,-2,-3
1528446347912675,-1,-1,-1,-2,0,-1,-2,-1
1528446347927053,0,0,-2,-1,-1,-2,-1,0
1528446347927053,-1,0,-3,-1,-2,-2,0,-1
1528446347927053,-1,-1,0,-1,-2,-2,-3,-1
1528446347927053,0,0,0,0,-2,-2,-1,0
1528446347948264,-1,-2,-2,-1,-1,0,-1,-6
1528446347948264,-5,-2,-1,0,0,-1,1,6
1528446347949256,-2,-2,-1,-1,-2,1,0,0
1528446347949256,-4,-1,0,-1,-1,-2,1,-1
1528446347972196,-1,-1,-2,0,-1,0,-2,-3
1528446347972196,0,-1,0,-1,-1,1,-2,-2
1528446347973209,-1,-2,-3,-2,1,-1,0,-3
1528446347973209,-3,-1,0,-3,0,0,-2,-2
1528446347994381,-2,-1,-1,-1,-1,-3,-2,0
1528446347994381,-3,-1,0,-2,-1,-1,-1,-2
1528446347995151,4,-1,-1,1,-2,-1,0,2
1528446347995151,1,0,-1,-1,-1,-2,-4,-5
1528446348017075,1,0,-1,-1,0,-1,-1,1
1528446348017075,2,0,-1,-1,-1,-1,0,-1
1528446348018072,-1,-1,-1,-1,-2,-1,-1,-2
1528446348018072,-1,-2,-1,1,0,0,0,-1
1528446348032359,-4,-2,-2,0,-3,-1,-1,-4
1528446348032359,-1,-3,-1,0,-1,0,-1,-1
1528446348033033,0,-2,0,-1,-1,0,0,-3
1528446348033033,-1,0,-2,-1,0,-2,-2,4
1528446348046577,1,-1,0,-1,-1,-2,1,-1
1528446348046577,1,-2,-1,-1,0,-1,-1,-3
1528446348047298,1,-2,0,0,-1,-1,0,-4
1528446348047298,0,-3,-2,-2,-1,0,0,-2
1528446348069776,-3,-1,0,0,-2,-1,-2,0
1528446348069776,-1,-1,-2,-2,0,-2,-1,1
1528446348070681,-3,-1,-1,0,-1,1,-3,-2
1528446348070681,1,-1,-1,0,0,0,0,1
1528446348092733,-3,-1,-1,-2,0,-2,-2,-3
1528446348092733,0,0,-1,0,-2,0,-1,-1
1528446348092733,-2,-2,0,-1,-1,0,0,0
1528446348092733,-2,0,-2,-1,-1,-3,0,-1
1528446348106443,-4,-1,-2,-1,-2,-1,0,5
1528446348106443,-3,-1,-4,-3,-1,-1,-2,-5
1528446348107412,0,-1,-2,-2,-2,-1,-1,-2
1528446348107412,-2,-1,-1,-1,-3,-1,0,-1
1528446348129376,3,-1,-1,-1,-2,0,0,-2
1528446348129376,-4,-1,-2,0,-1,0,-2,-3
1528446348130378,1,-1,-1,-3,-1,-1,1,3
1528446348130378,1,-1,-1,-1,0,-1,-2,-2
1528446348151576,-2,-2,-2,-2,0,-1,-1,-1
1528446348151576,1,0,-2,-1,-1,-1,-2,0
1528446348152573,-2,-1,-3,-1,0,-2,-2,-3
1528446348152573,1,-1,-1,0,-2,0,-1,0
1528446348166536,3,-1,0,0,-1,0,1,0
1528446348166536,0,0,-2,-1,-2,-3,-1,-1
1528446348167533,-2,0,-1,-1,0,-1,-4,-4
1528446348167533,-3,-1,-2,-2,0,-1,-2,0
1528446348189476,-2,-3,-4,-1,-1,-2,-4,-6
1528446348189476,1,-1,0,-2,-2,-2,-1,-5
1528446348190473,-1,-1,-2,-1,-2,-2,-2,6
1528446348190473,4,-1,-1,-1,-1,1,0,2
1528446348212436,0,0,-3,-2,-1,-1,0,-1
1528446348212436,-3,-3,-2,-1,-1,0,1,3
1528446348212436,-4,0,0,-1,-1,-2,0,-5
1528446348212436,-4,0,-1,-1,-3,0,-1,-2
1528446348226376,-1,0,0,-2,-2,1,0,1
1528446348226376,-1,0,-1,-1,-2,-2,-3,0
1528446348227374,1,-1,-2,0,-1,-2,-2,1
1528446348227374,-1,-1,-1,-2,-1,-2,-2,0
1528446348249315,-1,-1,-1,0,-1,-1,-2,-4
1528446348249315,-3,-3,-1,-2,0,-1,0,-1
1528446348250312,-2,-2,-1,0,-3,-1,0,-1
1528446348250312,-1,1,-2,0,-1,0,-1,-2
1528446348272266,-2,-1,-1,-1,0,-1,-2,4
1528446348272266,-2,-1,-1,-1,1,0,0,-5
1528446348273277,-1,-1,-1,0,-2,0,0,-2
1528446348273277,-1,-3,-1,0,-1,-1,-2,-1
1528446348286641,2,-1,-2,0,-1,0,0,2
1528446348286641,1,-1,-1,-1,-1,0,0,1
1528446348287629,-2,-1,0,0,-1,0,-1,-1
1528446348287629,-4,0,-1,-2,-3,0,-1,-3
1528446348309964,-2,-1,0,-1,-3,-2,-1,-2
1528446348309964,1,-1,-2,0,-1,-2,0,2
1528446348310608,2,-1,0,-3,-1,-1,-1,-3
1528446348310608,1,0,-1,-1,-1,-1,-2,-1
1528446348331746,-1,1,0,-1,-1,1,-2,1
1528446348331746,0,-1,-1,-1,-1,0,-1,-1
1528446348332723,-1,0,-1,-1,0,-2,-1,0
1528446348332723,-1,-2,0,-1,-1,-1,0,-2
1528446348354668,0,-1,-2,0,-1,-1,1,-9
1528446348354668,0,-2,0,-1,0,-2,0,9
1528446348355662,-1,-1,-2,-2,1,0,-2,-1
1528446348355662,0,-1,-1,-1,-1,-2,-1,0
1528446348369876,0,-1,0,0,0,0,0,-1
1528446348369876,-1,-1,0,0,-2,-1,-1,-1
1528446348370939,0,1,-2,-1,-1,-3,0,2
1528446348370939,-1,-2,-1,-3,-3,-1,1,1
1528446348392097,-2,-1,-1,-1,-1,-2,-2,-5
1528446348392097,0,2,-1,-2,-2,0,-1,1
1528446348392848,0,-1,-1,-1,-1,-1,0,1
1528446348392848,-2,-2,0,-2,-2,-1,-1,-5
1528446348405813,-1,-3,-2,-1,-2,0,-2,3
1528446348405813,-1,-2,0,-2,-1,-1,-3,-2
1528446348414313,-3,0,-1,-1,0,0,0,-8
1528446348414313,4,1,-2,0,-1,-1,1,7
1528446348429275,-2,-1,1,-1,1,-2,0,-1
1528446348429275,-2,0,-1,-3,0,0,-1,-2
1528446348430031,-1,-3,-1,-2,-1,-1,0,-3
1528446348430031,-2,-1,-2,-2,0,-1,-1,-1
1528446348452232,0,-2,-1,-2,-2,-1,-1,1
1528446348452232,1,-1,-1,-1,-1,-2,1,-3
1528446348453227,2,-2,-2,-2,-1,-1,-1,0
1528446348453227,-1,-2,-2,0,1,-2,-1,-5
1528446348466195,1,-1,-1,-1,1,0,1,2
1528446348466195,-2,-1,-1,0,0,-2,-2,-2
1528446348474174,-3,-1,-1,-1,1,0,-2,0
1528446348474174,0,-1,-1,1,-2,-3,-2,0
1528446348489871,-2,-1,-2,-1,-1,-1,1,-2
1528446348489871,-2,-2,-1,0,0,0,-1,-2
1528446348489871,-1,-1,-2,0,-2,-1,-1,-4
1528446348489871,-1,-1,-2,-1,0,-2,-1,8
1528446348520127,-5,-1,-1,0,-1,-2,0,-6
1528446348520127,0,0,-1,1,0,0,0,4
1528446348520789,-4,-2,-2,-1,-1,-1,-1,1
1528446348520789,-2,-1,-2,-2,-1,0,-1,-3
1528446348525996,-1,-2,-2,-2,-1,-1,-1,1
1528446348525996,-1,-2,-1,-2,-1,-1,-1,-3
1528446348551706,2,0,-1,-1,-1,-1,-2,0
1528446348551706,1,-1,-1,0,-2,1,0,-4
1528446348552703,1,0,0,0,-1,-1,-1,4
1528446348552703,0,1,-1,0,-2,0,-1,-3
1528446348555696,1,-1,-2,-1,-2,-1,-2,3
1528446348555696,-3,-1,-1,0,-2,-2,-3,-8
1528446348571652,-1,-1,-1,-1,-2,-2,0,-2
1528446348571652,-2,-2,-2,0,0,-2,1,3
1528446348573647,-3,0,-2,-2,-1,-2,0,-1
1528446348573647,-3,0,0,-3,-1,0,-2,3
1528446348585876,-3,-1,-2,-1,-1,-2,-4,-7
1528446348585876,-1,-1,-1,-2,-3,-2,0,3
1528446348594591,-2,-2,0,0,-1,-2,-2,2
1528446348594591,-1,-2,-2,-1,1,-1,-1,-2
1528446348609662,-1,-1,-2,-1,-1,-2,-1,1
1528446348609662,1,-2,-1,-1,-1,-2,-2,-3
1528446348611970,2,-2,-1,0,-2,-1,-1,-1
1528446348611970,2,0,-1,0,-1,-2,0,1
1528446348632862,1,-2,-1,-2,-1,1,-2,-2
1528446348632862,-1,-1,-2,-2,-1,0,-2,-8
1528446348634886,-2,-1,-1,-1,0,0,-1,-8
1528446348634886,1,-1,-2,-1,-1,-1,-1,6
1528446348646143,-1,-2,-1,-2,-1,-2,-1,2
1528446348646143,-4,0,-2,-1,-2,0,-2,-3
1528446348654850,1,-1,1,-1,-1,-1,-1,-3
1528446348654850,-3,-1,-2,-1,-2,-2,0,-4
