timestamp,emg1,emg2,emg3,emg4,emg5,emg6,emg7,emg8
1528881692472127,-1,1,-4,-7,-9,-5,-6,-2
1528881692472127,-3,1,25,-4,-11,-4,3,2
1528881692484096,1,-2,19,-7,0,2,-1,-2
1528881692484096,-3,-2,2,-4,-8,-1,-1,-2
1528881692493071,1,1,-6,2,3,6,10,5
1528881692493071,1,5,1,8,1,-5,-6,-1
1528881692507034,-4,-1,9,-5,-2,-29,-19,-6
1528881692507034,0,-3,-10,3,13,11,2,10
1528881692514016,-2,-5,-9,1,-12,1,8,-6
1528881692514016,3,5,3,-2,-6,-14,-14,6
1528881692529982,-3,4,27,-11,0,24,33,-11
1528881692529982,-7,-11,-61,-22,-34,1,-4,-3
1528881692531968,-4,-3,2,-15,15,3,-10,-4
1528881692531968,5,4,7,64,76,29,23,8
1528881692543935,2,1,0,10,-5,-1,7,3
1528881692543935,-2,0,13,-29,-17,-45,-32,-17
1528881692552913,-13,-5,-5,-18,-36,27,34,-2
1528881692552913,3,-4,-21,-10,7,-23,-26,-5
1528881692566886,-2,-5,-6,-16,6,24,23,1
1528881692566886,-3,1,12,38,4,-30,-18,-6
1528881692573856,2,3,-4,7,5,6,-28,7
1528881692573856,2,6,11,-6,-9,-18,5,-14
1528881692589814,-1,-6,-7,-26,-34,-12,-9,1
1528881692589814,-1,2,7,2,2,17,-9,-13
1528881692591808,-1,-4,-2,1,7,-30,6,10
1528881692591808,-10,-4,-3,2,-6,33,41,-11
1528881692603775,5,2,-2,-4,4,-16,-44,2
1528881692603775,-3,-1,3,-2,5,28,8,1
1528881692612752,3,1,-2,19,14,-20,4,-6
1528881692612752,3,2,3,-26,-19,27,5,7
1528881692626716,-7,-4,-7,9,13,-20,8,7
1528881692626716,7,0,10,-3,-8,17,30,1
1528881692633695,4,1,11,20,19,1,-28,-1
1528881692633695,-8,-7,-9,-18,-28,-33,-23,0
1528881692650650,-5,2,9,17,-5,-7,6,-9
1528881692650650,-2,-4,-3,1,19,0,36,15
1528881692651658,3,8,8,-6,-1,10,-5,-9
1528881692651658,0,-3,-1,3,21,75,12,-6
1528881692672630,-7,-6,-12,0,-16,-12,-24,-1
1528881692672630,0,-1,8,-25,-13,-33,-2,2
1528881692674641,-3,-5,-17,29,-2,-26,-4,-1
1528881692674641,7,14,9,-11,-15,-35,-17,6
1528881692687553,-4,-1,0,7,9,16,16,-11
1528881692687553,4,4,-6,-16,2,12,-5,3
1528881692693540,-9,-5,-1,-12,-11,3,2,-7
1528881692693540,-12,-8,1,26,9,-75,-71,-3
1528881692710491,11,18,37,12,13,94,85,10
1528881692710491,3,-10,-37,-8,1,-28,-5,3
1528881692711490,4,6,1,-20,-3,21,2,-2
1528881692711490,1,-2,-6,-7,-25,-46,-3,1
1528881692732489,-4,0,9,3,-20,-36,-47,2
1528881692732489,2,6,20,37,47,72,80,6
1528881692734428,-2,-14,-14,-15,1,18,-38,-4
1528881692734428,-6,-7,-9,-28,1,9,13,-15
1528881692747444,-1,-8,-16,-30,-15,-29,-31,-4
1528881692747444,-2,7,6,23,-28,-42,-29,0
1528881692753375,-4,1,-4,-1,0,-22,2,1
1528881692753375,1,-5,3,-3,4,49,28,4
1528881692770367,3,-7,-11,1,20,30,29,2
1528881692770367,-4,-2,3,-5,3,28,-7,-1
1528881692771366,2,5,14,-11,-17,-15,-5,1
1528881692771366,-6,-3,-10,0,-10,0,3,-2
1528881692791275,-2,0,-3,0,2,-31,-37,2
1528881692791275,-4,-4,-2,-3,0,-34,-6,-4
1528881692800251,4,-3,-1,1,4,43,12,1
1528881692800251,2,5,11,2,-11,-8,-1,3
1528881692806287,-2,-10,-16,-9,-2,27,-7,-3
1528881692806287,-1,2,-4,4,9,-40,-13,-4
1528881692815211,-4,-14,4,29,16,16,-26,-1
1528881692815211,1,4,-2,-25,-5,-1,5,0
1528881692830191,2,7,13,7,-4,-13,9,2
1528881692830191,1,5,4,14,-14,1,-19,-3
1528881692832167,-7,0,-29,-12,4,-17,8,-3
1528881692832167,2,13,12,-4,-5,-17,10,-2
1528881692853110,1,-7,-6,18,20,56,19,4
1528881692853110,-4,-5,-3,-38,-17,-27,-4,-3
1528881692854121,-4,3,11,8,1,16,26,-1
1528881692854121,-7,-11,14,-6,-10,-26,-32,-5
1528881692866076,5,9,-13,-15,-22,-55,-22,-5
1528881692866076,-9,-28,-13,3,-2,-23,-55,-7
1528881692875051,10,5,10,13,30,76,39,8
1528881692875051,-5,-8,9,1,8,9,4,1
1528881692890037,-1,-3,0,-5,-1,4,11,-2
1528881692890037,3,34,5,-14,-27,-48,-51,-3
1528881692892005,-3,18,6,15,-3,5,31,-4
1528881692892005,8,13,-4,23,17,42,0,3
1528881692912950,1,28,1,-5,0,-20,-10,-1
1528881692912950,-15,-12,-13,-19,-8,-12,-14,-4
1528881692913985,8,-46,-6,-28,-21,-58,-20,2
1528881692913985,-5,-48,1,25,8,1,41,-8
1528881692934891,-1,-42,-10,6,-2,8,-18,-2
1528881692934891,10,-30,19,8,16,79,-1,9
1528881692936887,-13,-22,-8,-16,-8,-36,-15,-1
1528881692936887,1,-6,-17,3,-6,-47,-28,-7
1528881692950848,-3,9,8,-6,3,39,27,2
1528881692950848,3,7,-1,1,-5,-11,14,-4
1528881692952844,3,16,3,5,9,20,4,1
1528881692952844,-1,6,-1,-5,-6,0,3,8
1528881692972790,-2,-4,0,15,15,-8,-9,-5
1528881692972790,-1,10,0,-4,-11,-34,17,3
1528881692974794,-10,21,-5,-12,-16,37,-4,-4
1528881692974794,9,15,-1,3,14,14,8,-1
1528881692986754,-15,-4,-6,4,8,33,43,-3
1528881692986754,7,-1,7,7,4,-36,-33,3
1528881692995730,-19,-12,7,4,2,-9,5,0
1528881692995730,4,-1,-7,-8,-12,-18,-23,-2
1528881693010932,6,-23,-7,-5,1,64,55,4
1528881693010932,-8,-25,-1,2,1,9,-6,-2
1528881693011687,22,-1,6,9,0,-62,7,4
1528881693011687,-12,2,-3,0,9,75,9,3
1528881693032630,1,15,1,4,-13,-96,-30,-5
1528881693032630,-3,23,2,-7,4,38,39,-6
1528881693034676,-17,-7,-11,1,-6,-47,-72,1
1528881693034676,7,-30,-10,-1,13,75,94,8
1528881693046593,11,-9,2,4,-1,-105,-53,1
1528881693046593,3,2,2,5,17,127,-7,3
1528881693055569,5,5,-4,-9,-16,-18,13,-2
1528881693055569,-19,19,-3,-14,-20,-33,10,-11
1528881693069531,-7,11,-2,0,1,33,-83,3
1528881693069531,-7,-5,-2,-4,-11,-107,-27,-2
1528881693077511,14,8,-3,-3,-3,-12,7,-11
1528881693077511,-5,3,-1,-11,-11,-42,-5,0
1528881693092470,2,10,11,14,14,52,61,7
1528881693092470,-5,1,-14,-2,10,-47,-12,-1
1528881693094503,5,4,0,-4,9,23,10,6
1528881693094503,3,-5,-6,-1,-11,-10,-12,1
1528881693106468,-8,1,0,0,-3,-23,-18,-6
1528881693106468,3,5,1,-3,-4,3,-1,-5
1528881693115409,-5,-7,-11,-16,-16,-4,-2,-7
1528881693115409,2,7,4,1,0,-43,-25,-3
1528881693130610,1,8,-5,-7,-2,-1,-29,4
1528881693130610,6,9,19,23,16,55,53,1
1528881693131611,-15,-10,-1,-2,1,-6,7,-3
1528881693131611,0,-1,-11,-17,-11,-1,-27,-2
1528881693152549,0,-2,5,6,-3,0,-13,-2
1528881693152549,3,-14,-5,3,5,-8,19,2
1528881693154545,1,17,4,3,1,13,3,-2
1528881693154545,-7,-8,-1,-1,1,-5,-35,-4
1528881693166764,-1,-3,-10,-13,-8,8,16,0
1528881693166764,-2,-10,-6,-1,9,28,21,0
1528881693175489,1,3,3,-2,-6,20,0,-2
1528881693175489,-1,0,2,1,3,13,-5,-1
1528881693190450,-2,-4,-4,-14,-10,-25,3,-4
1528881693190450,-3,6,-5,-17,-12,-8,-10,-5
1528881693191447,-2,-15,-14,0,10,-21,-16,-4
1528881693191447,2,-4,10,40,4,0,2,0
1528881693212420,-2,2,17,-17,-11,1,6,-3
1528881693212420,-2,-5,-21,11,13,9,3,-1
1528881693214386,3,5,1,-37,-19,-7,-3,-1
1528881693214386,4,13,-9,5,-1,0,2,3
1528881693227006,-2,-5,31,44,13,-7,6,0
1528881693227006,-10,-32,-16,-11,-9,2,0,-3
1528881693235649,1,1,-11,2,2,-5,0,-1
1528881693235649,-2,0,-39,-13,4,-5,-7,-3
1528881693251044,0,-3,-7,-5,1,-6,1,-1
1528881693251044,6,9,0,-3,-1,5,4,1
1528881693252654,-5,11,51,7,-1,-1,-2,-4
1528881693252654,5,-9,4,-32,-19,-4,-6,-2
1528881693272586,-13,-9,-22,24,6,-4,-2,-4
1528881693272586,5,9,7,-11,8,8,10,4
1528881693274597,-2,-11,0,33,9,-10,2,0
1528881693274597,-1,-2,17,-12,5,5,1,-1
1528881693286567,-2,-3,-6,-27,-19,-13,-12,-8
1528881693286567,-2,-6,-13,-27,-18,-13,-8,-4
1528881693302524,1,2,-1,27,8,0,0,0
1528881693302524,0,0,15,22,6,3,-2,1
1528881693310747,0,3,3,0,1,27,0,1
1528881693310747,-2,2,25,8,13,10,6,1
1528881693311447,-3,-11,-76,-27,-12,14,1,-3
1528881693311447,-1,13,0,9,-3,-6,-3,-3
1528881693331625,-3,-7,1,-6,-1,-21,-11,-4
1528881693331625,12,5,6,4,-4,-22,2,0
1528881693340369,-8,-4,10,3,3,3,0,-1
1528881693340369,-11,-10,-9,-8,4,5,-3,-5
1528881693355569,-2,-5,-28,5,-1,-20,-1,-3
1528881693355569,1,5,15,2,-2,14,6,-3
1528881693357487,6,4,4,19,-4,-43,-34,-3
1528881693357487,-2,-8,-3,-2,9,36,50,5
1528881693377510,10,2,7,-17,3,25,3,3
1528881693377510,-9,-1,-3,17,-6,-51,-12,-2
1528881693379265,4,2,2,-16,-9,19,-15,-1
1528881693379265,-2,0,-2,-5,-9,-57,-27,-3
1528881693391495,-5,-3,-2,-2,4,16,11,-1
1528881693391495,1,6,9,11,4,3,1,1
1528881693400513,-5,-1,-6,-3,5,24,42,-2
1528881693400513,0,-3,11,-3,-5,-15,-12,-2
1528881693415810,5,-10,-25,-7,0,-10,-1,1
1528881693415810,-10,4,-5,-17,-16,-10,-15,-6
1528881693416480,-9,0,0,-1,-2,-6,4,1
1528881693416480,-2,1,2,5,4,35,5,-5
1528881693438535,5,6,5,2,-1,-23,5,3
1528881693438535,0,-3,2,2,-2,48,0,0
1528881693439427,6,-2,3,-11,-9,-13,-3,1
1528881693439427,-1,0,2,5,-2,-13,-12,-1
1528881693451389,-2,-1,0,-8,-6,-35,5,-3
1528881693451389,-7,-4,-18,9,5,29,-5,-3
1528881693461045,8,3,9,0,3,14,4,2
1528881693461045,-5,7,0,-6,-10,-1,-5,-1
1528881693474829,0,-25,0,-6,-9,-7,0,-2
1528881693474829,-3,-21,-12,-7,1,-11,0,0
1528881693476842,2,-5,4,3,5,-9,-4,-2
1528881693476842,-7,-15,-4,4,7,11,3,3
1528881693498026,-3,10,1,5,5,14,1,1
1528881693498026,-3,-4,0,-5,-1,-5,3,2
1528881693499023,4,1,-11,-18,-15,-6,-16,-3
1528881693499023,-1,2,8,4,10,8,8,-2
1528881693511138,-5,-6,-3,4,3,-18,-12,0
1528881693511138,2,4,1,2,1,45,20,3
1528881693520436,0,4,8,4,2,-7,5,1
1528881693520436,9,28,30,-10,-15,-7,-9,2
1528881693535688,-7,-14,-72,-14,-15,-55,-40,-6
1528881693535688,-2,3,13,5,11,51,49,-2
1528881693536720,-5,-8,4,2,1,-14,-11,-2
1528881693536720,4,8,7,6,6,16,14,4
1528881693557871,4,12,29,4,4,17,7,3
1528881693557871,-1,-1,-33,-15,-20,-59,-34,-7
1528881693559900,0,19,1,-4,-6,-21,-11,-3
1528881693559900,-5,-21,-10,2,-4,-25,-13,0
1528881693571631,-12,13,23,6,6,20,21,-10
1528881693571631,3,13,27,3,0,-19,-9,1
1528881693580613,-2,2,7,0,0,13,5,0
1528881693580613,0,-15,-38,-16,-12,-23,-18,-4
1528881693595528,2,2,-19,-5,-8,-31,-14,-1
1528881693595528,-4,-4,2,3,9,53,24,0
1528881693596527,-1,-10,6,12,8,0,5,3
1528881693596527,7,9,6,-2,0,38,17,2
1528881693617470,2,8,10,2,2,-16,-10,-2
1528881693617470,1,-2,2,7,1,-18,0,0
1528881693619465,12,11,3,0,6,44,2,-3
1528881693619465,-20,3,-12,-5,4,51,62,-6
1528881693631433,-9,2,9,-4,-2,23,-52,6
1528881693631433,10,-8,-2,0,-9,-69,28,0
1528881693640409,-2,-9,4,6,4,-50,-43,4
1528881693640409,-9,-12,-12,-2,-10,-13,2,-6
1528881693655369,0,-1,4,9,20,58,31,0
1528881693655369,-7,-1,-3,-10,-10,-11,-36,-6
1528881693656366,8,-6,-10,-8,-8,-10,11,2
1528881693656366,9,-1,3,4,-1,-39,-23,4
1528881693677310,-3,-3,12,7,4,-3,6,-3
1528881693677310,8,9,-3,0,4,44,-4,4
1528881693679305,-15,-6,-7,-6,-3,22,13,-3
1528881693679305,6,3,3,-2,2,-9,-16,3
1528881693691273,-3,5,-7,-16,-22,-50,-18,-5
1528881693691273,7,4,-1,7,9,32,18,-1
1528881693700248,-11,-10,-8,-6,-5,-10,-14,-3
1528881693700248,10,1,4,7,13,49,13,1
1528881693714212,10,1,4,0,-2,-13,-2,3
1528881693714212,-10,-9,-4,-5,-5,-13,-11,-4
1528881693723239,-8,7,4,5,3,-3,1,-3
1528881693723239,4,-1,3,-4,-10,-17,-14,2
1528881693738184,1,-15,-11,-5,-1,25,21,0
1528881693738184,0,3,4,-2,-6,-11,-19,-3
1528881693739144,-4,1,-7,-9,-7,-5,7,-1
1528881693739144,0,6,4,3,1,-14,-9,-3
1528881693751170,1,-11,3,11,10,0,4,1
1528881693751170,-7,3,4,-10,-8,-18,-12,-2
1528881693760116,3,-5,-11,-11,-2,17,10,2
1528881693760116,-1,-2,2,-16,-3,4,-4,0
1528881693775074,2,13,32,47,6,-2,-4,-3
1528881693775074,-6,-14,-21,-8,-3,-12,-9,-2
1528881693777043,0,-7,-16,9,7,7,7,0
1528881693777043,-1,-5,-6,-2,1,-5,-9,0
1528881693797986,-4,-5,-12,-27,-7,8,15,0
1528881693797986,2,11,27,37,1,-16,-7,2
1528881693799011,-1,-13,-3,-5,1,12,6,-1
1528881693799011,-4,-3,-13,0,0,-14,-8,-3
1528881693811004,1,-1,-2,-21,-11,6,5,-2
1528881693811004,-2,8,30,-1,5,3,0,-1
1528881693819991,1,4,-1,-4,-4,-9,-6,-2
1528881693819991,0,-4,-17,5,1,1,2,0
1528881693834943,-2,-8,-28,-14,-3,10,7,1
1528881693834943,-1,2,8,0,1,0,-4,1
1528881693836884,-1,15,14,15,10,-2,2,1
1528881693836884,0,14,14,-3,-2,-8,-3,-4
1528881693857828,1,11,0,-14,-6,6,4,2
1528881693857828,-4,-1,-34,-24,-5,-5,-2,-1
1528881693859838,1,5,28,26,7,2,1,-1
1528881693859838,-3,2,-1,-7,-2,0,-2,-2
1528881693871790,-3,2,0,33,4,1,1,-2
1528881693871790,1,-3,-10,-9,-1,-2,-1,0
1528881693880767,-3,-4,-22,-29,-11,-2,-1,-3
1528881693880767,-1,4,19,13,6,0,-3,0
1528881693894782,-2,-6,-68,-14,-5,1,1,-3
1528881693894782,1,16,31,3,-3,-3,-3,0
1528881693896723,-1,5,1,2,6,2,1,0
1528881693896723,-2,7,-15,-9,-5,-8,-7,-2
1528881693917668,0,0,24,8,1,8,2,0
1528881693917668,-1,-2,-17,8,4,-3,0,0
1528881693919671,-1,-2,6,4,-2,0,1,-2
1528881693919671,2,-4,7,-3,-2,-1,0,-2
1528881693939874,-1,3,0,-29,-9,-2,-2,-2
1528881693939874,-2,-5,-8,21,3,-6,-4,-3
1528881693940867,-1,-6,4,-15,-5,2,3,1
1528881693940867,-1,-9,6,27,8,0,0,-2
1528881693953873,-1,-6,-4,-9,-4,2,1,0
1528881693953873,-2,-14,-8,-10,-1,-2,-2,-2
1528881693961855,-6,-5,1,-9,-8,-4,-1,-2
1528881693961855,16,-8,-11,-26,-7,-2,-2,2
1528881693977448,-10,4,4,23,13,6,4,2
1528881693977448,-4,-12,-6,-11,-6,-3,-3,-5
1528881693978137,-2,0,-2,4,-3,-2,-2,-2
1528881693978137,-5,-5,0,-11,-10,-2,-3,-1
1528881694000342,6,1,19,-6,-3,-5,0,0
1528881694000342,2,-8,-27,12,3,2,0,3
1528881694001539,-2,-4,11,-4,-2,1,0,-2
1528881694001539,-3,-6,-4,8,2,-1,-1,-1
1528881694013678,0,-10,11,-2,-2,-5,-4,-1
1528881694013678,-1,5,16,-3,-4,0,-1,0
1528881694022325,0,-22,-17,-13,-8,-21,-1,-1
1528881694022325,-4,-10,-50,3,6,20,8,1
1528881694037529,-3,-7,1,15,5,4,0,-1
1528881694037529,0,9,-4,-5,-2,-1,-1,-1
1528881694038582,5,0,-7,14,1,-7,-4,-2
1528881694038582,-7,-11,91,-22,-12,-14,-6,3
1528881694059739,-4,-2,-10,-14,-10,-5,-7,-8
1528881694059739,-1,-6,-19,12,7,4,6,5
1528881694060472,-6,1,-14,-1,2,9,6,-2
1528881694060472,6,5,-28,7,2,-3,-9,-6
1528881694074436,-1,-4,7,-12,-5,-1,-7,-9
1528881694074436,6,1,17,5,-4,-5,-1,3
1528881694075430,-13,-1,-8,-2,-1,4,-4,9
1528881694075430,-3,-2,-9,1,1,2,9,3
1528881694097633,1,0,8,11,3,-7,-1,5
1528881694097633,-5,-15,-4,-12,-6,1,-2,-35
1528881694098639,-2,0,-6,-1,-8,-5,-5,6
1528881694098639,0,10,-6,3,1,-15,-13,-5
1528881694119884,-16,0,17,1,3,-50,-6,-12
1528881694119884,6,-19,-23,-7,12,70,61,63
1528881694120900,5,3,6,-15,-2,-16,-6,-18
1528881694120900,-6,-7,-17,27,0,-9,-1,-5
1528881694134576,13,18,11,3,4,-16,-16,-10
1528881694134576,-11,6,2,-27,-15,-21,-17,-14
1528881694136055,-1,-5,28,18,1,10,4,6
1528881694136055,3,-1,-54,-2,4,6,-2,-3
1528881694157671,-6,-2,-3,34,7,20,9,5
1528881694157671,1,5,9,-8,-7,-16,-14,-1
1528881694157671,3,2,1,-11,-7,8,-2,-5
1528881694157671,-5,0,5,-6,0,-6,-4,-4
1528881694179264,7,2,-14,-18,0,14,9,7
1528881694179264,-6,-6,16,14,2,-7,-10,-9
1528881694187243,1,-11,-79,7,1,-14,-9,-9
1528881694187243,-8,-2,-13,-30,-12,-2,1,2
1528881694194528,0,-2,6,8,-9,7,0,8
1528881694194528,5,9,34,3,10,0,-3,-3
1528881694195227,0,3,-8,6,10,8,4,2
1528881694195227,-4,-3,-11,-4,0,1,2,-1
1528881694217485,2,-13,-39,-8,-2,5,-1,0
1528881694217485,-7,2,35,-12,-16,-22,-18,-12
1528881694218586,-1,-1,7,-5,-4,0,1,1
1528881694218586,2,1,25,-3,-5,3,3,3
1528881694239685,2,-7,0,-5,1,0,-1,-1
1528881694239685,-3,1,-10,6,2,-6,-5,-5
1528881694240423,-2,-5,6,-10,-5,0,-1,1
1528881694240423,-1,0,24,10,-9,-22,-14,-3
1528881694254627,-2,4,16,7,10,18,19,28
1528881694254627,1,-6,-13,-1,11,8,-3,-41
1528881694255395,4,8,18,1,7,4,3,1
1528881694255395,1,-1,1,2,-2,-1,-2,5
1528881694277564,-2,-3,-7,-18,-14,-13,-7,-1
1528881694277564,-1,-1,-41,2,-1,-7,-2,10
1528881694278321,-3,-5,10,-5,-5,-2,-4,-9
1528881694278321,-3,-3,4,1,0,-3,0,-8
1528881694299506,3,5,3,-13,0,2,-1,-1
1528881694299506,2,-6,5,2,-3,-2,-1,4
1528881694300278,-1,-3,30,18,5,0,-2,-2
1528881694300278,-4,0,-10,3,2,3,1,4
1528881694314475,0,-3,-6,5,-1,1,-2,-7
1528881694314475,-4,-10,-30,-17,-8,-3,-3,1
1528881694322434,0,1,16,-13,-7,-6,-1,4
1528881694322434,-1,4,22,6,10,8,5,-1
1528881694337164,-2,-9,-23,-9,-6,-3,-6,-9
1528881694337164,-3,6,9,2,-11,-9,-4,0
1528881694338161,-1,4,10,-2,-6,-1,-2,-1
1528881694338161,-1,-7,-18,0,16,10,6,-2
1528881694359908,0,5,24,5,5,-4,-5,-4
1528881694359908,1,-2,-17,-12,-13,-24,-17,3
1528881694360922,15,2,-8,-11,-13,5,11,14
1528881694360922,-47,-2,3,7,10,37,14,-45
1528881694374401,19,3,11,41,55,14,9,12
1528881694374401,-2,-1,3,-3,-5,-5,-5,-18
1528881694375141,4,1,-12,-7,-12,-17,-8,10
1528881694375141,30,2,6,-12,-25,-15,2,59
1528881694397395,-16,-5,2,-17,-19,-5,-7,-37
1528881694397395,4,6,-3,-2,3,4,5,36
1528881694398510,-6,1,-8,5,4,1,-2,-23
1528881694398510,3,-6,20,-3,2,-1,1,4
1528881694419556,-9,-14,-69,-13,-14,-3,-5,1
1528881694419556,4,14,8,6,1,-7,-3,-6
1528881694420332,-4,1,-5,2,8,8,4,4
1528881694420332,4,9,5,6,3,-6,-5,-6
1528881694434515,1,7,64,1,-4,-4,-3,3
1528881694434515,-5,-2,-64,-5,-1,4,1,-7
1528881694435294,-6,2,-5,10,12,3,-2,-2
1528881694435294,1,-6,-11,-4,-1,-6,-6,-2
1528881694457474,-1,6,1,-11,-12,-4,-4,-8
1528881694457474,-1,-1,18,3,0,2,3,-3
1528881694458470,1,-1,17,4,8,6,2,18
1528881694458470,1,-1,-16,-2,-8,-11,-8,-6
1528881694480277,-2,-7,-5,-8,-11,0,3,8
1528881694480277,-9,-1,2,2,10,2,-1,-10
1528881694480277,5,0,-20,4,-2,-9,-13,0
1528881694480277,-24,-8,27,4,-2,-6,-2,-19
1528881694494465,2,2,-4,-4,-2,13,14,17
1528881694494465,8,2,-7,4,4,4,2,3
1528881694502429,-7,-4,-17,-9,-4,-4,-5,-17
1528881694502429,3,-7,-56,-18,-10,-8,-7,3
1528881694517398,-3,2,1,2,2,-5,-6,-7
1528881694517398,-8,-3,10,3,6,7,7,12
1528881694518416,7,3,10,4,13,3,3,5
1528881694518416,5,3,9,-6,-9,-5,-5,-7
1528881694539860,-4,-7,-5,-13,-11,-3,-2,-4
1528881694539860,5,10,14,15,5,0,-3,-3
1528881694539860,-6,-3,-3,1,-7,-1,2,-15
1528881694539860,4,-4,27,-3,0,-1,-3,8
1528881694556050,4,11,-10,7,17,8,8,-3
1528881694556050,-3,-13,79,-3,-9,-2,-2,5
1528881694556828,-9,-11,-13,-11,-11,-4,-2,-11
1528881694556828,3,11,4,-11,-7,-2,-3,-4
1528881694577022,4,3,2,17,-3,-5,-4,2
1528881694577022,-2,-1,-20,-13,-4,-7,-6,-5
1528881694577758,-5,-9,14,7,-6,-2,2,1
1528881694577758,8,5,-1,13,18,9,4,3
1528881694599972,-5,1,19,1,-2,-2,-3,-2
1528881694599972,-2,4,-15,-8,-8,-3,-2,-5
1528881694600819,-1,3,10,-5,-6,-4,-2,3
1528881694600819,-8,-8,-34,-4,-4,-9,-5,-9
1528881694614921,0,-9,-1,-2,0,2,4,6
1528881694614921,0,-7,-7,-4,2,4,0,10
1528881694615929,4,14,3,-6,-4,-1,-1,-1
1528881694615929,-2,-3,4,12,1,-1,-4,-3
1528881694637671,-3,-15,-10,-5,-1,-4,-4,-8
1528881694637671,2,6,-4,-2,0,1,1,1
1528881694637671,-3,-8,-19,-3,4,0,2,2
1528881694637671,1,4,16,-1,-3,0,-2,-6
1528881694659804,-4,-3,33,-1,-6,-5,-3,0
1528881694659804,-2,-12,-51,-6,-3,-3,-2,-12
1528881694660538,2,9,12,-3,0,2,-1,15
1528881694660538,-2,-3,-3,8,1,3,4,-5
1528881694675375,2,11,4,-2,-2,-3,-2,23
1528881694675375,-5,-6,7,6,5,2,4,-14
1528881694675375,-2,-4,-3,-1,2,3,1,-4
1528881694675375,1,-2,-9,-1,-5,-2,-1,1
1528881694697470,-8,-3,0,-20,-9,-5,-4,-8
1528881694697470,6,6,16,38,14,1,4,6
1528881694698457,-2,-4,-9,-5,-3,0,-4,-5
1528881694698457,-1,-1,4,2,5,0,0,2
1528881694720189,7,1,-8,-12,-6,-2,-1,-7
1528881694720189,-2,-3,-5,-13,-6,-1,-5,-4
1528881694720189,1,-2,2,7,1,-1,0,-3
1528881694720189,1,-4,7,-15,-4,-1,1,3
1528881694734390,-4,-3,6,9,3,-1,-2,-6
1528881694734390,-2,3,-11,-2,-6,-4,-1,2
1528881694742860,-8,2,27,8,2,0,-2,-12
1528881694742860,9,-7,-13,-4,1,0,1,18
1528881694756633,-3,0,-17,-5,-5,-2,-3,-15
1528881694756633,2,0,10,-1,0,1,1,9
1528881694757630,9,2,6,-1,3,1,0,-2
1528881694757630,2,-2,-16,-3,0,1,1,1
1528881694779827,-4,-4,27,1,-4,-2,-1,-3
1528881694779827,-2,-3,-1,-1,-1,-6,-4,0
1528881694780599,1,-2,0,-1,-2,-3,2,-6
1528881694780599,2,3,-8,2,1,5,0,-6
1528881694793791,-11,6,5,5,1,-4,-3,4
1528881694793791,6,-2,-1,-9,-6,-2,-2,12
1528881694802777,1,-6,-14,1,5,-1,1,1
1528881694802777,-1,-4,-2,2,0,-2,0,-2
1528881694817662,4,-1,-9,-2,-3,-1,-3,-7
1528881694817662,-2,6,7,-5,-7,-3,-3,-8
1528881694818583,2,-6,-6,-2,-2,1,-1,7
1528881694818583,-4,2,11,3,-1,0,-2,-5
1528881694839529,5,-5,-18,-4,-2,-1,0,2
1528881694839529,3,-2,2,1,1,1,1,5
1528881694840529,-1,0,-13,1,0,1,4,10
1528881694840529,-6,3,1,-7,-5,-4,-10,-30
1528881694854631,0,-4,-3,0,-1,-2,0,4
1528881694854631,0,0,3,1,-3,-2,1,-3
1528881694862467,-5,1,-1,1,2,-1,-3,-6
1528881694862467,-3,-4,1,-2,-2,-3,0,4
1528881694877670,2,3,-6,-2,0,1,-1,2
1528881694877670,-2,1,4,-1,0,0,-2,-3
1528881694877670,-3,6,-10,-7,-2,-1,-3,-3
1528881694877670,0,-7,20,4,-1,-2,1,6
1528881694899368,0,-3,-54,-20,-5,-5,-3,-2
1528881694899368,-3,-7,9,-1,-3,0,-1,0
1528881694900365,-2,2,10,36,9,-1,-3,-1
1528881694900365,2,2,1,-3,-2,1,-1,3
1528881694914328,-2,-3,2,1,-1,2,0,-4
1528881694914328,-2,0,-3,-19,-7,-3,-1,-6
1528881694922360,0,0,-4,-7,-3,-3,-5,1
1528881694922360,-3,-7,-9,-4,-2,-6,-4,-3
1528881694937267,-4,-4,5,-16,-13,1,5,1
1528881694937267,0,2,-10,-15,-2,1,0,-2
1528881694938264,-3,-4,15,41,22,1,-3,-5
1528881694938264,3,4,4,26,16,6,2,-1
1528881694959208,1,1,0,-14,-7,-8,2,10
1528881694959208,-7,-7,-3,-27,-34,-4,-5,-7
1528881694960219,3,3,0,-2,30,12,5,1
1528881694960219,-1,2,3,3,3,-1,-2,-1
1528881694974169,-1,-3,0,7,-1,-3,-4,-5
1528881694974169,-2,-5,-5,-2,-6,-6,-2,-8
1528881694982148,-7,-4,-3,-28,-33,-12,-4,6
1528881694982148,-2,1,-3,-3,0,0,1,3
1528881694997135,2,1,7,-3,1,-3,-2,-2
1528881694997135,-1,-1,2,15,5,1,-1,-1
1528881694998131,-2,-3,-3,1,0,-1,-3,-6
1528881694998131,1,1,4,-2,-3,0,2,5
1528881695020047,0,1,4,17,2,2,-2,-3
1528881695020047,-1,-9,-11,-5,9,1,-2,0
1528881695020047,0,0,1,13,-4,0,-1,-2
1528881695020047,0,0,1,-6,-3,-1,2,-1
1528881695034010,0,1,1,4,-1,1,-3,-1
1528881695034010,1,2,1,3,7,3,2,0
1528881695041988,0,-1,-8,-33,-9,-5,-2,-1
1528881695041988,-3,-4,1,22,-3,-2,-1,-2
1528881695057195,-2,0,-2,1,1,3,-1,-2
1528881695057195,0,3,-2,15,22,3,1,1
1528881695057945,-3,-2,-2,-25,-19,-6,-2,-6
1528881695057945,-1,1,-5,-12,0,0,-2,7
1528881695080977,1,-4,2,4,0,-2,-2,-4
1528881695080977,-1,-2,-2,0,-4,-3,0,0
1528881695080977,1,-2,-2,-3,-4,-2,-1,0
1528881695080977,-4,-3,-4,-7,-2,0,-1,-4
1528881695103853,-3,-3,3,-4,-3,0,-1,-1
1528881695103853,1,0,3,17,4,1,0,1
1528881695103853,-2,-3,-1,-1,-1,-1,1,1
1528881695103853,1,-1,-2,-6,-5,-1,-4,-7
1528881695117050,2,1,-2,-4,3,2,3,12
1528881695117050,-1,-1,-1,-2,1,0,1,-1
1528881695117785,0,-3,0,2,0,-1,-1,-2
1528881695117785,0,0,0,-6,-5,-3,3,9
1528881695140332,-3,0,-1,1,0,-4,-6,-14
1528881695140332,-4,-1,-2,1,-2,-1,-1,-4
1528881695141332,-2,-4,-4,-5,-6,-1,-2,-10
1528881695141332,7,1,-1,-6,-1,-2,-1,-3
1528881695162276,-18,-1,1,3,2,-2,0,-2
1528881695162276,0,-1,0,1,-1,-1,-4,2
1528881695163274,2,-1,-1,-3,-4,-5,-1,3
1528881695163274,3,-1,-2,-2,1,4,5,7
1528881695177893,0,-4,-2,3,1,-1,-4,-14
1528881695177893,3,-1,1,-2,2,4,5,11
1528881695177893,-1,0,-1,-1,0,2,1,1
1528881695177893,-4,-2,-2,-2,-3,-2,-4,-7
1528881695201008,1,-1,-2,-3,-3,-1,0,5
1528881695201008,-2,-3,-2,-9,-7,-3,-3,-4
1528881695201008,0,-1,3,7,3,1,0,-1
1528881695201008,-5,2,-2,-1,-2,-2,3,9
1528881695223270,9,-5,-7,-17,-5,-2,-7,-20
1528881695223270,4,16,18,13,7,1,3,-2
1528881695223926,-3,-65,-26,2,-10,-5,-5,1
1528881695223926,-28,1,13,2,10,4,2,-5
1528881695236911,3,-2,0,-3,-2,-4,-4,21
1528881695236911,-1,0,3,-9,0,4,-2,-29
1528881695237903,29,23,0,-2,10,1,4,42
1528881695237903,-50,28,-1,-5,-8,0,-4,-51
1528881695260410,0,-43,1,13,16,-1,0,2
1528881695260410,-1,6,-5,-3,-7,-6,-3,5
1528881695261144,-1,-7,1,-3,-6,-3,-3,-4
1528881695261144,18,14,4,1,0,-3,-3,7
1528881695283343,5,16,-1,-5,-4,3,3,12
1528881695283343,-5,-10,-6,3,-3,-4,-5,-6
1528881695283343,-9,3,-1,-4,-4,-3,-5,-8
1528881695283343,14,-8,-5,-13,-8,-6,-3,8
1528881695297748,-10,11,13,2,-1,4,2,-9
1528881695297748,7,-11,-15,9,0,-5,4,10
1528881695297748,-12,11,2,-6,-2,-1,4,-9
1528881695297748,2,-10,-9,4,3,3,0,-6
1528881695321018,6,4,2,1,-1,-4,-4,0
1528881695321018,-3,-3,-1,-10,-4,0,-1,4
1528881695321018,3,9,5,-3,0,-5,2,-1
1528881695321018,4,-24,-9,0,4,13,1,1
1528881695342684,-5,-2,-8,0,3,4,2,-3
1528881695342684,1,0,-1,-7,-5,3,-4,-1
1528881695343661,-7,-2,5,1,-2,-3,-4,-9
1528881695343661,9,-5,2,-2,-4,-5,-3,7
1528881695356919,-3,10,-9,0,-3,-5,0,0
1528881695356919,-6,1,2,-2,-1,-2,-1,-2
1528881695357906,-6,7,3,12,2,1,2,4
1528881695357906,7,-4,4,-2,-2,-6,-10,-24
1528881695380423,-2,3,21,1,-1,3,2,0
1528881695380423,-1,-2,-13,-6,-1,-6,-3,0
1528881695381423,-3,1,-3,-8,0,1,0,-8
1528881695381423,4,1,4,-1,1,-1,2,13
1528881695403554,3,2,2,-1,-6,-15,-7,-1
1528881695403554,-3,-7,-2,14,10,17,6,-1
1528881695403554,-2,2,2,-4,-3,0,-2,-2
1528881695403554,0,1,1,3,0,-2,1,5
1528881695417263,-1,1,-8,-11,-2,0,2,-4
1528881695417263,-4,-1,1,-5,-2,-9,-1,2
1528881695417958,0,0,-14,1,-1,1,-1,-5
1528881695417958,0,-3,-4,-6,-6,-6,1,3
1528881695440930,-2,1,-3,6,4,3,0,-2
1528881695440930,0,0,1,1,-3,-3,-3,1
1528881695440930,-3,1,5,-1,1,1,-3,-4
1528881695440930,2,-2,-7,-4,-6,-3,-4,4
1528881695462840,-1,-3,-6,2,0,3,-2,1
1528881695462840,-2,0,4,1,-1,0,-2,0
1528881695463834,0,2,-6,-9,-2,-2,-5,-4
1528881695463834,-2,-3,-6,-1,-1,-2,-1,2
1528881695476800,-1,1,-5,3,0,1,3,0
1528881695476800,-3,1,-2,-5,-3,-3,1,-2
1528881695477798,-1,1,-2,-1,-1,-1,0,-4
1528881695477798,1,0,-2,3,0,-2,0,1
1528881695500332,1,-2,-1,2,-1,0,0,-2
1528881695500332,-2,-2,-2,-6,-2,-2,1,-2
1528881695501056,0,-2,2,1,-1,-1,0,-1
1528881695501056,-1,-2,-3,1,-1,0,-3,-2
1528881695523299,-1,-3,0,0,-2,0,0,1
1528881695523299,-1,-1,-2,-1,-3,-3,-2,0
1528881695523995,-2,-4,-3,-3,-3,-2,-4,-2
1528881695523995,-3,0,3,0,1,0,2,-2
1528881695537678,-1,0,-5,1,-2,-1,-2,-1
1528881695537678,-1,-4,-2,1,3,1,-2,-3
1528881695537678,0,0,2,0,-1,0,-1,-2
1528881695537678,0,-1,-2,-1,-1,-2,-1,0
1528881695560516,-1,-1,-2,-1,-1,-1,-1,-1
