timestamp,emg1,emg2,emg3,emg4,emg5,emg6,emg7,emg8
1528874169097018,10,9,1,8,-1,0,-2,1
1528874169097018,1,3,0,-10,-2,-1,1,1
1528874169106007,-4,-15,-2,5,1,1,0,-1
1528874169106007,1,13,3,-1,1,0,0,0
1528874169106991,3,-3,5,3,2,1,0,-1
1528874169106991,1,11,3,3,-2,-1,0,2
1528874169107988,-1,-2,3,-7,-3,-1,-1,-1
1528874169107988,-8,-34,-17,-2,-1,-1,-1,-3
1528874169109983,-7,-8,-3,0,-2,-1,-1,-2
1528874169109983,2,28,11,0,0,-2,-3,-3
1528874169125940,9,3,-1,-2,-1,-1,-1,-1
1528874169125940,2,24,12,3,0,2,1,2
1528874169132922,3,-13,-9,1,1,1,1,1
1528874169132922,-5,-9,-1,-1,-1,0,0,0
1528874169140900,-4,-1,-7,-4,-2,-1,-2,-2
1528874169140900,-3,-25,-12,-8,-6,-3,-2,-2
1528874169154863,-6,1,4,-2,-1,-1,-2,-4
1528874169154863,1,3,-9,2,0,1,0,-1
1528874169164836,-2,-3,12,6,1,2,0,-4
1528874169164836,-6,-25,-17,-6,-2,-3,-2,-3
1528874169170820,-8,6,6,-6,-4,-6,-3,-4
1528874169170820,18,41,4,3,1,-1,0,3
1528874169216698,-11,-11,9,2,1,0,1,0
1528874169216698,-13,2,2,-4,0,3,-2,-3
1528874169217695,-4,-19,-15,-4,-2,-10,-1,-3
1528874169217695,-5,4,0,-2,0,4,-2,-2
1528874169218694,0,-14,-19,-4,-5,-5,0,-3
1528874169218694,3,-5,6,3,2,1,-1,1
1528874169221685,-6,-2,8,-1,-1,3,0,-1
1528874169221685,0,3,-3,0,0,-3,-1,-1
1528874169229663,-1,-4,-8,-5,0,0,-4,-2
1528874169229663,-4,-13,-9,-4,-5,-5,-2,-2
1528874169238640,3,30,11,0,-1,-4,0,1
1528874169238640,2,-2,-1,6,2,3,4,2
1528874169244623,-11,-19,5,-4,-2,2,-2,-4
1528874169244623,9,43,4,4,3,2,1,0
1528874169261578,21,-4,4,2,2,0,0,5
1528874169261578,-9,-11,0,-1,-2,-6,-3,-3
1528874169266577,1,4,-11,0,1,-3,-3,-2
1528874169266577,-9,-31,-8,-6,-3,-2,-3,-1
1528874169275540,-7,4,0,-3,-3,-1,-1,-3
1528874169275540,-4,-22,-2,-3,0,1,-1,-2
1528874169289502,5,31,9,2,1,0,1,2
1528874169289502,4,-4,-3,1,0,-5,-2,-2
1528874169298480,-8,-12,-8,1,2,3,0,-1
1528874169298480,2,14,10,-1,0,0,-1,-1
1528874169304464,-2,-11,-3,-6,-2,-3,-1,0
1528874169304464,-3,-10,-12,-3,-3,0,0,1
1528874169321417,0,5,-1,1,0,1,0,-1
1528874169321417,8,21,5,5,1,0,-1,1
1528874169326405,8,-19,-2,1,0,0,-1,2
1528874169326405,-10,2,-2,-2,0,1,1,-3
1528874169335380,-2,-10,-8,-6,-5,-1,-1,1
1528874169335380,-6,0,4,-3,-4,-3,-1,0
1528874169349343,13,31,11,11,3,3,4,4
1528874169349343,-2,-21,-10,-5,-3,0,-1,-2
1528874169358319,-12,-17,-1,0,3,1,-3,-4
1528874169358319,1,2,-10,-5,-8,-2,-3,-2
1528874169364303,1,-4,4,0,-1,-4,0,0
1528874169364303,-2,-5,-3,4,1,1,-1,0
1528874169380261,3,32,21,1,1,2,-1,-2
1528874169380261,-7,-24,-16,-7,-1,-2,0,-3
1528874169386244,-12,-45,-18,-2,1,3,-1,-2
1528874169386244,7,23,3,0,-1,-1,0,0
1528874169395220,3,16,10,1,-1,-5,0,-1
1528874169395220,7,16,-1,2,1,1,1,1
1528874169409228,-3,4,-1,-7,-3,-1,-1,-1
1528874169409228,-15,-46,-7,-3,-2,-2,-2,-4
1528874169418160,-8,-8,-17,-3,-3,1,-2,-2
1528874169418160,11,7,3,2,1,-3,-1,1
1528874169424171,-6,6,-5,-4,-1,1,1,-1
1528874169424171,7,27,24,8,10,6,1,2
1528874169441098,2,-8,-3,-3,-8,-4,1,1
1528874169441098,-2,-4,3,2,3,2,-3,-2
1528874169447082,1,9,10,5,-2,-4,-3,0
1528874169447082,2,1,-18,-8,-1,-1,2,1
1528874169456058,-2,-3,45,17,3,5,3,1
1528874169456058,-3,-1,-14,-7,-4,-9,-3,-3
1528874169469030,-3,-10,0,0,-1,-1,-2,-3
1528874169469030,1,1,-5,1,1,-1,-1,-1
1528874169478015,9,19,7,2,4,4,1,3
1528874169478015,-6,-11,5,0,-1,2,0,-1
1528874169484036,-7,-13,-13,-7,-3,-3,-3,-4
1528874169484036,1,0,12,1,-5,-7,-3,-1
1528874169500937,4,16,-20,-6,0,0,-1,1
1528874169500937,13,14,23,8,3,2,3,5
1528874169506959,4,12,-3,-3,-2,-1,2,2
1528874169506959,-11,-23,-13,-5,2,5,1,-3
1528874169515911,0,1,-16,-9,-10,-12,-6,-3
1528874169515911,-8,-25,-14,0,-2,-3,1,0
1528874169528900,13,48,41,15,5,4,2,2
1528874169528900,3,-10,0,-5,-3,-3,0,3
1528874169537893,-23,-44,-32,-16,-7,0,-3,-8
1528874169537893,19,48,16,8,4,5,2,2
1528874169543823,0,-26,1,-2,3,-7,2,2
1528874169543823,11,36,9,5,-1,0,-2,1
1528874169560778,-1,-22,-9,-1,3,5,2,1
1528874169560778,-21,-35,-28,-17,-6,-4,-4,-8
1528874169566762,-6,-2,-1,3,0,3,-1,-4
1528874169566762,6,2,1,-1,0,-1,2,-2
1528874169575737,3,7,8,4,1,-1,-1,1
1528874169575737,-13,-34,-13,-4,0,1,-1,-2
1528874169588749,4,46,13,-2,0,2,1,0
1528874169588749,11,14,8,3,0,-3,1,4
1528874169598725,2,-14,-2,1,-2,-2,-2,-1
1528874169598725,2,-3,3,6,3,-2,-1,2
1528874169604689,-4,-5,-9,-4,-1,3,0,-2
1528874169604689,1,19,2,2,-3,1,2,-1
1528874169620628,6,18,18,2,3,1,0,4
1528874169620628,-6,-22,-8,-4,-5,-5,-2,-2
1528874169626603,-9,-25,-21,-4,-4,3,-3,-3
1528874169626603,2,1,0,-4,0,-1,2,1
1528874169635579,-5,4,4,0,-1,-7,-5,-5
1528874169635579,1,5,-8,-5,2,6,2,-1
1528874169649554,-8,-40,-32,-11,-6,-5,-1,-3
1528874169649554,2,34,41,16,2,2,0,1
1528874169658518,5,-7,-4,3,3,3,5,5
1528874169658518,0,15,3,-5,-3,2,0,-2
1528874169664502,6,7,4,5,2,-2,-4,0
1528874169664502,-12,-37,-28,-11,-2,-5,-4,-4
1528874169680458,-5,-11,-13,-5,0,1,1,-2
1528874169680458,9,12,6,8,2,0,-1,3
1528874169686443,-10,-19,-1,-8,-2,1,1,-3
1528874169686443,5,20,9,3,2,0,-2,1
1528874169701450,6,12,4,4,-1,-6,-3,-2
1528874169701450,-6,-9,-5,-3,0,2,1,-1
1528874169709429,1,2,5,1,-3,-4,0,0
1528874169709429,-5,-15,-13,-6,-2,2,0,-1
1528874169718357,2,1,-8,-3,0,3,0,0
1528874169718357,2,3,5,-3,-1,-2,-2,0
1528874169724342,-1,0,-6,5,-1,-2,-3,-2
1528874169724342,0,-8,18,13,2,-2,-1,1
1528874169740298,-2,-11,-6,-5,-3,0,1,-2
1528874169740298,-3,8,3,-6,0,0,4,-1
1528874169746319,13,31,23,5,-1,-1,-4,5
1528874169746319,-3,-15,-5,1,-4,-3,-1,-2
1528874169761286,-3,-4,1,4,3,1,0,2
1528874169761286,0,8,20,12,3,6,1,-1
1528874169769250,-1,-1,-5,-6,-1,-1,1,-1
1528874169769250,1,2,-8,-5,-6,-10,-5,-2
1528874169778196,-4,-8,-5,-10,-4,2,-2,-2
1528874169778196,-3,-15,-33,-11,1,-2,0,-2
1528874169784212,1,4,15,7,3,3,2,0
1528874169784212,4,9,19,15,0,0,0,2
1528874169801191,-5,-5,-20,-14,-1,-1,-1,-2
1528874169801191,-4,-11,1,-9,-5,-4,-4,1
1528874169807120,-3,-9,-10,-1,1,-9,-5,-3
1528874169807120,3,26,41,23,-12,-8,-2,2
1528874169822119,-1,-4,-4,3,-1,0,3,-1
1528874169822119,7,25,62,28,8,2,3,5
1528874169829853,-6,-23,-58,-28,-15,-2,-3,-5
1528874169829853,-1,-2,24,28,15,-2,-2,-2
1528874169837900,6,26,41,12,2,-2,-3,1
1528874169837900,-6,-12,-24,-25,-12,-5,-3,-4
1528874169851961,2,11,5,17,6,0,-3,-1
1528874169851961,-5,-13,-29,-28,-2,5,0,-2
1528874169860773,-1,-2,-1,12,-2,-2,-2,-1
1528874169860773,-2,-6,-12,-13,-2,-3,-3,-4
1528874169866812,-2,-2,-5,-9,-1,2,1,-2
1528874169866812,-2,-4,-15,-14,-3,1,0,-1
1528874169881750,-10,-4,13,2,5,-1,-2,-3
1528874169881750,23,14,8,15,-1,0,1,11
1528874169888732,-4,-11,-41,-27,-1,1,2,-2
1528874169888732,-5,-5,12,8,-3,-1,-1,-2
1528874169898763,-9,2,0,0,-1,-2,-2,-3
1528874169898763,6,-1,2,7,-1,-3,-4,-2
1528874169904677,-1,-3,5,3,-1,-2,-1,3
1528874169904677,-34,-27,-16,-13,0,2,-5,-20
1528874169920614,-42,-9,-14,-12,-6,-4,5,-6
1528874169920614,77,63,16,8,5,8,11,43
1528874169926759,-8,7,25,14,4,0,0,-2
1528874169926759,21,-1,-19,-16,-5,0,0,10
1528874169941557,-17,-18,-8,0,3,-3,-3,-10
1528874169941557,-27,-13,0,2,-1,-4,-4,-14
1528874169949667,-2,-2,2,0,0,3,3,0
1528874169949667,2,6,12,-2,0,1,1,-1
1528874169958651,16,1,-5,0,-2,-1,0,2
1528874169958651,-16,-23,-17,0,-1,-3,-1,-9
1528874169964651,8,17,16,-7,0,2,1,0
1528874169964651,-17,-13,-15,-13,-5,-3,0,-8
1528874169980482,26,16,9,5,4,3,4,11
1528874169980482,-16,-14,-20,-11,-2,-2,-5,-9
1528874169986437,-13,-16,-13,-3,0,2,0,-3
1528874169986437,5,1,-3,-3,-2,-2,1,5
1528874170001431,7,-1,-3,-2,-7,-2,-4,1
1528874170001431,-9,2,-12,-5,-3,-4,-2,-5
1528874170009405,4,8,17,6,0,-1,-1,2
1528874170009405,9,5,-13,-2,2,-1,2,3
1528874170018351,5,0,10,2,0,-1,0,0
1528874170018351,-20,-15,-9,-10,-2,1,-3,-12
1528874170031677,8,4,4,8,1,-2,1,3
1528874170031677,-3,5,10,6,6,4,-1,-2
1528874170040494,3,9,5,3,2,-3,2,1
1528874170040494,-1,-7,-13,-3,-3,0,1,0
1528874170046616,-1,10,27,21,6,2,2,0
1528874170046616,-1,-9,0,-4,-4,1,-1,2
1528874170061438,2,-3,-8,-10,-4,3,-1,-3
1528874170061438,-6,1,14,14,1,-1,-3,-1
1528874170069437,-1,-3,-17,-16,-2,-3,-1,0
1528874170069437,8,16,17,9,1,5,2,0
1528874170079462,0,-2,-6,-1,2,0,-1,1
1528874170079462,-8,-9,1,-5,-5,-3,-2,-5
1528874170091494,-11,-15,-18,-12,-2,-5,-5,-3
1528874170091494,2,6,7,5,4,-1,2,4
1528874170100416,6,-1,-5,-3,-2,2,0,2
1528874170100416,-1,-2,-2,-2,1,2,2,-2
1528874170107316,-10,0,11,8,0,-1,-2,-6
1528874170107316,1,-6,-13,-9,-3,-2,-2,3
1528874170122276,5,0,-10,2,0,1,-1,5
1528874170122276,-5,1,17,6,2,2,1,1
1528874170129258,2,5,7,1,-3,-2,0,-1
1528874170129258,-9,-16,-23,-8,-3,-4,-2,-4
1528874170138234,-2,5,9,5,0,1,0,-3
1528874170138234,3,3,-1,1,1,-1,-2,0
1528874170152400,-3,1,1,-10,-2,-1,0,0
1528874170152400,1,-5,-12,-9,-3,-3,-2,-1
1528874170159436,-7,-6,-6,-6,-2,-5,-4,-3
1528874170159436,-1,4,-3,5,-4,-6,-2,-3
1528874170166364,6,4,6,8,3,3,-1,1
1528874170166364,-3,-3,-5,-1,5,2,-1,-1
1528874170181323,3,2,-4,-11,-5,-2,-2,-2
1528874170181323,0,-1,0,-3,-5,-6,-3,-2
1528874170189354,3,0,0,-2,-4,0,0,2
1528874170189354,-1,0,-6,0,0,0,1,-1
1528874170204317,-3,-1,2,3,1,0,-1,-2
1528874170204317,-3,-4,-7,-3,-3,1,-1,0
1528874170211282,4,6,18,8,0,-2,-2,0
1528874170211282,1,0,-3,1,1,5,0,0
1528874170227252,-4,-3,-1,0,-3,-4,-2,-1
1528874170227252,-3,-5,-11,-9,-1,-2,0,-1
1528874170228197,7,4,-4,0,-1,0,0,2
1528874170228197,-3,1,2,1,1,0,0,-2
1528874170242168,2,-1,-2,0,0,-1,1,-2
1528874170242168,-1,-1,3,1,0,-2,-2,-1
1528874170249192,-1,-2,-11,-4,0,-4,0,-1
1528874170249192,-2,-7,-1,-1,-2,-5,-2,0
1528874170264102,2,6,7,5,4,3,1,3
1528874170264102,3,6,9,2,3,0,0,1
1528874170272133,0,-2,-1,-1,1,0,0,1
1528874170272133,-2,-4,-6,-3,-3,-2,-2,-4
1528874170287041,-1,-5,-1,-2,-1,-2,-1,0
1528874170287041,-2,0,2,-1,2,3,1,-1
1528874170288039,3,-3,2,3,0,0,-1,1
1528874170288039,-1,4,-3,-2,1,-5,-1,0
1528874170302017,6,4,2,0,2,0,0,1
1528874170302017,-1,-2,-2,0,-1,1,0,1
1528874170309037,-2,-5,-2,-2,-2,-2,0,-2
1528874170309037,0,-3,0,-1,-1,-1,1,-1
1528874170324002,-3,-5,-1,2,2,0,1,-1
1528874170324002,2,5,3,1,0,1,2,2
1528874170331975,2,1,1,0,-1,1,-2,1
1528874170331975,0,-4,-5,-2,-1,1,0,1
1528874170346938,-3,0,4,-2,-3,0,0,-1
1528874170346938,0,0,-2,-1,1,4,-1,-1
1528874170347917,-6,-6,-6,-4,-1,3,0,-4
1528874170347917,-1,6,10,1,0,2,1,1
1528874170362891,-1,-3,-4,1,1,2,-1,-1
1528874170362891,1,0,1,0,0,1,-1,-2
1528874170368853,0,-1,-2,-2,0,-2,-1,0
1528874170368853,3,-11,-5,-3,-1,-1,0,1
1528874170383839,-2,4,-4,-3,-3,-3,-3,-1
1528874170383839,-1,5,7,2,1,-1,-1,1
1528874170391818,1,3,2,3,1,-2,-1,1
1528874170391818,-5,-3,-2,-3,-6,-4,-1,-2
1528874170408729,-2,-6,-1,-3,-3,-1,-1,0
1528874170408729,0,-8,-8,-4,-2,-2,-1,-2
1528874170409713,0,-3,-5,-3,-3,-1,0,0
1528874170409713,3,12,11,4,3,0,0,0
1528874170421726,2,0,1,4,-1,0,0,1
1528874170421726,0,1,1,-2,1,0,-1,1
1528874170428708,-3,-7,-2,-2,-1,0,-1,-1
1528874170428708,-6,-7,-8,-5,-4,-1,-3,-3
1528874170443674,2,1,-4,-2,1,-1,-1,0
1528874170443674,-1,1,2,3,2,0,-1,-1
1528874170451657,4,9,3,1,-1,-2,-1,1
1528874170451657,0,3,1,1,0,0,0,0
1528874170467610,-5,-7,-4,-3,-2,0,0,-2
1528874170467610,-3,-5,-4,-2,-2,-2,-2,-2
1528874170468613,0,-1,-1,1,1,-1,1,-1
1528874170468613,1,2,-1,0,0,0,1,0
1528874170481664,0,-1,-1,0,-1,-1,0,0
1528874170481664,-5,-13,-10,-2,-2,-2,-1,-1
1528874170489747,-2,15,8,-1,-2,-2,-2,0
1528874170489747,4,4,2,5,3,0,-1,-1
1528874170504818,-2,-4,0,0,3,2,1,0
1528874170504818,-1,-1,-4,0,0,0,0,-2
1528874170511924,-3,-8,-3,-6,-2,0,-1,-1
1528874170511924,-3,-5,-3,0,-2,-2,-1,0
1528874170527877,1,4,-1,1,-2,-1,-2,-1
1528874170527877,3,5,5,7,4,1,1,1
1528874170528776,-1,-3,-1,-2,1,-2,0,-1
1528874170528776,-2,-13,-6,-2,-2,-1,0,-1
1528874170541931,-3,7,-1,-4,-2,-2,-1,-2
1528874170541931,1,7,8,5,-2,-3,-1,0
1528874170549038,0,-6,-3,-3,2,-1,1,-1
1528874170549038,0,-1,-4,-10,-5,-2,-1,-1
1528874170564843,-3,-9,-4,-2,-1,1,-2,-1
1528874170564843,-1,-2,-2,-1,-1,-2,0,-1
1528874170572948,0,0,-1,-1,-4,0,-3,0
1528874170572948,0,-1,-1,0,1,0,0,-2
1528874170586960,-2,-3,1,6,2,1,-1,1
1528874170586960,-1,2,2,-6,-4,-2,-1,0
1528874170587956,0,-4,-5,-2,-5,0,0,-1
1528874170587956,0,2,-2,6,2,0,3,1
1528874170601939,2,0,3,2,2,0,2,0
1528874170601939,-3,-17,-8,-11,0,8,3,0
1528874170609908,-1,7,1,4,2,-2,0,0
1528874170609908,1,15,8,-4,-3,-1,-1,-1
1528874170624027,3,0,0,0,-2,0,0,0
1528874170624027,-2,-2,-3,6,-1,-2,-1,-2
1528874170632071,-1,-1,-3,-4,-1,-1,-1,-2
1528874170632071,3,2,-5,-21,-6,-1,0,0
1528874170647318,1,3,3,15,5,-1,0,0
1528874170647318,-2,-4,-2,3,4,1,-1,0
1528874170648173,-2,-3,3,3,-3,-2,-2,0
1528874170648173,-3,0,1,-5,-2,-1,-3,-1
1528874170662136,-1,-2,-3,-1,-3,0,0,0
1528874170662136,-1,2,0,-13,-2,-2,-2,-2
1528874170669118,-2,-2,0,11,1,-5,-3,-3
1528874170669118,2,-1,1,6,-14,-21,-6,0
1528874170684233,-2,-4,-1,-6,-1,6,2,0
1528874170684233,-6,0,-1,4,0,-1,0,-1
1528874170692212,12,2,-2,-13,-1,-3,1,5
1528874170692212,-3,-6,-4,-3,6,0,-1,0
1528874170707473,2,1,5,10,5,-1,0,-1
1528874170707473,-1,3,-4,-24,-10,-4,1,1
1528874170708351,-2,-5,-4,9,2,0,-2,-1
1528874170708351,-1,-2,-1,0,0,4,2,-1
1528874170722326,-1,0,-1,-2,-2,-4,-3,-3
1528874170722326,1,2,1,-4,-6,-1,-2,1
1528874170729415,-1,-4,-2,-1,2,3,0,0
1528874170729415,1,1,-1,1,-1,2,0,1
1528874170744397,-1,-1,-1,-2,1,0,1,0
1528874170744397,1,2,1,11,0,-5,-2,0
1528874170752217,-2,1,0,-2,2,2,0,-3
1528874170752217,-3,-1,2,13,9,2,0,-2
1528874170767334,0,-3,-3,-9,-5,-5,-2,-1
1528874170767334,1,-1,-1,0,0,1,-2,-1
1528874170768176,-2,-1,1,0,1,5,2,-1
1528874170768176,-1,-1,-2,-3,1,3,1,1
1528874170782273,1,1,0,1,-2,-6,-3,0
1528874170782273,2,-2,-3,-5,-1,1,2,0
1528874170789275,0,2,3,5,9,10,2,0
1528874170789275,0,-3,0,2,-1,-2,-3,-1
1528874170804417,-1,-1,-4,-4,-2,1,1,-2
1528874170804417,0,2,4,19,12,0,1,0
1528874170812391,0,0,0,-9,-4,-5,-2,0
1528874170812391,-1,0,1,12,8,12,2,1
1528874170827351,-1,-1,-3,-8,2,2,1,-1
1528874170827351,-1,-1,0,2,-3,-3,-2,-2
1528874170828203,-2,0,-1,-2,-4,1,-1,1
1528874170828203,-3,-2,0,-2,-2,-3,0,-3
1528874170841779,-2,-2,-1,2,-5,-5,-2,-1
1528874170841779,1,3,2,2,1,-1,0,0
1528874170848982,-1,-2,-3,-3,-5,-5,-1,-2
1528874170848982,0,-1,0,-1,1,2,0,0
1528874170864810,-2,-2,-1,-5,-5,-3,-1,-1
1528874170864810,-2,-2,-3,7,0,-1,0,-3
1528874170871956,-1,1,0,0,-2,-3,-1,1
1528874170871956,1,-1,-1,-7,-3,-2,-2,-1
1528874170887097,0,-1,0,2,-1,1,-2,-1
1528874170887097,-5,-2,-2,1,8,5,-2,-2
1528874170888095,-3,-4,-1,-4,-3,-2,0,-3
1528874170888095,10,1,-1,1,-2,-1,0,2
1528874170902057,-1,1,-1,-1,0,0,-1,0
1528874170902057,0,-1,-1,-3,-3,0,-1,-1
1528874170909530,-5,-1,-1,5,-2,-3,1,-1
1528874170909530,-3,-2,-1,-7,-2,1,2,-1
1528874170924717,0,-2,-4,-10,-3,0,-1,-1
1528874170924717,-2,-1,-1,-3,1,-1,-1,-2
1528874170932570,2,-2,1,3,-1,0,-1,-2
1528874170932570,-3,-1,0,0,-1,-1,1,-2
1528874170947672,-2,-3,-2,7,0,-3,-1,-1
1528874170947672,1,1,0,-7,-7,-1,0,2
1528874170948670,1,0,-1,-2,0,-1,1,0
1528874170948670,0,0,0,4,-1,-2,-2,-3
1528874170961850,-3,-2,-1,-11,-4,1,2,-2
1528874170961850,-2,-3,0,5,1,-2,-2,-2
1528874170969665,2,-2,-2,-1,0,-1,0,0
1528874170969665,-3,-1,-1,-3,-1,0,-1,-1
1528874170984110,2,1,0,0,1,0,-1,-1
1528874170984110,1,1,1,-2,-5,-5,0,0
1528874170992995,-2,-1,0,2,-2,2,0,0
1528874170992995,-3,-3,-4,-4,-11,-11,-3,-3
1528874171007274,2,0,2,3,10,10,4,1
1528874171007274,0,-1,-3,-9,-3,0,-1,-1
1528874171015364,-3,-1,-2,-4,-11,-12,-4,-2
1528874171015364,-1,-1,-1,0,-2,-1,0,0
1528874171022245,-2,-2,0,0,-4,-2,-3,1
1528874171022245,2,1,0,4,2,-1,-1,-1
1528874171029372,1,1,0,-2,0,3,1,0
1528874171029372,1,1,3,4,7,-1,1,0
1528874171044552,-1,-1,1,4,-2,-5,0,-1
1528874171044552,-1,-1,-1,-6,-6,-2,-2,0
1528874171052523,-1,2,2,-1,1,-1,-2,-2
1528874171052523,-1,1,1,-2,0,1,1,-1
1528874171066486,-1,0,-1,-1,0,2,-1,-2
1528874171066486,-1,1,2,7,1,-6,-2,0
1528874171075505,0,0,2,2,1,0,-2,0
1528874171075505,-1,-3,-5,-7,2,2,1,0
1528874171081601,-1,-1,0,-1,-1,-1,-1,0
1528874171081601,1,0,-4,-8,-5,1,2,0
1528874171089622,1,-1,-1,3,9,8,4,2
1528874171089622,-1,0,-1,0,-2,-2,-1,-2
1528874171104808,-4,-4,-5,-11,-40,-19,-10,-5
1528874171104808,-1,-2,-2,-6,5,7,1,-1
1528874171112899,-1,-1,0,1,6,3,0,-3
1528874171112899,0,1,0,6,0,0,-1,2
1528874171126866,-4,-3,-5,-7,-21,-10,-3,-2
1528874171126866,-1,-4,-4,-1,-7,-3,-2,-3
1528874171134836,1,-4,-3,-3,0,4,2,-1
1528874171134836,-4,-4,-2,-8,-24,-7,-6,-4
1528874171141663,0,1,-5,-17,-39,-15,-4,-3
1528874171141663,-3,-2,1,13,32,18,7,1
1528874171149763,0,-2,-1,-5,-10,-14,-1,0
1528874171149763,2,0,0,10,51,35,11,5
1528874171164813,-3,1,2,5,27,3,2,-3
1528874171164813,0,-2,-2,-12,-17,7,-3,-4
1528874171172950,2,3,3,7,23,4,0,1
1528874171172950,-2,0,3,1,8,-7,-2,1
1528874171187112,3,0,1,8,-3,-9,-1,2
1528874171187112,-4,1,2,1,4,-1,0,0
1528874171195090,-1,-1,-1,-1,0,-6,0,0
1528874171195090,1,1,0,-11,-25,-12,-4,-1
1528874171210045,-1,0,-1,3,20,14,5,0
1528874171210045,0,-2,0,-3,-13,-12,-3,0
1528874171210887,-2,-2,-4,-5,-19,-5,-4,-3
1528874171210887,0,-2,-2,-1,3,-1,2,0
1528874171224743,-1,1,3,1,9,8,2,1
1528874171224743,2,1,-1,2,2,0,1,2
1528874171232766,-1,-1,0,0,1,3,-2,0
1528874171232766,-1,0,-3,0,-5,-1,-1,-3
1528874171246731,3,-1,1,1,14,2,1,2
1528874171246731,0,1,2,3,0,-11,-2,0
1528874171254666,-2,-1,0,-7,-1,0,-1,-1
1528874171254666,0,0,1,6,-5,-4,-2,-2
1528874171269628,0,-2,-2,2,1,1,0,0
1528874171269628,1,1,1,1,6,-3,-2,-1
1528874171270623,-2,-1,-1,-2,-7,5,0,-2
1528874171270623,-2,-1,-1,2,13,11,3,-1
1528874171284602,1,2,0,1,7,4,0,0
1528874171284602,-1,0,-1,-2,-9,0,-2,-3
1528874171292564,0,-1,-2,0,3,1,1,-1
1528874171292564,-2,-1,1,-2,-8,-7,-3,0
1528874171306526,0,-2,-1,0,2,3,-1,0
1528874171306526,0,0,-1,-4,-1,0,3,-1
1528874171314534,-2,0,-2,2,-4,-4,-1,0
1528874171314534,0,-1,-1,-5,-5,-5,-1,-1
1528874171329514,0,0,0,0,4,3,-1,1
1528874171329514,-2,-1,-1,-2,-4,0,-2,1
1528874171330472,-1,-1,0,1,-2,-1,1,-1
1528874171330472,0,-1,-2,-5,-5,-1,-1,-1
1528874171344581,0,-1,2,-2,5,1,0,-1
1528874171344581,0,-1,-3,2,-4,-1,-1,-1
1528874171352404,0,0,4,5,3,-1,-1,0
1528874171352404,-1,0,2,7,1,1,-3,-1
1528874171366529,-1,-2,-4,-10,-5,0,-1,-1
1528874171366529,2,-2,-4,-9,-2,1,0,1
1528874171375504,-1,0,-1,-2,0,0,-2,0
1528874171375504,-1,-1,0,-3,-3,-3,-1,-1
1528874171390502,-1,-2,-1,-1,1,-1,0,-2
1528874171390502,-2,0,0,4,2,-1,-1,-1
1528874171390502,-1,-2,-3,-4,-3,-3,-2,-1
1528874171390502,-1,1,0,3,-2,-3,-1,0
1528874171403904,-1,0,-1,2,0,2,-1,2
1528874171403904,-2,-2,0,-2,-1,-2,-1,-2
1528874171412985,0,0,1,1,-1,-2,-1,0
1528874171412985,0,0,-2,-1,-2,-1,0,2
1528874171426949,-1,-1,0,1,2,1,-1,0
1528874171426949,0,0,-1,2,1,0,0,-1
1528874171435163,0,-1,0,-1,2,-1,0,-2
1528874171435163,-1,0,0,0,-1,-1,-1,-1
1528874171450063,0,-1,-1,-4,-3,0,-1,0
1528874171450063,-1,0,-1,2,0,0,-1,-2
1528874171451218,0,0,-2,-1,-4,-4,-1,-2
1528874171451218,-1,-1,-3,-2,-2,-1,0,-2
1528874171473054,0,3,3,2,0,0,-1,-2
1528874171473054,-2,0,1,3,3,1,0,-1
1528874171473998,0,-1,-1,-2,-1,0,-2,0
1528874171473998,1,-2,-2,-2,-2,-1,-2,0
1528874171487154,0,-4,-1,1,1,-1,-1,-2
1528874171487154,1,1,-2,-2,-2,0,-1,-1
1528874171502114,1,3,0,-2,0,-1,0,2
1528874171502114,-1,-1,1,-4,-2,1,1,1
1528874171510231,-2,-1,-1,2,1,-1,0,0
1528874171510231,-1,-1,1,0,-1,0,-1,-1
1528874171511232,-1,-2,-1,-1,0,0,0,-1
1528874171511232,-1,-1,-1,-1,-3,-1,0,-1
1528874171524197,-2,-2,-3,0,0,-2,0,1
1528874171524197,-1,-11,-5,-3,-2,0,0,0
1528874171532191,-2,0,-3,-2,0,0,-1,-2
1528874171532191,1,13,6,0,-2,-1,-1,0
1528874171547133,5,2,1,1,-1,0,0,0
1528874171547133,1,0,1,1,1,0,0,0
1528874171554976,-4,-7,-3,-3,-2,-1,-2,-1
1528874171554976,-2,-9,-8,-2,1,0,-1,-4
1528874171569960,-2,1,0,0,-3,-1,-1,-2
1528874171569960,-2,-2,-1,7,3,0,0,-1
1528874171570958,2,4,8,2,-1,0,0,1
1528874171570958,1,0,1,0,-4,-4,-1,0
1528874171583926,-1,-2,-2,-1,0,-1,0,1
1528874171583926,0,1,-4,-5,-3,0,-1,1
1528874171592903,-2,-2,-3,1,-2,-1,-2,-2
1528874171592903,0,0,1,2,-1,0,0,-2
1528874171606996,-2,-2,-4,-5,-1,-1,0,-1
1528874171606996,-2,-1,-2,0,-5,-5,-1,0
1528874171615038,1,3,2,-5,4,3,1,0
1528874171615038,0,-1,-2,0,0,-2,-2,-1
1528874171630269,-1,-1,2,2,4,1,-1,-1
1528874171630269,0,2,1,0,0,1,-1,0
1528874171631215,1,0,-3,-3,-6,-6,-2,0
1528874171631215,-1,-3,-1,0,0,0,-2,1
1528874171644676,-1,-1,-1,-2,-1,1,2,1
1528874171644676,2,1,1,-3,-2,0,-1,1
1528874171652802,-1,-3,-4,-4,-1,0,1,-1
1528874171652802,-1,-2,-1,3,1,-1,-1,-2
1528874171666734,0,0,-1,0,0,0,-1,-1
