timestamp,emg1,emg2,emg3,emg4,emg5,emg6,emg7,emg8
1528884696453197,-2,0,-2,4,3,0,0,-1
1528884696453197,-3,-3,-3,-24,-14,-4,-2,-2
1528884696460176,-2,-5,-4,0,-5,-4,-4,-1
1528884696460176,4,3,0,0,-8,-3,-1,0
1528884696475136,-8,-1,-2,-5,2,3,-1,-4
1528884696475136,-1,0,2,4,1,2,2,-3
1528884696490042,2,0,1,-18,-16,-7,-3,-1
1528884696490042,0,-1,-2,9,-12,-8,-2,-1
1528884696498022,-1,-2,8,27,24,4,0,-2
1528884696498022,-1,1,-3,-9,-11,-2,-3,-1
1528884696505002,0,3,6,35,29,10,4,3
1528884696505002,-1,0,-5,-19,-10,-1,1,0
1528884696512980,-1,-3,-4,-6,-10,-6,-5,-2
1528884696512980,-1,-2,0,-3,9,0,-2,-3
1528884696527940,-4,-5,-7,-10,-8,-4,-5,-3
1528884696527940,-3,-3,-2,-2,2,0,-2,-3
1528884696534921,1,4,-1,-3,-12,8,2,0
1528884696534921,0,0,-4,-2,-5,-4,0,1
1528884696549896,-3,-8,-15,-10,-14,-6,-3,-2
1528884696549896,0,2,0,2,7,-7,-2,0
1528884696557862,-1,-4,1,-11,10,4,-1,-2
1528884696557862,-1,0,2,0,-14,-1,-7,-1
1528884696572847,0,2,3,6,8,10,16,3
1528884696572847,3,5,3,4,5,2,-4,1
1528884696579838,-2,-3,-4,-2,-13,-19,-7,-2
1528884696579838,0,-5,-7,-6,4,-1,4,1
1528884696587782,-3,1,0,-6,-8,-12,-15,-5
1528884696587782,6,-2,5,-4,3,19,13,2
1528884696594798,7,0,-5,1,-2,-10,3,2
1528884696594798,-11,-3,-3,-2,-1,-12,-2,-5
1528884696609722,-1,-1,6,6,26,32,17,4
1528884696609722,-2,0,-1,0,1,-1,-4,-2
1528884696617701,2,0,-3,-9,-23,-25,-14,-4
1528884696617701,2,2,-1,-4,-7,-6,1,3
1528884696632688,-1,3,1,4,16,-5,-5,-2
1528884696632688,-5,-4,-3,2,4,26,6,-2
1528884696640640,-6,-5,-6,-13,-29,-14,0,-2
1528884696640640,2,-1,0,2,1,-10,-8,-1
1528884696647621,4,-3,-2,-1,14,1,0,-2
1528884696647621,0,-2,-1,3,-6,-7,-2,-3
1528884696655601,-4,3,1,-9,-10,10,-9,-2
1528884696655601,-6,-3,-1,-8,-9,4,26,1
1528884696670601,-8,-5,-2,2,5,7,-24,-5
1528884696670601,7,-2,-1,5,14,14,15,-2
1528884696677579,14,4,7,13,13,9,6,8
1528884696677579,-10,0,1,6,10,21,10,-4
1528884696692560,-1,-2,-4,-8,-21,-16,-16,-4
1528884696692560,-12,-4,-4,-19,-45,-39,-8,-2
1528884696700480,-2,-4,-1,2,24,-8,-20,-6
1528884696700480,3,1,3,5,6,-2,1,0
1528884696707461,10,8,-1,2,3,15,14,4
1528884696707461,2,0,-1,-7,-22,0,-6,-2
1528884696715492,-19,0,-6,-8,4,-9,-2,-6
1528884696715492,0,-1,1,1,-13,-19,-6,-1
1528884696730414,-5,-4,-4,-9,-15,-23,-14,-4
1528884696730414,4,3,8,19,46,58,24,4
1528884696737434,2,1,2,7,13,25,10,5
1528884696737434,4,-3,1,-3,-12,-19,-11,-3
1528884696752340,4,-8,-7,-20,-47,-31,-3,-5
1528884696752340,-21,4,-2,0,3,-31,-17,-3
1528884696760320,-5,-12,-1,-13,-8,19,4,-3
1528884696760320,-3,3,-3,15,47,20,-9,-1
1528884696767301,1,8,5,2,-8,4,12,3
1528884696767301,-1,-7,-8,-9,-13,-18,4,-6
1528884696775280,2,6,0,-6,-15,-7,0,-1
1528884696775280,6,-1,0,-8,-8,-7,-10,-1
1528884696790240,-11,2,0,8,22,14,-6,-2
1528884696790240,-2,-3,2,1,3,-6,-4,0
1528884696797223,-4,-2,-2,1,-9,-7,-4,-3
1528884696797223,4,-4,-8,-14,-26,-9,6,0
1528884696812212,-3,-8,1,10,17,1,10,-1
1528884696812212,-3,4,1,3,8,9,-13,0
1528884696820160,5,-10,0,-5,-16,-14,-8,-3
1528884696820160,-3,-4,-4,-3,-3,3,-5,-1
1528884696828139,-4,-4,-6,-8,-6,-6,-6,-4
1528884696828139,9,6,-8,8,7,5,7,3
1528884696835120,-19,-7,-6,-6,0,0,1,-2
1528884696835120,3,15,9,-8,-27,-11,-12,-3
1528884696850080,1,-13,-6,-5,11,1,7,-1
1528884696850080,-3,-6,12,23,20,9,-1,0
1528884696858095,-5,0,-9,15,40,22,3,1
1528884696858095,2,5,1,-9,-10,4,14,4
1528884696873054,-7,-6,1,-10,-34,-37,-12,-8
1528884696873054,12,8,-3,-13,-7,3,-9,2
1528884696880001,-7,-13,2,0,0,-5,3,-1
1528884696880001,-10,-10,-6,1,8,13,3,-3
1528884696887980,10,8,-1,-4,-24,-16,-15,0
1528884696887980,-8,-4,-3,-2,6,0,-3,-3
1528884696895014,9,7,7,14,9,2,8,5
1528884696895014,2,0,3,0,15,17,-1,2
1528884696909921,-1,0,-14,-40,-13,13,11,2
1528884696909921,-8,-6,-2,5,-37,-28,-26,-6
1528884696917898,2,5,4,22,20,-11,-4,-4
1528884696917898,5,-10,2,13,20,8,7,4
1528884696932858,9,10,10,18,16,23,5,4
1528884696932858,-14,-7,-20,-30,-26,-25,3,-3
1528884696939839,5,18,3,-15,-14,-1,-3,0
1528884696939839,-3,-13,-3,5,5,0,-12,-8
1528884696947819,6,1,-1,-3,-4,-23,-5,0
1528884696947819,9,1,3,-8,-15,2,-11,2
1528884696954799,6,3,0,-3,3,9,12,7
1528884696954799,-14,-6,1,13,18,26,0,0
1528884696969812,-17,-14,5,6,3,-1,10,-7
1528884696969812,-6,-2,0,-8,0,7,3,-3
1528884696977740,22,8,-5,-28,-52,-57,-21,-1
1528884696977740,-4,4,7,22,35,30,1,1
1528884696992699,-4,1,7,16,31,29,19,5
1528884696992699,12,-9,4,24,27,20,13,8
1528884696999681,4,-2,-7,-20,-17,12,-9,-6
1528884696999681,4,4,-3,-29,-56,-71,-27,-10
1528884697007659,-8,-7,0,20,24,1,8,-1
1528884697007659,-2,-1,2,-4,11,4,1,0
1528884697015637,2,-10,6,4,7,6,3,2
1528884697015637,1,-7,-5,-9,-4,6,-16,-1
1528884697030598,-1,2,-3,-4,-13,-2,-2,3
1528884697030598,8,-1,0,-10,-4,-3,2,-1
1528884697037588,-11,-5,-10,-3,-14,-12,-9,-5
1528884697037588,-2,19,9,18,25,9,7,1
1528884697060518,2,0,-18,-2,2,5,-2,-1
1528884697060518,-3,-6,0,8,0,-10,3,1
1528884697067500,-7,-1,1,-9,-8,-4,5,-1
1528884697067500,4,4,6,-13,-20,-7,7,4
1528884697075478,0,-5,-4,-30,-22,-9,-11,-5
1528884697075478,1,7,8,14,10,-9,1,-2
1528884697082460,-5,-3,-5,11,16,21,7,-5
1528884697082460,3,2,3,5,-2,-4,0,-4
1528884697097420,0,9,-9,-1,-13,1,-9,-5
1528884697097420,-4,11,-11,-22,-10,1,0,-8
1528884697112378,-1,-2,14,46,9,-4,-3,-5
1528884697112378,-7,-10,-35,-35,-21,-3,-4,-10
1528884697120358,-1,1,-1,15,38,3,4,-1
1528884697120358,2,8,3,26,7,6,8,1
1528884697127339,-6,-14,-6,-11,-12,-6,-4,-4
1528884697127339,1,3,12,1,-6,-6,0,2
1528884697135317,-4,2,0,-25,-21,0,0,-1
1528884697135317,-6,-13,-13,-4,-3,-4,0,-2
1528884697150279,2,12,6,-26,-7,0,0,0
1528884697150279,-7,-6,7,22,9,-9,-8,-3
1528884697165238,0,4,4,7,-1,2,4,2
1528884697165238,-2,-9,-8,0,5,-5,1,0
1528884697180201,-2,-2,4,10,15,10,4,1
1528884697180201,-1,-3,-10,-21,-20,-11,-7,-2
1528884697188177,-2,3,-3,3,3,2,-2,1
1528884697188177,4,1,5,-2,-14,-25,-12,-4
1528884697195211,-3,-5,-3,-5,-4,7,4,1
1528884697195211,-2,-10,3,7,20,8,2,3
1528884697203176,0,-2,3,10,4,-1,-1,1
1528884697203176,-4,-1,-8,-19,-13,-5,-9,-1
1528884697210173,5,4,-7,-20,-24,-12,-13,1
1528884697210173,-3,-3,7,8,-5,0,12,1
1528884697218097,0,-11,-2,15,25,2,3,1
1528884697218097,2,-4,-4,-2,9,17,5,2
1528884697233056,-9,-2,5,14,18,4,3,-4
1528884697233056,1,2,-1,-7,-8,-7,-6,-2
1528884697240037,9,15,1,-24,-29,-19,-9,0
1528884697240037,-4,-16,-11,3,13,4,6,-2
1528884697248018,1,7,2,-1,-7,-8,1,0
1528884697248018,-2,-11,0,-1,2,-1,-6,-4
1528884697254998,-1,5,5,2,0,-6,-1,1
1528884697254998,4,4,-6,-8,-5,-5,-8,2
1528884697269968,-7,-11,10,12,13,4,0,-2
1528884697269968,-3,-8,2,2,4,7,4,0
1528884697277935,-2,-7,-2,-4,-6,3,2,1
1528884697277935,1,-12,-3,0,-3,-7,0,-1
1528884697299878,8,16,-12,-23,-27,-37,-22,-1
1528884697299878,-11,-5,6,16,14,7,5,-2
1528884697307887,2,3,1,3,3,-1,-6,5
1528884697307887,-5,3,4,-6,0,8,0,2
1528884697315877,7,0,-1,-20,-24,-24,-13,-6
1528884697315877,-3,-1,-14,-1,2,-14,-18,-5
1528884697323395,0,6,5,9,4,0,-2,-1
1528884697323395,-1,-10,5,17,27,13,11,-2
1528884697337360,0,-5,-5,-2,6,6,10,3
1528884697337360,3,12,-1,-9,-23,-16,-10,4
1528884697345618,1,-21,0,8,7,19,11,-2
1528884697345618,-5,16,0,-15,-18,-14,-19,-2
1528884697353359,-13,-1,9,29,30,23,26,2
1528884697353359,5,6,-6,-4,4,14,-2,-1
1528884697360522,18,4,-1,-5,-2,10,17,2
1528884697360522,-24,1,4,-6,-21,-11,-2,-7
1528884697368327,-15,-19,-1,2,-15,-33,-10,-9
1528884697368327,-15,-2,6,20,45,25,1,-3
1528884697375480,9,7,-5,-9,-6,-22,-15,1
1528884697375480,8,24,-1,-8,-9,-11,7,-1
1528884697390291,-1,4,1,-1,-5,14,5,10
1528884697390291,-5,0,4,1,-10,-15,-3,-3
1528884697398064,-2,8,-2,-19,-21,-22,-23,-9
1528884697398064,5,-5,1,3,7,19,10,4
1528884697413297,6,24,-2,7,16,9,-3,4
1528884697413297,11,-19,5,2,0,21,15,6
1528884697419734,-3,-15,-4,-6,-2,22,-1,3
1528884697419734,-1,-20,-4,-1,-6,-11,-6,-2
1528884697428267,4,-22,-2,-1,5,13,1,0
1528884697428267,5,4,4,-8,-16,-10,-1,5
1528884697434999,-10,0,5,13,13,1,7,-2
1528884697434999,-4,-35,-10,-1,2,5,-1,-7
1528884697450982,7,14,-3,-8,-1,3,-4,-3
1528884697450982,1,8,-2,-7,-23,-11,-3,-5
1528884697458195,-12,-19,9,23,10,-11,-3,-10
1528884697458195,0,2,-11,-23,-13,-8,-3,-4
1528884697473153,-3,26,-1,-24,-6,2,-1,-3
1528884697473153,-1,23,5,40,16,-7,-1,-4
1528884697487796,-6,22,15,-4,5,0,2,-4
1528884697487796,1,14,-4,-30,-39,-9,-3,-3
1528884697495877,-5,-24,-2,54,69,7,0,-6
1528884697495877,2,-5,14,2,0,-1,0,-4
1528884697510269,0,-4,-4,-39,-40,-7,-4,-2
1528884697510269,-1,1,-16,-10,-5,-3,1,-2
1528884697525829,-3,8,-15,-24,-15,-2,1,1
1528884697525829,-5,1,-32,-2,2,-3,-2,-2
1528884697540855,1,10,7,15,-5,4,0,0
1528884697540855,-1,7,19,-3,9,1,4,0
1528884697555740,-7,1,-4,-19,-10,0,2,-2
1528884697555740,4,0,10,11,4,2,2,2
1528884697562718,-5,-30,-44,-58,-31,-2,-4,-5
1528884697562718,-5,45,-7,69,41,4,1,-3
1528884697578258,-4,-1,-16,-14,-8,3,-4,-5
1528884697578258,3,-14,-20,-44,-43,-8,-3,-1
1528884697599959,-2,94,11,20,-4,0,1,-1
1528884697599959,1,52,34,-5,11,3,0,0
1528884697614920,-5,110,-12,5,-2,-6,-6,-2
1528884697614920,-3,-85,-4,-10,-2,3,1,3
1528884697622898,1,-8,33,-26,-7,5,1,4
1528884697622898,4,8,-14,12,8,6,0,3
1528884697645445,-2,-43,28,25,13,7,6,1
1528884697645445,2,-66,-16,-3,7,-8,1,2
1528884697660340,-2,-4,-36,28,32,-6,-8,0
1528884697660340,-3,78,39,-17,-24,-9,-7,1
1528884697675305,-1,-34,-48,-31,-16,-13,-1,2
1528884697675305,0,-57,-8,16,17,-9,-2,4
1528884697683278,1,-93,11,6,2,5,1,2
1528884697683278,-1,-113,-1,-40,-23,-1,-1,0
1528884697697982,-2,-19,-1,-9,-22,-31,-10,-1
1528884697697982,-1,5,63,2,-7,4,-1,1
1528884697713208,-3,25,-5,-10,3,-4,-2,-2
1528884697713208,-4,11,-15,18,6,-2,-15,0
1528884697734883,0,38,46,7,-7,-17,-8,-1
1528884697734883,-6,27,-36,-23,-19,-25,-4,-5
1528884697742865,1,36,27,-9,1,21,-5,-1
1528884697742865,0,-7,-63,5,16,11,12,3
1528884697758320,0,1,-9,3,-6,-10,-1,-2
1528884697758320,1,-4,-28,-30,-17,-16,-6,-1
1528884697773320,1,17,19,9,-12,-12,-4,-3
1528884697773320,-1,18,28,10,15,12,2,-1
1528884697780179,2,4,-30,1,4,5,2,2
1528884697780179,1,-4,-12,1,6,6,0,2
1528884697795197,2,5,2,7,-1,14,14,3
1528884697795197,1,-5,-23,-16,-6,-7,0,0
1528884697810501,0,2,12,2,-1,-4,-1,0
1528884697810501,-4,-12,-10,-12,-9,-6,-4,-5
1528884697825197,5,-1,-1,-19,-12,-25,-8,5
1528884697825197,-4,-3,-11,10,7,32,26,-1
1528884697833172,-1,-3,-10,1,5,5,-2,3
1528884697833172,1,9,14,7,-1,-3,3,-2
1528884697848149,-3,-2,-4,-7,-3,-3,-5,-4
1528884697848149,1,0,20,-5,-8,-9,-2,-3
1528884697855114,0,1,0,1,8,1,4,-2
1528884697855114,-1,-4,21,11,8,4,1,-1
1528884697870329,1,-4,0,9,8,-3,-5,-2
1528884697870329,-12,-3,15,-8,-8,-5,-4,-3
1528884697886039,-5,-14,-6,0,-5,-2,2,-4
1528884697886039,4,5,-6,9,10,-4,-2,0
1528884697892986,-14,-17,11,-4,-8,-2,0,-2
1528884697892986,0,-9,-36,-5,-3,-1,-2,-2
1528884697907936,-2,-1,8,-1,-6,0,-1,-2
1528884697907936,2,-5,-7,2,3,-2,-2,-1
1528884697915958,-4,-5,0,-3,-3,-6,-5,-2
1528884697915958,6,3,-4,-6,-5,-1,0,-1
1528884697930036,0,2,-17,-11,-18,-17,-2,0
1528884697930036,4,-3,11,11,8,18,8,6
1528884697945967,0,4,1,1,7,2,-1,-1
1528884697945967,-2,-4,14,7,0,-2,2,0
1528884697952951,-3,-2,-8,-3,-9,-9,-6,-6
1528884697952951,-1,2,0,-2,9,0,-2,-1
1528884697968078,1,1,-5,-2,2,6,1,-2
1528884697968078,0,-1,-9,3,6,4,2,6
1528884697975928,2,2,4,2,-21,-8,-7,-4
1528884697975928,-5,-6,-1,-25,-12,-15,-8,-5
1528884697990902,-2,-4,-3,-1,5,18,7,1
1528884697990902,2,12,16,1,-3,-1,-1,-1
1528884698005877,1,-2,-9,-8,-21,-10,2,-2
1528884698005877,-4,-8,-40,-13,-8,-16,-15,-7
1528884698012838,8,10,6,-4,-5,4,10,10
1528884698012838,-9,-7,-4,6,0,4,-8,-3
1528884698027991,-2,-5,-5,-6,2,-2,1,0
1528884698027991,-3,3,10,4,-2,-7,-1,-4
1528884698035012,0,2,-3,-5,-7,-1,-1,-10
1528884698035012,-2,-4,-11,-3,-6,-6,-7,1
1528884698050222,9,-4,3,0,-4,-2,1,6
1528884698050222,-16,-1,-6,6,4,13,6,-7
1528884698065977,10,2,19,7,18,5,8,19
1528884698065977,-11,-16,-30,-8,-6,6,0,-13
1528884698073256,-2,-4,-9,1,10,-6,-8,-3
1528884698073256,2,0,-1,-7,-18,-17,-5,-10
1528884698087873,-5,0,-16,-11,-11,-5,4,3
1528884698087873,-1,3,15,0,0,-4,-2,2
1528884698095295,2,1,7,3,-9,-26,-7,8
1528884698095295,2,-2,3,8,23,26,13,7
1528884698110595,-9,3,16,4,10,-13,-10,-4
1528884698110595,-11,-16,-34,-16,-8,-3,-10,-12
1528884698132772,6,0,8,1,-10,-7,3,-1
1528884698132772,8,4,2,-4,-3,12,16,19
1528884698141055,-17,0,12,9,10,-2,-4,-17
1528884698141055,3,3,6,3,7,10,10,16
1528884698156103,-1,-1,-3,-2,5,25,12,-15
1528884698156103,8,1,2,0,-12,-5,-4,11
1528884698163144,-1,0,-15,-13,-12,-9,-1,-19
1528884698163144,-6,2,25,-3,-9,-26,-18,-17
1528884698177736,5,2,-12,7,31,16,-1,7
1528884698177736,4,-12,-3,0,-9,-3,-2,-7
1528884698193427,2,-3,-24,-2,-1,18,7,15
1528884698193427,7,1,3,6,11,22,21,15
1528884698207969,1,2,6,0,2,-3,-2,0
1528884698207969,-3,-3,-4,-12,-10,-7,-12,-9
1528884698215926,-1,0,-1,-10,-23,-23,-6,-13
1528884698215926,-3,3,3,-4,-7,-15,-14,-2
1528884698230504,-4,-2,-2,6,16,21,8,6
1528884698230504,9,2,-11,2,10,4,6,-3
1528884698237946,13,0,1,-4,-8,4,-4,2
1528884698237946,-11,-7,-15,-20,-38,-43,-17,-6
1528884698252568,2,-1,5,13,16,27,20,14
1528884698252568,14,3,-9,-5,-8,-1,1,-9
1528884698268449,0,-5,-1,-17,-47,-56,-35,-4
1528884698268449,-11,-1,-18,1,6,18,26,-2
1528884698275430,-4,-3,16,8,11,16,4,-4
1528884698275430,-8,3,-7,9,22,25,8,-2
1528884698290344,2,1,7,2,4,-2,-1,-3
1528884698290344,7,1,-2,-7,-16,-45,-24,0
1528884698297327,-7,-7,-9,-9,-20,10,-13,-6
1528884698297327,2,0,8,1,-8,-9,5,2
1528884698312286,0,5,-31,-24,-19,-24,-13,-5
1528884698312286,-5,-16,9,0,-7,-32,-19,-5
1528884698327298,2,-1,-7,13,20,47,29,2
1528884698327298,-8,-5,-12,-5,0,1,1,1
1528884698335280,4,6,11,-11,-3,-2,4,0
1528884698335280,2,2,3,-1,0,7,-4,2
1528884698350239,-6,2,-8,-12,-21,-26,-12,-8
1528884698350239,0,-1,12,5,-4,-2,1,-3
1528884698358164,-4,-3,-28,4,9,0,-11,1
1528884698358164,9,9,-1,8,17,19,13,6
1528884698373124,-9,-6,13,3,-10,-35,-27,-4
1528884698373124,3,-7,-1,0,6,23,22,7
1528884698388084,-17,-4,-2,-4,1,3,-10,-9
1528884698388084,23,3,-9,-2,-3,-4,3,11
1528884698395065,-3,1,10,5,-1,-4,3,-3
1528884698395065,-6,3,-12,-1,2,-5,-5,-2
1528884698418004,4,6,12,-1,2,2,-3,-1
1528884698418004,-5,-6,-11,1,5,3,-1,-4
1528884698424985,-3,-7,8,2,0,3,6,0
1528884698424985,2,4,3,0,-1,-5,-5,2
1528884698439944,0,4,-3,2,-4,7,12,-3
1528884698439944,-5,-11,0,-4,-7,-9,-5,-3
1528884698454904,0,0,-3,3,6,2,1,1
1528884698454904,-4,3,0,6,11,0,-1,-3
1528884698462882,-1,0,0,5,7,14,8,1
1528884698462882,-1,-4,1,-1,-5,-4,-2,-2
1528884698469864,-1,-5,-7,-4,-9,-6,-2,-1
1528884698469864,1,3,1,-7,-14,-14,-4,-1
1528884698477850,-2,-6,3,-6,0,-3,-3,-1
1528884698477850,1,2,1,7,6,13,3,-1
1528884698492862,-1,-3,0,-5,-6,-7,0,0
1528884698492862,-5,-5,-4,-12,-13,-13,-6,-3
1528884698507817,-1,0,-7,-5,-9,3,2,-3
1528884698507817,1,3,3,0,-2,5,2,1
1528884698514771,-2,-2,-1,4,6,1,4,-1
1528884698514771,2,4,-1,1,6,9,2,1
1528884698529759,0,0,-2,-4,-6,-4,-3,-2
1528884698529759,-5,-6,-2,-14,-23,-13,-7,-5
1528884698537738,2,5,1,5,20,7,4,2
1528884698537738,0,5,2,7,6,2,2,0
1528884698552701,-1,3,1,-2,-10,-1,0,2
1528884698552701,-1,1,-2,-4,0,-1,1,-1
1528884698567659,-2,-5,-1,0,-6,-5,-3,0
1528884698567659,-1,1,-1,-4,-4,0,0,-1
1528884698575660,-3,-7,0,-4,-5,-4,2,-1
1528884698575660,0,0,-4,2,4,-1,0,-2
1528884698590594,1,0,-1,0,-3,-3,-1,-1
1528884698590594,-1,-2,-1,2,1,2,-1,0
1528884698597563,-3,-2,-1,0,1,0,-4,-2
1528884698597563,-2,1,0,-4,-9,-8,-7,0
1528884698612723,1,-2,0,3,2,4,1,0
1528884698612723,0,1,1,-1,-1,-3,-1,0
1528884698627970,0,0,-1,-1,-4,-6,-6,-1
1528884698627970,-2,-3,-5,-6,-11,-6,-2,-2
1528884698635703,-2,-3,0,-1,-3,4,4,0
1528884698635703,-1,0,0,5,13,-5,-5,-1
1528884698650642,1,0,0,5,10,14,6,1
1528884698650642,-1,-2,0,-1,-2,3,1,-1
1528884698658536,0,-2,-2,-5,-12,-9,-3,-2
1528884698658536,0,0,-1,-4,-11,-11,-6,-1
1528884698673164,-1,-2,0,-1,2,6,-2,0
1528884698673164,-1,-1,0,-3,-5,-1,2,0
1528884698687410,-1,0,-2,-7,-8,-7,-3,0
1528884698687410,-3,-8,-4,-1,-1,-3,-1,-2
1528884698695387,-2,-4,-2,-5,-4,-2,1,-2
1528884698695387,1,1,0,-1,3,2,-1,-1
1528884698710381,-1,5,-1,0,-1,1,0,-3
1528884698710381,-2,0,1,0,-2,-3,-4,-3
1528884698717384,-2,-3,-10,-1,-1,-1,2,0
1528884698717384,-1,-2,3,-3,-2,0,-1,-1
1528884698734285,0,0,2,2,6,3,-1,-3
1528884698734285,-2,0,-2,2,2,1,3,1
1528884698748507,0,0,-4,-2,0,-8,-5,0
1528884698748507,0,10,15,-3,-11,-5,2,0
1528884698755491,-2,-1,-11,-10,-3,-4,-5,-3
1528884698755491,3,2,0,7,15,13,5,2
1528884698770486,0,-4,3,1,-1,2,0,0
1528884698770486,-1,-5,-6,-5,-10,-3,-3,-2
1528884698785688,0,-3,1,-6,-14,-9,0,-4
1528884698785688,-3,1,2,3,11,9,-3,-2
1528884698800652,0,1,-5,2,6,-2,-2,0
1528884698800652,0,-1,1,-3,-2,5,2,0
1528884698815999,1,-1,4,-3,-6,-4,-3,-1
1528884698815999,-2,0,0,-2,1,-2,-1,-1
1528884698829981,-1,-3,-2,-1,-3,-2,2,0
1528884698829981,0,-2,-7,0,0,1,-1,-1
1528884698838572,-3,-3,3,0,1,-1,0,1
1528884698838572,1,0,-4,-4,-5,-6,-1,-2
1528884698854300,1,1,8,5,3,1,-1,0
1528884698854300,-1,-1,-8,0,0,-1,1,-2
1528884698868556,-1,0,0,-1,-6,-4,-3,-1
1528884698868556,-5,-2,-9,-6,-9,-3,-6,-5
1528884698882226,1,5,12,2,6,6,-1,-1
1528884698882226,-2,-2,-37,-4,-1,-3,1,1
1528884698890202,2,-3,5,1,-1,-2,-2,0
1528884698890202,-2,0,1,-2,-3,-2,-2,0
1528884698905163,-3,1,0,-1,0,-2,-6,-2
1528884698905163,-4,-1,10,0,-3,-2,-2,-6
1528884698913141,0,0,-11,-3,-3,-2,-1,-2
1528884698913141,1,-2,17,4,1,-4,-3,-3
1528884698927592,-4,-4,0,0,-2,1,-1,-3
1528884698927592,-2,2,1,1,0,0,0,-1
1528884698942522,-4,-5,3,0,0,0,1,-2
1528884698942522,-5,-7,4,-1,-4,-2,-3,-5
1528884698950788,-2,4,-2,-2,-4,-2,-2,-1
1528884698950788,-2,-10,-9,-4,-1,-3,-3,1
1528884698965416,0,2,-4,-3,-3,1,0,-4
1528884698965416,-3,0,-1,-1,-2,1,1,1
1528884698973399,1,3,-1,-2,-1,-4,-2,-3
1528884698973399,0,1,1,2,-2,-1,-2,-1
1528884698987367,2,3,-1,0,0,0,0,-1
1528884698987367,-2,-5,-5,-2,-2,-3,-6,-1
1528884699003284,-1,0,-4,1,1,0,0,0
1528884699003284,1,9,2,-1,0,-2,-2,-1
1528884699011014,-4,-12,-4,-2,-1,-2,-1,-1
1528884699011014,-3,-4,-7,-3,0,0,0,-2
1528884699025221,3,6,-6,0,0,0,0,2
