timestamp,emg1,emg2,emg3,emg4,emg5,emg6,emg7,emg8
1529305133747958,-6,-5,-3,-7,-7,-6,-2,-1
1529305133747958,0,3,-4,-6,-1,2,-1,-1
1529305133754939,4,3,1,-1,0,5,0,-1
1529305133754939,1,-1,-1,2,5,-3,-2,0
1529305133769898,-5,-6,-11,-10,-4,-4,1,0
1529305133769898,-2,1,-1,-2,-2,4,2,1
1529305133784858,0,0,0,0,0,0,-5,1
1529305133784858,-2,-1,2,3,-4,-6,-3,-1
1529305133792891,-1,0,-1,-3,-7,0,-2,-4
1529305133792891,0,-1,-1,-2,10,10,-9,-4
1529305133807839,1,-1,0,0,1,-8,9,1
1529305133807839,1,1,0,-1,-10,-4,-3,-1
1529305133814778,-4,-1,1,-1,8,10,10,0
1529305133814778,-2,-2,-1,3,0,-5,-2,-2
1529305133829777,3,2,1,0,-1,6,0,-3
1529305133829777,4,0,0,-1,4,-5,0,4
1529305133837745,-2,-2,2,5,2,3,0,-1
1529305133837745,-4,-4,-4,-1,4,9,-4,-3
1529305133852689,-1,-2,-2,-4,-7,-8,-4,-2
1529305133852689,1,1,0,-1,5,6,8,1
1529305133867642,-2,-6,-7,-11,-30,-41,-18,-3
1529305133867642,0,-2,-2,2,3,6,3,3
1529305133874618,1,4,-2,5,19,22,4,6
1529305133874618,5,0,2,6,18,35,24,4
1529305133889605,-4,-2,-1,1,5,9,-3,-2
1529305133889605,-4,-4,-1,-4,-16,-22,-12,-7
1529305133897557,-3,1,2,-3,-25,-33,-8,-2
1529305133897557,-2,-1,1,4,3,5,3,0
1529305133912519,-1,0,-1,-1,5,7,5,-1
1529305133912519,1,1,1,2,11,15,-7,0
1529305133927477,3,4,6,6,1,13,10,-3
1529305133927477,0,-2,-2,-1,2,-7,-16,-1
1529305133935458,-2,-5,-5,-5,-11,-12,9,0
1529305133935458,-2,-2,1,-6,-18,-21,1,1
1529305133950416,-5,-5,-6,0,5,6,-5,-5
1529305133950416,0,0,0,2,6,8,9,0
1529305133957397,3,-1,1,0,-5,-10,-11,-1
1529305133957397,-5,-3,-5,1,11,12,1,-2
1529305133972358,0,-2,2,-2,-15,-12,-8,3
1529305133972358,-3,2,1,-2,-6,-9,-5,7
1529305133987318,1,1,1,4,5,3,2,-8
1529305133987318,4,-2,-3,3,29,31,20,10
1529305133995296,-2,2,4,2,1,-2,-11,-5
1529305133995296,-3,-4,-5,-8,-22,-34,-9,-4
1529305134010255,-3,0,0,-5,-21,-11,-1,3
1529305134010255,-2,1,4,5,16,14,-3,-3
1529305134017237,0,2,-1,0,3,3,4,-3
1529305134017237,-2,-2,-5,-4,-3,-1,-8,-3
1529305134032197,3,2,4,-4,-5,-4,-2,4
1529305134032197,-8,-3,-5,-2,-19,-18,-12,-6
1529305134047156,3,2,0,-2,5,1,5,2
1529305134047156,-5,-6,-6,-6,4,-1,-13,-4
1529305134055135,-1,-2,-6,-7,-19,-12,3,-6
1529305134055135,4,4,6,6,17,22,4,1
1529305134070094,1,2,4,7,15,12,2,1
1529305134070094,-6,-2,-1,-2,-9,-9,-1,-6
1529305134077077,-3,-3,-3,-5,-1,1,-3,3
1529305134077077,3,-1,0,-7,-25,-31,-5,-10
1529305134093033,-1,-4,0,3,11,23,7,-1
1529305134093033,-1,3,2,-3,-10,-8,1,4
1529305134107995,-1,-4,-6,-5,9,8,2,1
1529305134107995,-2,3,0,0,-1,-5,-4,-2
1529305134114975,-3,-2,-4,-4,-16,-21,-1,-2
1529305134114975,0,-3,-5,4,13,10,3,3
1529305134129934,3,1,6,7,13,20,-3,-1
1529305134129934,-3,-3,-5,-4,-4,2,2,1
1529305134137914,-2,-5,-2,0,0,-4,-8,-3
1529305134137914,-10,-3,-2,-5,-14,-11,5,-1
1529305134152875,-1,-1,-1,0,2,3,0,4
1529305134152875,4,-1,-2,5,14,14,13,0
1529305134167835,-3,0,0,-3,-3,0,6,0
1529305134167835,-3,-5,-10,-5,-10,-7,-13,-15
1529305134174816,6,0,0,-9,-11,-7,-5,6
1529305134174816,0,-6,-8,-2,-5,-3,-2,-8
1529305134189776,-15,-4,3,8,17,14,5,3
1529305134189776,-5,-4,-2,-2,-2,-5,-6,-5
1529305134197755,-7,-1,-1,-5,-6,-7,-4,-7
1529305134197755,10,-1,-1,-7,-19,-22,-4,4
1529305134212713,-38,-5,-12,0,11,6,-4,-23
1529305134212713,9,1,-5,2,14,6,-2,4
1529305134227674,6,0,-8,-12,-24,-26,-1,1
1529305134227674,-6,2,6,-2,-7,12,25,-4
1529305134234657,5,-5,16,19,19,15,3,14
1529305134234657,3,-5,-21,-11,-1,-2,-22,-4
1529305134249617,1,-2,-6,-13,-14,-6,11,6
1529305134249617,-4,-7,-9,-3,-7,-3,-6,-12
1529305134257593,10,7,12,6,13,-6,4,9
1529305134257593,2,9,15,14,10,16,3,-8
1529305134272608,3,-7,-1,2,11,-3,-4,9
1529305134272608,7,-2,9,1,-4,-24,-19,-23
1529305134287571,-6,-7,-6,-9,-3,-17,-6,-1
1529305134287571,-12,-5,-5,-5,-19,-40,-29,8
1529305134295539,31,-1,-2,10,39,38,19,26
1529305134295539,-8,-11,4,-7,-15,-44,-47,-19
1529305134310498,-27,-20,2,18,17,-21,-16,26
1529305134310498,13,12,14,9,15,-18,-7,-1
1529305134317434,2,12,0,-11,-32,-69,-40,7
1529305134317434,-7,0,-3,1,-2,-29,2,-8
1529305134332395,1,-3,-10,-17,-35,-60,-41,-35
1529305134332395,-9,-6,-7,8,25,12,23,16
1529305134340373,36,3,-3,0,-2,-3,-1,12
1529305134340373,3,17,5,-6,-15,4,36,47
1529305134354607,-12,1,-7,-3,4,47,22,-10
1529305134354607,-10,-10,-7,1,22,62,13,-1
1529305134369894,12,0,1,-14,-30,25,14,-3
1529305134369894,6,-3,8,0,3,48,31,11
1529305134377708,-12,-9,-7,-15,-4,27,9,-15
1529305134377708,-4,-11,-3,-2,7,26,10,-4
1529305134392667,-3,0,-1,-7,1,34,24,3
1529305134392667,8,4,3,-1,-18,2,3,-3
1529305134400660,-12,-5,-1,3,12,19,11,-11
1529305134400660,1,6,0,-4,-11,10,9,2
1529305134414896,-4,7,0,-11,-23,-18,-5,-11
1529305134414896,-5,4,1,3,6,3,5,4
1529305134430466,7,7,1,11,12,-3,-3,5
1529305134430466,4,3,-3,-2,2,-5,-3,2
1529305134438402,-11,1,-2,-10,-19,-9,1,-7
1529305134438402,-3,3,5,7,9,-5,-8,-3
1529305134453375,0,-1,7,8,19,14,4,-1
1529305134453375,5,0,-3,0,12,8,1,5
1529305134460413,-2,-6,-3,-4,-17,-5,-6,-4
1529305134460413,-4,-8,1,-4,-10,-11,-8,0
1529305134475715,-5,-1,2,4,3,-7,-5,-3
1529305134475715,-1,2,-8,-4,-9,-11,-4,-2
1529305134490043,-1,0,-2,-5,-2,-10,-2,0
1529305134490043,2,-4,-6,-6,-8,-9,-7,-2
1529305134498316,-5,4,0,8,7,-8,-8,-6
1529305134498316,-5,-4,-2,0,2,0,-3,-3
1529305134520311,1,-3,0,-4,1,-3,-1,5
1529305134520311,4,3,5,-1,-8,-9,-3,3
1529305134528321,-2,-6,1,-5,2,-3,-7,-4
1529305134528321,-4,-5,8,23,14,2,-1,-1
1529305134543337,0,4,5,0,-3,-4,-1,-1
1529305134543337,3,2,-2,-11,-13,-13,-9,-2
1529305134558241,-2,-8,-13,-5,0,-1,-1,-2
1529305134558241,0,-2,-2,-4,-8,-3,-2,-2
1529305134572945,-1,2,-2,-7,-11,-10,-5,-4
1529305134572945,-1,1,6,0,-8,-13,-7,-2
1529305134580438,-5,-4,-10,1,3,2,-3,-6
1529305134580438,2,4,1,-1,9,4,4,4
1529305134595398,-1,-2,-1,-4,-9,-9,-7,-3
1529305134595398,-3,-4,-3,-4,-7,-6,0,-2
1529305134610358,3,0,0,0,-1,3,1,2
1529305134610358,-2,-2,3,5,2,-1,-3,-3
1529305134617392,-2,0,-4,2,1,-2,0,8
1529305134617392,3,5,0,-5,-7,-3,-3,-11
1529305134632299,-4,4,1,1,-4,-8,-4,-4
1529305134632299,-3,1,7,3,-1,-3,1,-2
1529305134640540,-3,0,-9,-1,8,11,4,2
1529305134640540,-4,1,4,0,6,1,0,-2
1529305134655879,-2,-2,5,4,-4,-1,5,-1
1529305134655879,8,1,-4,2,7,7,-2,-8
1529305134670570,-3,-3,-6,0,3,2,4,12
1529305134670570,-2,0,-7,-6,0,2,-1,-3
1529305134677590,-3,-3,0,-2,-8,-10,3,-3
1529305134677590,-1,0,0,-3,-6,-6,-7,-3
1529305134693431,3,0,6,3,-5,-5,0,0
1529305134693431,-1,-6,-9,1,7,-2,-6,-2
1529305134700264,-2,-1,1,0,9,8,-1,-3
1529305134700264,-4,-2,-3,-3,-3,6,4,4
1529305134715260,-1,-1,4,-4,-4,-1,-1,-3
1529305134715260,-2,-4,-12,-9,-13,-8,0,2
1529305134723302,-3,-5,-8,-5,-6,-9,-6,-6
1529305134723302,-3,-1,-2,3,-1,0,3,3
1529305134737400,-5,1,8,-1,-8,-8,-7,0
1529305134737400,-5,-15,-7,-1,-9,-8,1,3
1529305134753260,-5,-9,-5,4,8,8,1,-4
1529305134753260,1,1,-3,-2,12,10,3,2
1529305134760101,3,5,4,-1,2,1,-2,-3
1529305134760101,-6,0,-2,-8,-9,-12,-7,-3
1529305134775915,1,2,4,0,-10,-5,-1,-1
1529305134775915,-3,-4,-4,-1,4,9,2,0
1529305134782634,2,-2,3,3,1,0,-1,-4
1529305134782634,3,-2,-5,-2,0,3,4,8
1529305134797595,-12,-3,2,3,1,5,1,-1
1529305134797595,-1,1,1,3,8,10,0,-1
1529305134812590,2,-3,-7,-7,-12,-11,-4,-3
1529305134812590,-3,0,3,0,4,10,1,-2
1529305134820718,5,-3,1,6,13,2,3,10
1529305134820718,-4,-4,-1,2,-4,-7,-4,-18
1529305134835728,-7,-3,-4,-4,-2,-2,-3,-5
1529305134835728,4,0,-5,-3,-8,-8,-6,0
1529305134842729,12,0,1,5,12,11,8,12
1529305134842729,-2,2,4,-1,4,8,1,1
1529305134858039,1,-2,-7,-5,-7,-3,-2,-3
1529305134858039,-16,-1,-2,-9,-21,-21,-8,-9
1529305134864983,12,3,-1,1,2,7,-2,-5
1529305134864983,3,1,2,1,10,0,3,8
1529305134880208,-35,-6,-3,-5,-4,-12,-19,-35
1529305134880208,-12,-11,-10,2,14,21,14,0
1529305134895936,24,5,5,7,18,22,9,19
1529305134895936,22,8,3,6,4,0,-3,-7
1529305134903206,16,5,8,-5,-20,-22,-8,19
1529305134903206,17,5,-1,-10,-18,-12,-6,-21
1529305134918456,-34,-15,1,2,4,-8,-8,9
1529305134918456,-7,-6,-1,6,10,12,9,-6
1529305134925615,-5,-4,-7,-3,2,-7,-11,-29
1529305134925615,-13,3,2,-11,-26,-23,-1,71
1529305134940914,-15,-21,-11,5,14,9,10,-19
1529305134940914,-37,0,-1,4,38,25,-2,-49
1529305134955890,28,-9,-6,-5,-6,-16,5,71
1529305134955890,17,10,8,13,6,-16,-6,-19
1529305134962638,23,-3,1,5,32,27,29,64
1529305134962638,-3,6,7,-8,-27,-37,-32,-46
1529305134978189,-16,-3,-10,-16,-13,-27,-13,6
1529305134978189,7,-15,6,4,15,-2,-8,-16
1529305134985221,-13,1,1,-18,-49,-60,-35,-11
1529305134985221,17,10,3,26,27,-7,-7,1
1529305135000145,-1,5,2,-3,-10,-51,-20,3
1529305135000145,4,1,-5,-16,-39,-84,-34,10
1529305135015340,-11,1,-3,4,-7,-67,-20,-14
1529305135015340,-18,12,-5,-1,0,-36,-16,-11
1529305135023365,7,17,4,2,-19,-41,0,2
1529305135023365,0,-9,0,18,16,10,8,1
1529305135037542,-4,-11,-13,-3,5,46,29,4
1529305135037542,1,-12,-6,-2,19,73,28,24
1529305135044836,8,-8,-4,-8,-9,83,17,-19
1529305135044836,7,-2,-6,-21,-29,80,30,16
1529305135067812,-3,8,-9,-25,-19,61,30,1
1529305135067812,-2,-2,3,20,1,41,26,1
1529305135075807,-6,3,3,5,16,47,18,0
1529305135075807,3,9,-2,-3,-10,28,18,0
1529305135090689,-4,-6,-9,-4,-2,21,11,-2
1529305135090689,2,-4,-1,-10,-2,20,6,5
1529305135097667,-7,-2,-10,-6,-13,-13,-6,-1
1529305135097667,-5,3,-5,-7,-16,-17,-4,-7
1529305135105454,-5,-7,-2,0,-6,-9,-3,-3
1529305135105454,0,-2,2,5,27,5,4,-3
1529305135112627,0,13,13,1,-15,-21,-6,-4
1529305135112627,-8,1,-8,-8,6,-8,-2,-7
1529305135128354,2,6,1,-9,-5,-7,-4,3
1529305135128354,4,1,1,28,28,0,-1,2
1529305135135591,-3,1,-7,-8,-15,-15,-7,-5
1529305135135591,1,6,4,1,-1,-5,-4,0
1529305135150830,-5,-1,0,-2,-2,-12,-5,-1
1529305135150830,-3,-1,-4,-17,-16,-16,-6,-2
1529305135157966,-1,4,4,-6,-8,-14,-5,-2
1529305135157966,-3,1,2,-7,-11,-22,-7,-2
1529305135165555,-2,3,6,11,5,-16,-5,-1
1529305135165555,-4,0,0,-2,2,-6,-3,1
1529305135173501,2,6,8,3,8,-9,-4,2
1529305135173501,-1,-10,-3,-7,-8,-15,-2,0
1529305135188020,-3,-1,4,3,9,-7,-6,-2
1529305135188020,1,-3,4,-6,-15,-16,-6,-1
1529305135195247,0,-4,3,4,-1,-5,1,1
1529305135195247,0,-9,3,9,-4,-13,-6,-1
1529305135210209,-1,-6,-13,-2,10,-5,-5,1
1529305135210209,-1,-2,0,-1,14,0,-1,-1
1529305135218210,-2,-2,-1,-8,-18,-13,-8,-2
1529305135218210,0,1,0,-4,-4,-7,-4,0
1529305135225182,-1,-5,5,4,-1,-5,-3,-2
1529305135225182,-1,-2,-5,-7,-19,-13,-7,1
1529305135232932,-1,-3,3,-11,1,-4,-2,-1
1529305135232932,0,6,-2,11,6,-7,-5,1
1529305135248117,-5,3,0,2,2,-7,-6,0
1529305135248117,2,-5,-2,9,15,8,2,1
1529305135255852,-1,-6,-4,-3,-8,-9,-5,-2
1529305135255852,0,0,-1,-5,0,-6,-4,-2
1529305135270060,1,-3,-1,1,3,-2,-1,0
1529305135270060,-2,-4,-14,-8,-4,-9,-7,-4
1529305135277569,0,-6,-5,-3,-9,-8,-3,3
1529305135277569,2,2,-4,-3,6,13,9,5
1529305135285553,2,0,0,8,19,7,0,6
1529305135285553,1,-3,5,-4,-5,-7,-6,-8
1529305135292870,-1,-5,-5,-2,1,-4,-5,-4
1529305135292870,0,-6,-4,-3,-6,-8,-5,-3
1529305135308204,-2,-4,-3,-2,-4,-5,-2,-1
1529305135308204,-2,-1,3,1,1,-1,-1,5
1529305135315045,-1,2,7,-1,5,0,-1,-4
1529305135315045,4,-1,-8,1,0,-5,-3,0
1529305135330903,-4,-9,-14,-4,10,8,5,-3
1529305135330903,-2,-3,-7,-13,-11,-8,-4,0
1529305135337965,-1,2,-1,6,-4,-6,-2,-1
1529305135337965,-3,0,9,2,5,2,-1,-1
1529305135345618,0,5,6,4,4,1,1,-2
1529305135345618,-3,-2,-11,-11,-8,-3,0,-1
1529305135352199,-5,-8,-12,2,3,9,1,0
1529305135352199,-3,-2,-2,-7,-2,-1,-3,-4
1529305135367121,-1,1,5,2,-4,-4,-2,-4
1529305135367121,-1,1,5,-4,-3,-1,0,3
1529305135375095,1,5,2,-5,0,-1,1,-1
1529305135375095,0,-1,1,-4,-3,-1,-2,-1
1529305135390056,-1,2,-1,-2,-3,2,-8,-11
1529305135390056,3,3,2,1,-1,0,7,9
1529305135398061,-2,-1,-8,-9,-6,-3,-1,-9
1529305135398061,-3,-1,4,9,5,-5,-6,-2
1529305135413071,-3,-1,0,-3,-6,-5,2,-7
1529305135413071,-2,1,-4,2,9,7,6,16
1529305135420032,9,4,-5,-3,-5,-3,-4,-2
1529305135420032,-10,-2,-2,6,2,2,0,1
1529305135434990,2,3,6,1,-10,-5,-5,-2
1529305135434990,-4,-3,-4,-2,4,0,-2,-7
1529305135442969,-4,0,-3,-3,6,6,5,4
1529305135442969,1,-7,-2,-5,-4,0,-2,-5
1529305135457931,-3,-3,-2,1,-6,-2,-1,3
1529305135457931,-1,-3,-5,-1,6,6,1,-3
1529305135464882,3,-4,-8,-2,1,1,4,5
1529305135464882,1,3,4,0,-4,-1,-1,-4
1529305135472887,0,0,4,5,2,2,1,0
1529305135472887,-4,2,5,-3,-5,1,3,-3
1529305135487849,-2,-3,2,5,0,-5,-4,2
1529305135487849,7,-6,-11,-4,-6,-3,-4,-4
1529305135494833,-19,0,9,2,-2,-5,-8,-9
1529305135494833,-23,-1,7,0,3,7,1,-25
1529305135509790,7,7,5,-5,-1,0,3,24
1529305135509790,29,4,-2,0,-3,-6,-3,-1
1529305135517769,-22,-8,-12,-2,-1,2,4,2
1529305135517769,10,2,-4,-1,-2,-2,2,18
1529305135524748,-6,-1,3,-2,-2,-2,-7,-5
1529305135524748,-6,7,16,2,-3,-1,0,-1
1529305135532730,12,1,-3,3,2,2,3,2
1529305135532730,3,10,11,4,0,-3,-5,-7
1529305135547690,-2,-5,-13,-8,-1,0,2,5
1529305135547690,-7,0,8,0,-5,-3,-3,-1
1529305135554671,-2,-8,-3,2,-1,-4,-5,-9
1529305135554671,1,-1,-4,-6,0,-2,3,8
1529305135569632,-2,-23,-19,6,5,0,1,-2
1529305135569632,-14,-8,-14,-5,-3,-4,-4,-8
1529305135577611,10,3,15,6,-1,-2,0,-5
1529305135577611,-17,-7,-6,1,3,2,-2,0
1529305135585534,5,5,7,2,2,6,4,-1
1529305135585534,-8,-2,-2,1,-3,3,-3,-10
1529305135592515,4,-12,-5,5,1,0,-6,5
1529305135592515,-1,0,-9,-6,-9,-9,-5,-3
1529305135607474,14,2,0,3,6,7,3,-17
1529305135607474,-9,8,8,-2,0,0,-1,1
1529305135615453,17,11,-10,-23,-15,-7,0,29
1529305135615453,4,-14,-9,-8,-8,-3,-5,-6
1529305135630466,-19,-2,5,-4,-4,-2,-4,-21
1529305135630466,6,-7,3,-2,-7,-7,0,14
1529305135637449,-8,2,21,11,8,4,0,3
1529305135637449,5,-8,-25,8,11,4,-2,0
1529305135645428,20,-1,-9,-11,-5,0,-6,-24
1529305135645428,-14,-8,-18,-11,-9,-7,-2,28
1529305135652409,14,6,28,10,6,5,1,-17
1529305135652409,-4,-1,19,5,0,-3,-1,11
1529305135667370,-9,4,-9,2,1,-2,-1,1
1529305135667370,0,0,-5,-11,-7,-7,-7,-16
1529305135675355,-24,-13,-17,12,9,5,2,-1
1529305135675355,28,25,18,1,1,1,-1,0
1529305135690503,-21,-7,8,2,-6,-6,1,-4
1529305135690503,-4,-6,-7,-4,-3,0,3,-1
1529305135698284,7,8,2,-2,-2,2,1,16
1529305135698284,-4,-15,-8,-8,-11,2,2,-13
1529305135705279,18,24,9,2,5,-3,-9,4
1529305135705279,-16,-6,-1,11,8,3,3,-8
1529305135712751,-14,-8,-11,-6,-4,-7,-7,-7
1529305135712751,-11,1,-1,1,-6,-8,-10,-13
1529305135727979,17,-6,-9,-9,-13,-5,5,23
1529305135727979,-11,5,1,0,3,9,5,-40
1529305135735795,17,0,-6,-10,-6,-2,8,51
1529305135735795,-3,5,2,-1,-1,1,1,-17
1529305135750801,-36,-14,3,6,2,-5,-20,-3
1529305135750801,12,7,13,9,6,-2,-8,-35
1529305135757915,-10,-2,-9,-4,-5,0,4,8
1529305135757915,-3,-11,-17,-6,-7,-7,8,49
1529305135764886,1,2,8,-12,-8,-4,6,8
1529305135764886,14,-2,-6,-5,-3,0,5,6
1529305135772874,-13,-8,-18,-4,3,12,6,-40
1529305135772874,-10,2,2,1,2,5,5,-11
1529305135787618,51,21,6,1,-1,5,13,42
1529305135787618,-14,-9,14,4,-3,-4,-11,-3
1529305135795550,0,3,4,-7,-7,-7,-5,0
1529305135795550,1,4,-1,-9,5,5,6,-13
1529305135810511,-20,2,-5,-6,-2,3,-8,-4
1529305135810511,8,-5,-3,0,-4,-6,-3,2
1529305135817735,-10,4,4,-1,5,4,-6,-15
1529305135817735,-2,-7,1,5,-2,-4,-8,-2
1529305135825721,-5,1,20,11,12,5,2,-17
1529305135825721,19,-1,-36,-28,-12,-7,-4,3
1529305135832459,-37,-9,-17,-2,-1,-3,4,19
1529305135832459,22,11,32,8,1,0,1,10
1529305135847768,-29,-25,-31,2,-1,-4,-2,-36
1529305135847768,11,10,41,24,8,6,4,15
1529305135855904,8,-5,-36,-17,-11,-6,-1,-8
1529305135855904,-12,-13,-19,-16,-10,-9,-8,-10
1529305135870877,13,1,-3,3,1,-2,-1,-11
1529305135870877,-2,4,11,5,4,2,0,21
1529305135878292,8,9,21,8,-11,-8,-7,-18
1529305135878292,0,7,23,4,6,4,0,18
1529305135885960,-14,-15,-27,-9,0,-1,-2,-11
1529305135885960,-9,-9,-3,11,17,3,3,7
1529305135893318,5,-2,3,-13,-9,-6,-3,-3
1529305135893318,3,-4,-12,6,0,1,-2,-8
1529305135908160,-6,0,13,-6,-4,-4,-7,6
1529305135908160,-2,5,-3,-4,-5,-6,0,-8
1529305135915146,12,3,6,6,1,1,-10,-18
1529305135915146,-11,-9,-14,-13,-8,-6,3,12
1529305135930365,9,9,13,5,4,6,3,4
