timestamp,emg1,emg2,emg3,emg4,emg5,emg6,emg7,emg8
1529291917685744,-1,0,-1,0,0,0,0,0
1529291917685744,-2,0,-3,-1,-1,-1,-2,-1
1529291917691727,-1,1,0,0,-1,0,-2,2
1529291917691727,0,-1,-1,0,1,-1,-4,-4
1529291917698709,-2,2,0,0,1,-1,-1,-1
1529291917698709,-1,0,2,1,0,0,1,-2
1529291917713698,-2,-1,1,-1,-1,-2,0,-2
1529291917713698,0,-1,3,-2,-4,-1,1,-1
1529291917722645,-1,0,-1,0,-2,0,-1,-1
1529291917722645,0,-3,-2,-3,0,-1,2,-1
1529291917736637,-4,-2,-2,-2,2,0,2,-2
1529291917736637,0,-1,-1,0,4,0,7,4
1529291917743590,2,-1,-1,0,1,-1,-9,-2
1529291917743590,2,3,0,0,0,1,-4,-1
1529291917758548,3,-1,-2,4,-2,0,-3,1
1529291917758548,-1,-2,-4,0,-2,5,1,-1
1529291917767535,1,0,0,0,-5,-3,-3,1
1529291917767535,0,0,1,0,-1,3,3,-2
1529291917781488,-3,1,3,-2,0,-1,-2,-4
1529291917781488,0,2,1,0,0,-2,0,-2
1529291917788503,3,2,-2,-2,0,-1,2,1
1529291917788503,0,1,-2,-1,0,0,-6,0
1529291917803430,0,0,0,-1,-3,0,15,7
1529291917803430,-8,-6,-4,-4,-2,-10,-12,-11
1529291917812404,-5,-5,-1,1,-1,1,-8,-10
1529291917812404,-1,-3,1,-2,-1,-5,-3,1
1529291917826367,2,0,-2,3,2,10,42,16
1529291917826367,3,7,4,1,4,-5,-26,3
1529291917833348,-4,-3,-3,2,-3,-6,20,0
1529291917833348,-2,-5,1,4,6,11,12,3
1529291917848308,19,13,12,6,15,18,16,27
1529291917848308,-11,-2,-5,-16,-21,-18,-38,-18
1529291917864272,25,5,16,32,39,37,97,82
1529291917864272,-57,-22,-23,-28,-32,-35,-113,-101
1529291917874239,0,-5,-4,8,10,6,38,40
1529291917874239,0,1,-3,-10,-14,-2,26,1
1529291917886209,-2,7,9,4,6,-1,-36,-15
1529291917886209,5,14,-1,-8,-10,-7,18,8
1529291917894187,-8,0,0,-9,-5,0,-1,-1
1529291917894187,-10,5,1,1,1,2,-23,-27
1529291917909145,-1,-7,-8,-14,-13,-21,13,15
1529291917909145,18,-2,4,7,13,15,20,14
1529291917916127,0,-11,-11,-7,-10,-9,3,-4
1529291917916127,17,-4,-1,12,16,-16,-17,30
1529291917931087,-8,-4,3,7,11,15,-11,-32
1529291917931087,6,4,6,7,-2,-4,-5,5
1529291917946046,-9,-3,-3,-8,-6,-8,-36,-14
1529291917946046,7,6,8,8,3,12,52,33
1529291917954026,-3,2,-1,-3,-12,-23,-50,-12
1529291917954026,-3,4,4,18,16,16,21,2
1529291917969983,-3,3,1,-2,-5,6,12,0
1529291917969983,-15,-5,-7,-1,4,-2,-24,-12
1529291917990928,-2,-2,-1,-4,-13,-8,-3,1
1529291917990928,0,-6,4,15,-3,2,0,-2
1529291917998905,-3,-5,-3,-15,-23,-3,-3,-3
1529291917998905,8,4,9,8,10,4,4,5
1529291918005887,7,-2,-9,-16,12,1,0,-1
1529291918005887,1,-8,0,35,15,-2,2,-3
1529291918013866,2,-2,-6,-24,-4,-3,3,1
1529291918013866,-6,-18,-20,-15,-3,-7,-3,-2
1529291918028826,-5,10,14,31,3,-1,0,1
1529291918028826,3,17,5,-64,-13,-3,4,3
1529291918035807,-4,-40,-29,27,13,-3,1,0
1529291918035807,3,28,8,-25,-11,0,6,4
1529291918050767,15,35,47,29,10,6,9,11
1529291918050767,-2,13,8,5,2,-6,-5,-4
1529291918065727,-3,-20,-26,-11,-14,-2,-2,1
1529291918065727,-11,-24,-24,-13,0,4,-1,-4
1529291918073706,-10,-6,-11,-66,-23,-6,-11,-8
1529291918073706,9,-5,-23,27,20,9,6,6
1529291918088687,-4,22,11,8,-15,0,-2,-6
1529291918088687,-6,7,20,19,-7,-3,-3,-2
1529291918096645,9,-9,-12,-36,-11,-1,-1,2
1529291918096645,-2,-5,28,43,0,5,-2,-3
1529291918111607,-13,-9,-10,17,14,0,-3,-5
1529291918111607,3,2,-24,-28,-8,-5,-1,-3
1529291918126565,3,9,10,3,19,3,3,2
1529291918126565,-8,-8,31,56,10,-4,-2,-2
1529291918133546,-23,-24,-11,16,4,-5,-6,-10
1529291918133546,2,-10,-13,-1,-6,-8,-6,-3
1529291918148507,20,17,6,11,7,0,0,4
1529291918148507,2,55,53,-19,-6,3,1,-2
1529291918156486,17,-3,-8,43,-4,0,6,14
1529291918156486,-39,-36,-31,-48,-8,0,2,-7
1529291918171446,29,36,33,44,21,1,5,7
1529291918171446,7,10,45,6,8,4,6,1
1529291918186405,10,-6,6,-18,-11,-6,5,7
1529291918186405,-3,-18,-25,-23,4,-2,-9,-7
1529291918193388,-2,-29,-37,-13,-5,1,-6,-4
1529291918193388,-2,-14,-11,25,4,1,-2,-2
1529291918208347,17,48,51,29,0,2,1,7
1529291918208347,4,6,0,-18,-16,2,3,1
1529291918216324,8,23,8,-2,8,2,8,7
1529291918216324,-8,-15,-7,6,-7,-7,-21,-8
1529291918231330,-30,-16,-20,-40,-14,1,1,-11
1529291918231330,6,14,13,-7,-8,9,9,14
1529291918246245,-8,-17,-17,0,9,4,6,2
1529291918246245,6,5,9,16,-2,-2,3,7
1529291918253227,-6,2,11,0,4,0,-4,-3
1529291918253227,1,-5,-6,-19,11,-7,-8,-6
1529291918269185,-11,-11,-22,-19,3,-5,-2,-1
1529291918269185,-6,-23,-14,-8,-13,-1,2,6
1529291918276165,6,20,9,20,-6,-1,-6,-2
1529291918276165,21,34,31,29,5,3,11,13
1529291918291125,-8,-16,-9,-19,2,5,-6,-3
1529291918291125,14,27,26,29,2,9,5,1
1529291918306124,-15,-13,-10,-14,-11,3,2,-6
1529291918306124,13,13,15,38,6,2,2,8
1529291918314100,9,15,6,-14,-15,-3,13,7
1529291918314100,0,-3,-2,11,6,-10,5,3
1529291918329076,-24,-37,-22,-5,-9,-4,-5,-12
1529291918329076,7,1,-12,-22,2,-4,5,7
1529291918336058,-1,2,3,-20,-5,-11,2,0
1529291918336058,-14,-19,-4,53,-6,-4,-9,-9
1529291918350967,1,-1,10,22,-5,-2,2,3
1529291918350967,6,8,4,8,6,-1,0,-3
1529291918365926,-15,-17,-29,-74,-15,-10,-4,-5
1529291918365926,-5,-1,6,46,0,-1,-4,-3
1529291918373956,-2,0,-2,-14,9,-1,-1,-1
1529291918373956,5,2,-6,-46,-5,-3,2,1
1529291918388865,-5,-3,9,71,9,0,-2,-3
1529291918388865,6,5,-9,-102,-10,3,11,7
1529291918395902,4,5,11,56,22,9,8,-1
1529291918395902,-7,-14,-4,-9,-1,0,-2,-2
1529291918410836,2,4,-14,-54,24,16,-14,3
1529291918410836,-15,-11,-11,-46,-35,-7,8,-11
1529291918425959,-6,-12,-12,32,10,-10,1,-1
1529291918425959,-5,1,-8,-15,-15,-5,-15,-11
1529291918433936,-6,-5,-9,-20,-12,2,-8,-4
1529291918433936,11,12,2,-6,23,-6,-5,13
1529291918448897,1,9,15,8,-23,30,5,-5
1529291918448897,3,-4,-5,9,60,-43,-36,2
1529291918455877,3,6,18,32,-32,7,20,4
1529291918455877,-6,-6,-22,-28,5,-6,-43,-4
1529291918470837,-11,-15,2,14,17,3,13,-3
1529291918470837,-5,4,-14,-17,-3,-16,-4,-29
1529291918485831,29,30,47,38,8,8,-27,26
1529291918485831,-12,-16,-32,-50,11,12,16,-8
1529291918495787,5,3,15,36,10,-10,5,5
1529291918495787,-5,-14,-15,-46,-31,-2,13,19
1529291918508739,-10,-12,8,77,17,-40,-19,-19
1529291918508739,23,37,20,25,-22,-4,30,14
1529291918515720,-19,-13,-6,-21,-8,-34,-40,-30
1529291918515720,21,22,1,-64,-5,2,2,30
1529291918531691,13,15,-26,-30,5,45,35,29
1529291918531691,-4,0,19,99,4,13,-20,-23
1529291918546829,-7,-9,-24,-56,-4,31,-3,5
1529291918546829,16,23,12,-28,-42,-6,11,7
1529291918553868,3,-4,24,56,-11,-6,1,3
1529291918553868,-2,-8,-8,-4,7,5,27,18
1529291918568771,6,16,0,-6,48,4,-20,-13
1529291918568771,-14,-16,2,40,5,-13,11,1
1529291918576778,2,0,-3,-11,28,-19,23,11
1529291918576778,7,15,-2,-65,-33,-14,-27,7
1529291918591782,-23,-39,-25,38,16,-54,-39,-25
1529291918591782,4,4,-2,-16,17,0,5,9
1529291918598850,5,10,26,44,12,11,-36,-13
1529291918598850,-2,-10,-12,5,32,36,16,3
1529291918613791,2,3,-15,-75,-5,-1,-2,5
1529291918613791,-11,-7,1,38,78,9,-14,-12
1529291918628628,19,23,10,-26,97,-7,11,19
1529291918628628,-5,-13,-5,14,75,-3,-7,0
1529291918636590,3,0,-6,-23,-7,9,-5,-6
1529291918636590,12,15,10,-2,-60,10,-2,-3
1529291918651551,8,8,-9,-30,-72,0,36,13
1529291918651551,-3,-5,0,28,-51,14,28,13
1529291918658663,-8,2,-3,-9,-68,-23,3,-8
1529291918658663,0,-2,15,44,-25,7,9,2
1529291918673694,-5,-12,-28,0,-21,-9,-13,-9
1529291918673694,-8,-2,18,44,-4,-28,1,-9
1529291918689023,6,8,16,9,10,31,8,12
1529291918689023,1,-7,0,-13,-15,-1,-8,-11
1529291918696862,-7,-4,-8,-2,5,13,-9,-13
1529291918696862,8,8,0,-15,-23,-8,9,-2
1529291918711818,3,-3,17,11,-9,6,9,8
1529291918711818,11,30,17,-17,12,17,9,4
1529291918718952,-3,-13,-7,7,-2,-20,-4,-2
1529291918718952,-4,-8,-10,18,8,13,3,2
1529291918733912,5,6,17,22,20,14,15,24
1529291918733912,-13,-13,-6,-10,-17,-2,-24,-38
1529291918748899,1,1,8,54,19,-14,-5,-1
1529291918748899,-3,-5,11,50,5,3,8,4
1529291918755933,6,15,6,-25,-8,-15,-23,-25
1529291918755933,3,-4,-8,-21,3,-13,5,7
1529291918770987,1,-1,-18,-67,-3,23,-2,2
1529291918770987,6,14,14,6,2,-14,0,-5
1529291918778984,-10,-14,-6,45,22,10,-7,-4
1529291918778984,7,9,-3,-63,-10,-16,6,6
1529291918794038,7,0,-17,-52,9,10,6,5
1529291918794038,-2,1,18,44,14,1,2,0
1529291918809192,0,2,-12,-1,8,-10,5,4
1529291918809192,-3,-7,-2,-3,-8,-8,-7,-3
1529291918816182,0,6,5,0,-5,-5,-3,1
1529291918816182,-7,-9,2,21,16,4,2,2
1529291918830975,6,4,6,12,1,8,9,5
1529291918830975,-2,-5,-13,-25,-5,-14,-14,-5
1529291918838954,1,5,2,-25,0,29,34,2
1529291918838954,-15,-20,-13,24,16,-7,-12,-4
1529291918854054,3,4,14,23,-7,-7,1,7
1529291918854054,-7,-4,-1,2,-7,1,6,0
1529291918869181,-5,0,0,21,5,14,-6,-5
1529291918869181,-11,-19,-12,3,-7,-21,0,1
1529291918876158,1,3,2,21,2,-1,-9,-6
1529291918876158,6,14,1,-26,-28,-20,1,-6
1529291918891113,0,2,8,18,-3,5,0,2
1529291918891113,6,0,-1,-9,2,7,6,6
1529291918899316,-3,-5,15,51,-1,-14,1,-4
1529291918899316,0,-6,-14,-11,7,0,7,4
1529291918914130,-2,-3,-2,-9,-8,-12,-9,2
1529291918914130,10,10,5,9,-1,-2,-16,8
1529291918929287,-1,-1,-7,-1,-7,-17,-12,-4
1529291918929287,7,4,5,13,-6,-4,-10,0
1529291918936404,-2,-3,-8,-13,-4,-1,-1,-1
1529291918936404,-8,-14,-15,-25,-4,5,-3,-4
1529291918951578,6,6,14,7,-13,-19,-6,2
1529291918951578,2,-1,8,20,-12,0,7,5
1529291918958561,-1,-3,-2,-15,-5,-6,-7,0
1529291918958561,0,0,4,-3,-6,5,7,-1
1529291918973565,3,4,-19,-33,6,18,7,4
1529291918973565,-11,-12,-16,-45,-15,-16,-6,-10
1529291918988560,-4,-4,0,-4,-1,-1,-2,-3
1529291918988560,3,5,7,-1,6,1,7,5
1529291918996539,4,6,9,9,9,7,-2,3
1529291918996539,1,-4,4,25,10,2,-4,-2
1529291919011486,1,-3,-2,-8,-7,-10,2,1
1529291919011486,-3,-2,-12,-21,-3,8,-6,-3
1529291919018474,1,4,8,-3,-4,-5,-16,-1
1529291919018474,-1,4,-9,5,-11,-23,-15,-8
1529291919033401,-8,-10,10,39,-3,-21,6,2
1529291919033401,-4,-3,-12,-24,6,14,1,-2
1529291919048401,-11,-11,-16,-21,-9,5,5,-5
1529291919048401,-5,-8,-4,16,0,-17,-5,-2
1529291919056371,1,-2,4,2,-2,5,2,-4
1529291919056371,3,5,6,12,9,14,16,6
1529291919071332,-1,0,-7,-11,9,-15,3,1
1529291919071332,4,5,3,-3,6,19,3,4
1529291919078315,-10,-13,-21,-42,-15,-50,1,-7
1529291919078315,-9,-8,-6,19,4,-15,-4,-3
1529291919093246,7,8,3,-4,-1,4,-4,3
1529291919093246,8,1,18,22,-2,2,9,9
1529291919109200,-15,-13,-11,-3,5,2,-6,-6
1529291919109200,6,4,1,-3,-9,7,11,6
1529291919116181,-3,-6,-1,4,-4,11,-3,0
1529291919116181,9,14,16,27,-6,4,-7,2
1529291919131188,-1,-4,-5,9,-14,-4,2,4
1529291919131188,-2,-3,-7,-15,-3,13,4,2
1529291919139175,17,15,16,12,-7,-14,1,8
1529291919139175,-1,4,17,7,-4,6,7,5
1529291919154126,-16,-16,-1,17,6,9,-5,-3
1529291919154126,4,8,3,-15,-2,4,-3,0
1529291919176167,2,1,-6,-15,-6,7,9,0
1529291919176167,-3,1,4,11,1,-9,1,-2
1529291919184141,-7,-5,-12,-18,5,13,2,-5
1529291919184141,-8,-3,-5,18,1,-9,-3,-8
1529291919199166,-3,-1,-1,-9,5,12,-4,-4
1529291919199166,8,5,11,21,-8,-5,0,3
1529291919206183,-9,-5,-12,-11,-2,6,8,-4
1529291919206183,25,19,15,-13,-11,-15,-9,4
1529291919221264,4,1,2,-4,-5,7,1,2
1529291919221264,-1,0,-13,-33,-11,9,2,-1
1529291919236208,4,10,6,7,-2,7,-1,2
1529291919236208,-12,-23,-13,-19,-7,-10,-4,-8
1529291919259037,13,14,4,-8,-6,-10,-4,2
1529291919259037,-2,-3,0,-23,3,11,8,3
1529291919266034,0,0,4,26,9,2,0,-4
1529291919266034,-9,-12,-14,-7,9,3,5,-2
1529291919280948,4,1,-4,-4,1,-7,-7,1
1529291919280948,-2,-1,3,10,7,6,-1,-1
1529291919295909,-6,-10,-2,12,1,-1,5,-2
1529291919295909,3,4,9,13,6,8,1,0
1529291919303887,1,2,-1,8,0,4,-2,-1
1529291919303887,-6,-6,-7,-4,2,13,8,2
1529291919310868,11,14,14,11,-8,-7,-4,5
1529291919310868,-1,0,11,34,0,6,0,4
1529291919318847,-5,-4,-11,-52,-7,-2,-8,-2
1529291919318847,-6,-10,-5,0,0,12,11,1
1529291919333808,5,9,8,-9,-9,-16,-17,-4
1529291919333808,3,5,6,29,6,5,11,8
1529291919348767,-3,-13,-16,-38,-7,-11,-11,-3
1529291919348767,6,4,3,-13,-6,-4,-6,0
1529291919355748,-7,-7,-4,10,3,-1,8,-3
1529291919355748,1,1,2,-7,1,4,5,2
1529291919371707,3,8,14,30,11,8,8,6
1529291919371707,-16,-22,-20,-11,6,-4,-18,-13
1529291919378687,9,7,-2,-19,-3,4,6,5
1529291919378687,8,9,7,2,0,-8,-3,0
1529291919393647,-2,2,0,10,3,0,-10,-10
1529291919393647,-1,4,2,-2,5,1,-2,0
1529291919408607,-7,-3,-7,2,-2,-1,-1,-3
1529291919408607,-3,-3,-8,-10,-1,5,1,-1
1529291919416585,-3,-8,1,1,-3,2,3,0
1529291919416585,-1,-3,-1,0,0,-7,-2,0
1529291919431545,2,3,1,-3,0,7,-1,-1
1529291919431545,-3,-6,-8,-39,-3,3,-3,1
1529291919438527,-6,-4,-5,6,-4,-17,-2,-2
1529291919438527,2,6,-1,2,-9,-4,19,8
1529291919453487,13,13,20,10,6,9,13,9
1529291919453487,-4,-5,-5,-18,2,-4,-3,-5
1529291919468448,-1,-2,-2,-4,2,-2,3,1
1529291919468448,-2,2,-1,6,2,3,1,-2
1529291919476426,-7,-8,-6,-3,1,3,5,-1
1529291919476426,-1,2,1,2,0,5,-3,-1
1529291919491385,-1,2,0,-11,-9,4,5,4
1529291919491385,-3,-2,-2,10,5,-5,-6,-5
1529291919498367,-3,-5,-7,-7,-10,-3,-4,-1
1529291919498367,-1,-4,-2,14,1,-2,-6,-1
1529291919513327,-4,-4,-4,-1,-3,-8,-1,-5
1529291919513327,-5,-3,-3,-4,-7,-7,-6,-2
1529291919528287,-3,1,3,3,0,-2,3,-1
1529291919528287,6,11,7,1,-5,2,6,3
1529291919536266,-2,-2,2,16,1,3,-5,-2
1529291919536266,0,-2,-1,2,2,0,3,-2
1529291919551226,0,0,-3,1,-4,-6,1,1
1529291919551226,0,1,1,2,-1,3,3,1
1529291919558207,-3,0,-2,-4,1,-4,-6,0
1529291919558207,-1,1,-1,-3,-1,1,8,-2
1529291919573167,1,0,2,-2,-1,-6,-14,-1
1529291919573167,2,0,0,4,-2,-2,-5,-2
1529291919581146,0,-3,-3,-1,-5,-1,-4,-2
1529291919581146,1,-3,-2,3,-10,-6,-5,0
1529291919596105,10,21,18,11,-8,4,7,7
1529291919596105,-2,3,5,1,96,3,-4,-1
1529291919611068,-6,-2,-3,-4,38,12,0,-2
1529291919611068,-4,-8,-5,-6,-21,5,-1,-2
1529291919619044,-6,-11,-10,-9,-78,1,8,2
1529291919619044,1,-1,2,12,-66,9,-4,-3
1529291919634211,0,-3,-7,-39,-29,-1,3,1
1529291919634211,1,2,0,4,-30,0,1,3
1529291919641357,-2,-3,-1,0,6,-5,-1,-2
1529291919641357,-1,-3,-2,-19,-7,-5,-5,1
1529291919656308,5,6,4,-3,24,3,7,5
1529291919656308,3,3,4,-9,1,107,-5,-1
1529291919671270,-5,-6,-3,16,3,42,-7,-8
1529291919671270,0,-3,-5,-9,9,-1,-3,0
1529291919679306,-6,-5,-10,4,17,-40,-9,-3
1529291919679306,-11,-19,-16,-8,-2,-67,-2,-3
1529291919694300,12,17,7,4,-10,-36,1,6
1529291919694300,6,14,17,7,4,-19,2,1
1529291919701452,-4,-6,-3,-7,-2,-7,-3,-1
1529291919701452,0,-2,-2,3,0,-40,-9,-7
1529291919716424,-4,-7,-13,-46,-3,9,-4,-5
1529291919716424,-1,4,9,14,-8,-9,4,2
1529291919731683,-10,-14,-7,1,0,-8,-3,-4
1529291919731683,9,13,2,5,-1,-1,-4,0
1529291919738727,1,3,5,10,19,14,20,2
1529291919738727,-8,-11,-12,-4,-19,-9,-18,-6
1529291919753843,5,12,10,8,-17,4,8,2
1529291919753843,-14,-15,-13,0,23,-1,0,-3
1529291919761803,-2,-4,-5,10,2,3,-7,-3
1529291919761803,8,13,2,-3,16,-4,7,4
1529291919776626,9,15,8,6,12,-4,-2,4
1529291919776626,-5,-2,4,6,11,-7,-5,-5
1529291919791715,-14,-11,-10,1,0,-5,-3,-4
1529291919791715,0,-9,-7,-20,-33,12,0,-3
1529291919798706,5,4,12,45,46,-9,0,2
1529291919798706,6,2,-3,-30,-31,-8,-4,1
1529291919813687,-1,-3,-5,-31,-18,18,1,-2
1529291919813687,-6,-2,0,9,-2,9,1,-3
1529291919821674,-3,-2,2,53,23,-11,-11,-4
1529291919821674,-1,2,0,-33,-50,-12,2,5
1529291919836790,0,5,-1,-35,-38,19,-18,-8
1529291919836790,-5,-5,3,28,6,25,-4,1
1529291919851084,1,-5,-10,-14,-3,-4,-5,1
1529291919851084,-1,5,3,7,-3,11,-1,1
1529291919859283,-4,3,3,-8,-11,-2,3,2
1529291919859283,-1,-4,-12,-4,5,-1,8,2
1529291919874081,-1,2,4,8,12,-16,4,-2
1529291919874081,7,5,3,1,-1,6,2,4
1529291919881200,-2,-8,-4,-5,-27,24,5,0
1529291919881200,-1,-3,-4,-3,4,14,8,-1
1529291919904140,-4,-12,-12,-29,-47,12,-1,-4
1529291919904140,2,1,12,46,-5,1,-3,2
1529291919911142,7,8,18,24,-36,10,3,6
1529291919911142,-6,-4,-11,-36,-36,-8,-6,-5
1529291919926142,-2,-10,-10,-20,-40,-1,2,2
1529291919926142,4,3,-2,-5,16,-11,3,0
1529291919934119,-3,-2,2,7,30,-19,-17,-4
1529291919934119,2,12,12,11,43,-4,8,5
1529291919949221,0,-4,-2,-2,30,-13,-2,2
1529291919949221,-1,-1,-4,-11,1,4,7,2
1529291919964175,-6,-3,-3,0,21,-18,-1,-1
1529291919964175,1,3,2,-9,-5,7,-3,-1
1529291919971124,-4,-2,4,4,23,-9,0,-3
1529291919971124,3,-5,-3,2,9,-2,0,0
1529291919994013,4,-2,2,-1,-1,-3,2,1
1529291919994013,-2,-4,0,3,11,12,2,1
1529291920000998,3,-3,-10,-3,-10,9,6,3
1529291920000998,3,7,15,17,-16,-14,-4,-1
1529291920016110,1,19,24,31,32,-1,1,4
1529291920016110,-4,-5,-22,-21,-7,1,-1,0
1529291920031272,0,-3,-5,5,23,0,-2,-2
1529291920031272,0,4,3,-2,-1,-16,-1,-4
1529291920046279,-1,1,5,8,19,-13,2,3
1529291920046279,0,2,-1,-8,-2,2,0,-2
1529291920054306,1,0,4,14,-2,1,-1,3
1529291920054306,1,2,0,-14,17,-1,-1,-5
1529291920070656,1,-2,0,-12,-16,10,1,-2
1529291920070656,-1,-6,-3,5,24,-7,0,-1
1529291920083584,-3,-8,-9,-17,15,-25,-7,-4
1529291920083584,2,5,5,-2,7,-6,1,0
1529291920091565,2,8,3,-10,13,1,-1,2
1529291920091565,-4,-1,-5,18,-2,-1,-1,-1
1529291920113644,-4,-4,-7,-4,-16,5,0,-4
1529291920113644,1,-1,7,4,-2,-2,-1,-2
1529291920121701,1,-6,4,2,-6,-3,2,-1
1529291920121701,0,-7,-4,-4,-9,-3,0,1
1529291920136802,2,-5,-4,-6,-15,3,-2,-1
1529291920136802,-1,-5,-3,20,-17,6,-1,1
1529291920151765,-3,-5,-2,-3,-15,13,2,-1
1529291920151765,-6,-8,-2,-3,-21,-21,-9,-2
1529291920166047,-4,-2,-6,-15,-12,-5,-4,-1
1529291920166047,0,1,3,-3,11,-6,-1,0
1529291920174025,1,4,5,7,9,-6,-3,-4
1529291920174025,-1,-4,-1,18,21,8,3,-2
1529291920188823,0,-4,-7,-22,9,2,0,0
1529291920188823,-1,3,4,14,3,0,1,1
1529291920203910,-1,1,4,18,-6,-1,2,1
1529291920203910,1,0,0,-6,2,2,-1,-2
1529291920211137,-3,-2,-1,5,-12,-3,-5,-2
1529291920211137,0,1,3,3,7,-2,-4,1
1529291920226493,-2,0,-2,-6,-24,-13,-5,-3
1529291920226493,-2,2,-6,-16,5,-5,-2,0
1529291920234318,0,3,1,5,12,-2,-1,-1
1529291920234318,-3,0,-1,-11,2,-2,0,-3
1529291920249313,-1,-1,4,6,6,4,0,0
1529291920249313,-3,-6,-2,-4,-27,0,-3,-2
1529291920271368,-1,0,-4,-9,7,3,1,0
1529291920271368,-5,-1,3,10,4,1,1,0
1529291920278526,-2,1,0,0,0,-3,0,1
1529291920278526,-1,2,1,-11,-3,-4,0,0
1529291920293486,1,2,5,15,8,6,2,2
1529291920293486,-6,-6,-2,16,-4,-6,-2,-4
1529291920301466,-2,-4,-3,-7,-2,2,1,-1
1529291920301466,1,1,-4,-14,-4,2,2,0
1529291920308594,1,3,-2,6,-2,2,3,-1
1529291920308594,2,3,0,4,5,2,4,0
1529291920323562,0,-4,-2,1,-1,1,0,0
1529291920323562,1,3,0,-7,3,-4,-2,2
1529291920331540,0,-2,0,6,1,1,0,0
1529291920331540,0,1,-1,-3,-2,-2,-3,0
1529291920346674,-2,-4,0,4,0,1,-2,-1
1529291920346674,-2,-4,0,-2,5,1,0,0
1529291920353655,-2,-1,1,3,0,1,-3,-1
1529291920353655,-3,0,3,1,2,1,0,0
1529291920368762,0,-2,-1,-5,-1,-1,0,1
1529291920368762,2,1,-2,-14,-4,0,-1,1
1529291920384276,-1,0,-2,-2,2,2,1,-1
1529291920384276,-1,1,0,-3,6,1,-1,-3
1529291920391422,0,-1,-1,-6,1,1,0,0
1529291920391422,-3,1,-2,0,5,1,0,0
1529291920406223,-1,2,0,3,3,0,-1,-1
1529291920406223,0,2,1,0,2,-1,-2,-1
1529291920414237,-3,0,1,-2,-1,-1,-2,1
1529291920414237,1,0,-1,-1,-4,-1,-2,-3
1529291920428453,2,-1,1,2,-5,-1,-2,-1
1529291920428453,3,-2,-2,-2,-2,-3,1,0
1529291920444301,-1,-2,1,-3,1,1,-2,0
1529291920444301,-1,1,2,5,4,1,1,2
1529291920451388,-2,2,-2,-4,1,1,1,0
1529291920451388,0,-1,-1,-3,-1,1,-1,1
1529291920466304,-2,0,-5,-4,-2,0,0,-2
1529291920466304,-1,-3,-2,0,-2,-1,-1,-1
1529291920473533,0,-2,0,-3,0,-1,0,-1
1529291920473533,-1,-1,-2,-2,-2,-2,0,-2
1529291920489325,3,2,1,2,2,0,1,-1
1529291920489325,1,1,-1,-1,1,1,1,-1
1529291920496516,0,2,0,-1,-4,-1,0,-1
1529291920496516,-2,-3,1,1,-2,0,-1,-2
1529291920511620,-2,-3,-3,0,-1,-1,-3,-2
1529291920511620,-2,1,-3,2,-2,-1,-1,-1
1529291920526745,1,0,0,-2,-1,0,2,0
1529291920526745,0,-3,0,1,2,-3,-1,0
1529291920533595,2,-1,3,-3,4,0,-1,0
1529291920533595,1,0,1,-3,2,-2,-2,1
1529291920549321,-1,-2,-1,-1,1,-1,-3,-3
1529291920549321,-3,3,1,-2,-3,-1,0,-1
1529291920556311,-2,1,-1,2,-3,-4,0,-2
1529291920556311,0,-2,-2,-3,-4,-1,1,-2
1529291920571105,-1,-2,-2,-2,0,-1,-1,0
1529291920571105,-2,1,-1,1,2,-1,0,1
1529291920586788,0,1,-5,0,0,-3,-2,0
1529291920586788,-2,-1,1,-2,-2,0,-3,0
1529291920593600,2,2,-1,-6,-5,-2,0,-2
1529291920593600,3,-2,3,-2,-1,1,1,-1
1529291920608704,1,-1,2,0,-1,0,-1,-1
1529291920608704,-2,-1,1,1,-1,1,1,1
1529291920616536,-3,-2,-2,-2,-3,0,-3,0
1529291920616536,-1,2,0,1,-1,-1,-4,1
1529291920631496,1,-2,-2,1,0,-2,-1,-2
1529291920631496,2,-2,0,-2,0,0,2,-1
1529291920646613,1,2,-2,-1,-1,0,3,-1
1529291920646613,-2,0,0,2,2,-1,3,0
1529291920653593,-3,-3,-1,-1,-1,-1,2,-1
1529291920653593,-1,-3,-1,-8,-4,-1,0,0
1529291920668557,-1,-5,0,-2,-2,-1,-3,-1
1529291920668557,3,-2,-2,4,1,-2,-1,-1
1529291920676376,0,2,0,2,3,-1,-1,0
1529291920676376,-1,0,-1,1,0,-1,0,-2
1529291920691339,-2,4,-1,0,-1,1,-1,-2
1529291920691339,-1,0,2,-3,-2,-1,0,-1
1529291920706606,-1,0,-4,-6,-2,-4,-1,-1
1529291920706606,1,-2,-3,0,1,-1,-1,0
1529291920713591,1,-1,-1,-9,0,-1,0,1
1529291920713591,0,0,2,8,0,-1,-2,-2
1529291920728547,-1,-2,0,1,1,0,-2,-3
1529291920728547,-2,-1,-1,-3,0,1,0,-1
1529291920736527,-1,0,0,1,0,0,1,-1
1529291920736527,1,1,0,3,-1,-1,0,0
1529291920751373,-1,2,3,-7,-2,1,0,2
1529291920751373,-2,1,1,1,-1,-1,0,0
1529291920766293,-1,-3,-2,2,0,-1,0,1
1529291920766293,1,-4,-3,-1,0,1,-2,1
1529291920773627,-1,-1,-4,-2,2,-2,1,-2
1529291920773627,-5,0,-3,0,0,0,0,-1
1529291920788591,-1,1,-2,3,0,0,-1,0
1529291920788591,1,-1,-3,-2,-1,0,-2,-1
