timestamp,emg1,emg2,emg3,emg4,emg5,emg6,emg7,emg8
1529291926880990,-1,-4,-2,-2,1,0,-1,1
1529291926880990,-2,-2,-1,-1,-2,0,0,-1
1529291926881988,3,1,0,-3,-2,0,1,-2
1529291926881988,-11,-3,-2,-2,-2,-1,0,-3
1529291926882985,-8,-1,-2,-1,0,-5,-2,1
1529291926882985,17,-1,1,-1,2,-2,-3,3
1529291926883982,-6,-4,-2,-1,-2,-3,-1,-1
1529291926883982,6,0,-1,0,-2,-1,-2,1
1529291926891961,3,1,-1,-2,-2,0,1,0
1529291926891961,-7,-4,-3,-2,-1,-2,0,-2
1529291926895949,3,-1,0,1,0,-1,0,1
1529291926895949,0,-3,-1,-2,-1,0,0,-1
1529291926906920,-5,-2,0,1,2,-1,-1,-1
1529291926906920,0,1,0,-2,0,-1,-2,-1
1529291926921880,-14,-9,-12,-4,-4,1,-5,-6
1529291926921880,12,2,3,-1,-4,-1,0,3
1529291926926867,14,2,-4,-3,-5,-2,0,0
1529291926926867,0,4,-2,-1,-4,-1,0,-1
1529291926941827,1,1,4,1,3,-1,-3,1
1529291926941827,-7,-4,-6,-6,-3,0,0,2
1529291926950803,-2,-1,4,-1,0,-2,-2,-1
1529291926950803,-1,-5,-5,-1,-2,0,0,4
1529291926988703,-13,0,1,2,-1,-1,-4,-17
1529291926988703,-21,-12,-5,-2,-3,-1,-2,-5
1529291926989699,-3,-3,-1,0,-1,0,-2,-2
1529291926989699,4,2,0,-3,1,1,1,2
1529291926991693,3,0,1,-2,-2,-2,0,2
1529291926991693,3,3,3,-1,-1,0,-2,-1
1529291926995683,-1,-2,-2,-1,-2,-4,-2,-3
1529291926995683,-12,-6,2,1,-4,-1,0,-2
1529291927001667,11,-1,0,-1,-1,-6,-5,0
1529291927001667,-5,-2,-8,-9,-7,-12,-11,-4
1529291927010644,12,2,-4,-3,7,15,12,8
1529291927010644,1,3,21,6,2,0,-3,0
1529291927016627,-2,-1,-17,4,2,14,9,0
1529291927016627,8,3,3,1,2,6,6,5
1529291927033582,-8,-6,-1,-15,-18,-23,-13,-6
1529291927033582,-1,-2,1,14,2,-21,-15,-6
1529291927038569,-1,-6,5,2,13,25,14,4
1529291927038569,0,-5,-13,-20,-5,-10,-6,-2
1529291927061507,0,3,10,16,8,27,8,0
1529291927061507,-2,-2,-8,-18,-13,-9,-8,-4
1529291927062505,-7,-5,-4,1,-6,-17,-20,-3
1529291927062505,-1,-4,-23,-64,-16,-1,-4,-9
1529291927076467,-5,1,18,71,23,-19,-12,-11
1529291927076467,1,0,-1,-20,0,-7,-8,-12
1529291927085443,-4,-4,-6,-25,17,-1,1,-16
1529291927085443,-3,-7,0,-12,-32,-19,-12,-8
1529291927106387,-7,1,-7,-36,-23,-26,-10,-4
1529291927106387,2,-1,-5,-31,7,23,10,10
1529291927107384,6,8,18,-48,54,16,17,12
1529291927107384,12,5,12,-105,-1,17,30,19
1529291927121346,4,-7,-5,-82,36,54,17,3
1529291927121346,-8,-6,-12,-1,-43,-34,-19,-12
1529291927122344,-5,1,-2,60,-39,-15,-6,-1
1529291927122344,-5,1,4,107,19,23,7,3
1529291927136311,-4,0,-7,54,-34,-7,-4,-2
1529291927136311,3,3,-8,72,35,71,26,21
1529291927145284,-2,0,0,55,-20,10,-13,-8
1529291927145284,-9,3,2,75,-39,-34,-26,-19
1529291927159245,-26,-8,-8,25,-16,64,1,-19
1529291927159245,28,12,1,109,26,25,16,18
1529291927160243,-6,-5,-11,118,7,-7,1,-1
1529291927160243,22,18,12,127,80,37,44,30
1529291927182184,-2,5,12,86,-7,-30,6,9
1529291927182184,-21,-3,14,40,-18,-23,14,-15
1529291927183181,23,-3,-5,-30,-29,-39,7,11
1529291927183181,-6,-5,12,-7,-18,-49,-27,-19
1529291927204125,6,-6,-8,-85,-27,-51,0,5
1529291927204125,2,-2,-6,-95,-5,-18,5,12
1529291927205123,0,-2,-13,-113,10,10,1,2
1529291927205123,0,-12,-17,-76,35,58,16,12
1529291927219086,12,-3,-14,-95,-24,-23,-15,5
1529291927219086,-13,-10,-6,-73,-8,-31,-34,-31
1529291927220090,-26,-9,-3,-65,-10,-33,-41,-29
1529291927220090,-1,0,-1,-71,-26,-41,5,11
1529291927242025,7,7,9,-15,70,88,33,18
1529291927242025,-3,-6,2,-24,7,6,24,2
1529291927243021,-1,-6,-5,-33,-12,-3,-21,-7
1529291927243021,-18,-9,-40,-67,-47,-53,-45,-21
1529291927255988,0,-4,-44,25,3,-8,14,10
1529291927255988,10,-5,-47,-27,25,20,13,15
1529291927263971,-3,-1,23,6,-8,-9,7,16
1529291927263971,6,2,25,-37,-28,-13,-8,3
1529291927278926,-4,-6,75,7,19,-52,-31,-9
1529291927278926,-9,3,107,5,11,47,13,0
1529291927286904,-1,5,114,-1,16,21,22,13
1529291927286904,3,7,127,-34,-16,1,-11,-8
1529291927301864,6,10,127,-25,5,6,-9,-6
1529291927301864,-1,4,97,-61,-22,-44,-1,2
1529291927302861,0,4,43,-124,1,22,-20,-24
1529291927302861,11,12,25,-37,22,17,37,24
1529291927315832,-17,0,-22,-13,13,35,0,-6
1529291927315832,43,10,-34,66,6,-22,-4,39
1529291927323818,-31,6,-54,52,-26,-12,-14,-31
1529291927323818,-8,-3,-58,125,6,-9,-22,-4
1529291927340760,2,4,-54,107,-2,-2,25,21
1529291927340760,-11,-1,-81,68,12,12,-1,9
1529291927341763,4,0,-87,27,-17,-16,-13,-5
1529291927341763,4,-2,-84,31,0,-8,-13,-28
1529291927361705,-4,3,-78,24,-1,3,13,-10
1529291927361705,1,3,-69,-1,7,24,6,-18
1529291927362719,11,-8,-64,27,-4,-20,-9,-1
1529291927362719,-14,-3,-44,15,-2,-25,-17,-13
1529291927376665,11,1,-51,-14,-10,-1,-21,-9
1529291927376665,-9,-7,-40,-14,-8,1,-14,-19
1529291927383645,19,3,-35,6,17,24,32,29
1529291927383645,-7,-2,-29,27,27,37,10,0
1529291927399615,1,-3,-32,7,-10,-34,-14,-1
1529291927399615,-18,-7,-30,-17,-26,-5,-22,-9
1529291927400600,8,0,-26,15,-8,-4,10,13
1529291927400600,9,1,-39,8,10,12,9,5
1529291927421544,-9,-3,-53,3,-6,-30,-27,-17
1529291927421544,-19,-5,-113,-25,-37,-50,-37,-24
1529291927422545,-1,2,-123,63,35,18,27,19
1529291927422545,12,0,-94,28,15,40,30,15
1529291927444483,4,0,-7,-29,15,33,17,4
1529291927444483,0,-4,83,-17,-10,-18,-11,-8
1529291927445480,-1,-1,120,-11,-13,-8,-13,-9
1529291927445480,0,1,127,-3,-5,-5,-4,-4
1529291927459443,-12,-7,120,7,-5,-7,2,1
1529291927459443,8,2,123,-9,-5,-4,-5,-9
1529291927460442,22,-4,107,-20,-9,1,7,22
1529291927460442,-31,-2,82,-8,2,6,-13,-43
1529291927481384,22,3,45,-18,-14,-15,-5,10
1529291927481384,-38,-16,25,-15,1,-2,-6,-26
1529291927482382,-1,-7,23,-2,6,18,16,16
1529291927482382,21,-6,12,38,16,12,17,28
1529291927504323,-18,-19,-7,-9,-8,-7,-11,-14
1529291927504323,-5,-11,-11,14,7,6,0,-2
1529291927505321,5,-8,-3,-41,-14,-18,-8,-2
1529291927505321,-17,-13,25,12,-12,-9,-13,-9
1529291927519283,11,-3,18,-22,4,0,2,6
1529291927519283,24,5,-5,48,7,-5,8,18
1529291927520280,-8,6,-8,13,0,-15,-20,-25
1529291927520280,19,8,-11,-48,13,27,30,30
1529291927542222,13,-8,-14,-7,-14,0,-5,-3
1529291927542222,-27,-1,5,-5,4,6,1,-4
1529291927542222,21,5,52,-2,-9,-19,-12,4
1529291927542222,-21,0,116,-6,-3,-8,-5,-16
1529291927564163,17,9,115,-7,-12,-11,-1,7
1529291927564163,-15,-1,71,-40,-19,2,3,9
1529291927565161,21,-2,-20,-49,-12,19,15,5
1529291927565161,-9,-6,-49,19,-7,-16,-16,-8
1529291927587102,-1,3,-77,13,-6,-8,-5,-1
1529291927587102,-3,0,-88,-29,1,9,1,-13
1529291927588098,-26,-3,-94,19,8,0,8,1
1529291927588098,33,4,-109,6,21,16,8,15
1529291927602062,-22,-6,-103,-6,-3,-9,-9,-17
1529291927602062,10,-6,-55,14,-3,-2,12,15
1529291927603059,-15,0,-24,53,21,-2,-3,-14
1529291927603059,15,-1,-45,-74,-24,-1,-2,1
1529291927624004,-19,-3,-51,-13,-6,-2,-3,-3
1529291927624004,1,20,-42,-9,8,-4,-3,2
1529291927625000,5,28,-7,33,-2,-12,-13,-10
1529291927625000,-12,34,-25,48,20,10,8,2
1529291927638962,-12,57,-27,-15,6,-6,-4,-4
1529291927638962,16,36,-9,31,9,10,10,2
1529291927639964,-9,0,-11,2,-6,1,-6,-5
1529291927639964,-11,-23,-13,29,6,0,-4,-1
1529291927661901,-3,-38,-5,19,-4,-14,-10,-6
1529291927661901,11,-35,-12,34,20,25,21,11
1529291927662899,-12,-28,-35,2,0,-2,-8,-8
1529291927662899,3,-25,-5,-11,-4,-2,-1,0
1529291927684840,-5,-21,12,-17,-2,-11,-7,-4
1529291927684840,0,-17,38,-1,-15,13,-1,-6
1529291927684840,15,-7,46,-12,-8,11,16,23
1529291927684840,-39,-10,40,5,-12,-24,-20,-29
1529291927699804,5,2,40,-16,4,10,8,2
1529291927699804,5,-8,25,0,13,-5,-2,1
1529291927699804,-7,-3,21,31,-6,1,1,1
1529291927699804,-5,3,5,6,-4,-20,-15,-4
1529291927721742,8,9,-21,17,-2,1,4,1
1529291927721742,7,13,-75,-15,-8,-9,-2,5
1529291927722739,9,10,-101,-29,33,32,9,1
1529291927722739,5,2,-123,-13,-1,6,10,3
1529291927744682,-13,-15,-94,39,-2,-11,-17,-13
1529291927744682,-2,-12,-23,-30,-23,-20,-12,-9
1529291927745678,-6,-13,41,-13,5,9,12,3
1529291927745678,-15,-41,75,-13,-20,-10,-13,-6
1529291927759673,15,-40,101,34,22,29,40,23
1529291927759673,2,-50,52,1,10,5,-7,1
1529291927760638,-9,-12,59,-10,-7,-7,-10,-12
1529291927760638,9,-4,43,-3,7,-3,-1,6
1529291927781746,1,26,46,-9,-6,2,-1,3
1529291927781746,0,28,46,10,4,-12,-5,-1
1529291927782613,-5,24,27,2,-13,-10,-2,0
1529291927782613,5,38,6,-16,-5,-3,-4,-3
1529291927804703,-16,32,6,-19,0,7,5,-9
1529291927804703,30,36,6,12,1,-12,-8,12
1529291927805548,-40,2,-4,14,-5,-7,-3,-23
1529291927805548,20,16,-10,-26,-6,4,8,10
1529291927819556,0,10,-7,-45,-12,0,-2,1
1529291927819556,-17,2,-6,4,8,4,1,-5
1529291927820496,2,10,-6,10,3,-16,-25,-8
1529291927820496,-6,-1,10,-1,-1,5,18,5
1529291927841489,3,5,-2,9,-7,-7,-8,1
1529291927841489,-5,5,-7,-3,-1,6,6,1
1529291927842437,7,0,16,43,15,5,-2,2
1529291927842437,-15,-5,8,-3,-12,-17,-11,-18
1529291927864378,7,-6,1,-11,0,-7,2,6
1529291927864378,-5,-2,13,13,17,17,7,-2
1529291927865377,-1,-5,12,-21,-17,-16,-6,1
1529291927865377,8,8,12,-37,3,1,-5,-2
1529291927879463,-8,-9,3,9,-5,3,1,-1
1529291927879463,-5,0,11,-18,-7,-11,-10,-5
1529291927880336,1,-3,1,-35,-7,-6,1,-3
1529291927880336,-4,-3,-5,7,-3,-6,-10,-2
1529291927902278,10,-12,-18,17,5,4,0,1
1529291927902278,6,-2,-29,-17,-8,-11,-9,-7
1529291927903275,-8,-14,-39,18,-11,-13,-18,-8
1529291927903275,-1,-3,-30,33,6,-4,8,8
1529291927924420,10,9,-46,-18,23,34,22,13
1529291927924420,6,-4,-35,54,17,16,4,2
1529291927925415,-1,0,-31,-20,-9,-3,-7,-4
1529291927925415,0,-7,-19,-23,-21,-34,-15,-11
1529291927939508,-7,-3,7,-25,-10,-18,-11,-7
1529291927939508,5,2,20,-9,-5,17,9,8
1529291927940375,0,-5,22,-21,3,11,12,7
1529291927940375,-7,-6,37,-21,10,16,3,-2
1529291927970461,-6,-2,41,22,-18,-34,-31,-16
1529291927970461,-13,-4,50,-7,2,-16,-5,-10
1529291927971457,4,-7,29,-14,-3,11,16,8
1529291927971457,2,2,39,18,12,13,0,2
1529291927984608,1,1,25,-6,14,13,10,3
1529291927984608,-9,-1,26,13,-10,-14,-14,-10
1529291927985455,-5,-6,11,-20,-13,-18,-10,-5
1529291927985455,-1,-9,9,13,-9,-7,-4,-3
1529291928008569,5,3,8,-3,12,26,21,13
1529291928008569,-8,-1,11,-3,7,1,7,1
1529291928008569,6,1,1,-6,6,17,8,4
1529291928008569,-2,-1,-3,-1,-1,2,-4,-4
1529291928030337,-5,-2,-6,-43,-31,-39,-26,-12
1529291928030337,4,-5,3,6,8,16,12,5
1529291928031441,-1,1,11,10,13,12,11,7
1529291928031441,6,1,3,-48,-16,-2,-1,2
1529291928044301,-8,-6,31,52,22,-13,-9,-12
1529291928044301,1,1,12,-21,-12,-7,-13,-5
1529291928045298,6,4,29,14,-2,-6,1,4
1529291928045298,4,1,21,9,24,37,19,11
1529291928067276,-2,-3,12,-41,-25,-1,1,1
1529291928067276,-3,-4,13,1,-8,-6,-15,-6
1529291928068273,-6,-4,17,-4,8,-8,3,-4
1529291928068273,3,0,11,-7,-10,-4,1,4
1529291928090371,-2,-5,18,11,6,19,0,-3
1529291928090371,6,1,18,-4,-6,-7,8,7
1529291928091373,3,-2,14,2,4,10,4,1
1529291928091373,-7,2,113,30,-1,-30,-20,-13
1529291928104522,0,-3,95,10,1,2,8,4
1529291928104522,-1,-2,59,-22,4,3,-2,-2
1529291928105371,5,2,76,44,24,21,12,5
1529291928105371,1,4,33,6,3,-9,-5,-1
1529291928127658,-12,-4,9,5,-5,-12,-7,-6
1529291928127658,14,4,-33,-13,-16,-9,-3,0
1529291928128640,-2,1,-76,-19,-7,-6,1,1
1529291928128640,-5,0,-94,-5,-21,-18,-19,-8
1529291928150674,3,3,-95,27,22,19,16,6
1529291928150674,-7,-5,-87,-8,-7,-7,-6,-2
1529291928150674,-3,4,-69,-19,-15,-22,-14,-7
1529291928150674,-2,-6,-67,20,24,45,23,10
1529291928164685,-2,-1,-66,3,-14,-25,-16,-8
1529291928164685,-4,-2,-43,4,9,6,11,1
1529291928165541,2,-2,-25,1,-3,10,0,-1
1529291928165541,0,-5,-34,-8,-10,-20,-8,-1
1529291928187483,7,-2,-27,20,18,23,14,6
1529291928187483,-2,-4,-10,1,-18,-16,-13,-5
1529291928189491,-11,-8,-13,-23,-10,-12,-19,-14
1529291928189491,2,0,-52,13,3,3,11,5
1529291928210425,-4,-4,-61,-27,1,0,-2,-2
1529291928210425,-4,6,35,-3,-4,12,-3,-2
1529291928211422,0,-2,18,13,2,-3,3,4
1529291928211422,0,-2,17,-3,11,27,10,3
1529291928223449,0,-5,-1,3,-12,-30,-20,-7
1529291928223449,-6,-9,-14,-7,0,7,5,-2
1529291928232362,-1,5,-4,-11,12,17,7,2
1529291928232362,7,2,-5,-16,-9,0,8,4
1529291928247322,-7,-1,5,12,-1,-7,-9,-5
1529291928247322,-15,-10,-7,-20,-6,-15,-6,-4
1529291928249335,5,4,1,-5,-13,-9,-10,1
1529291928249335,-5,-1,-5,-10,-22,-27,-8,-4
1529291928270264,10,9,7,33,39,53,28,16
1529291928270264,2,0,-3,3,-15,-24,-10,-5
1529291928271260,-11,-8,-10,-9,-22,-16,-8,-9
1529291928271260,2,-3,0,24,11,5,7,4
1529291928292257,8,4,8,-25,1,16,12,3
1529291928292257,3,2,-6,8,7,9,7,4
1529291928294217,-4,2,-4,24,12,-1,-3,-5
1529291928294217,-1,1,1,-29,-25,-32,-25,-11
1529291928307184,-4,3,6,-4,-4,-2,-7,-2
1529291928307184,2,5,-6,20,11,10,15,7
1529291928309158,1,-1,-2,-7,2,-5,-4,-2
1529291928309158,3,2,2,-1,-5,-16,-9,-6
1529291928330157,-6,1,0,2,-4,-3,6,6
1529291928330157,29,-1,-3,-10,0,9,-1,-2
1529291928332097,-45,-12,-15,-6,-2,-3,-5,-24
1529291928332097,3,2,-26,12,1,-6,-4,-1
1529291928344120,-13,-2,-35,18,-11,-13,-7,-8
1529291928344120,-3,0,-30,-10,-13,-26,-16,-3
1529291928353095,21,5,-28,1,15,21,20,19
1529291928353095,-9,-3,-25,3,13,25,3,0
1529291928368077,-3,-2,-16,6,-13,-29,-5,-5
1529291928368077,-11,-5,-8,-2,-3,-5,-6,-6
1529291928369040,6,-3,-10,-6,4,5,0,3
1529291928369040,-8,-7,-1,13,12,20,15,3
1529291928389998,5,-4,0,-14,-7,-7,-16,-4
1529291928389998,-7,1,-2,-2,-8,-16,1,-3
1529291928391937,5,5,-2,-29,-9,-1,12,11
1529291928391937,5,0,5,35,5,-1,-9,-3
1529291928403960,-8,-4,15,-11,-11,-1,-3,-4
1529291928403960,1,3,-1,3,7,10,4,3
1529291928412895,-3,0,4,0,-15,-21,-14,-7
1529291928412895,9,1,4,3,12,22,15,8
1529291928427868,0,-2,4,-17,-13,-5,-3,-6
1529291928427868,-5,-7,6,-12,-1,-11,0,0
1529291928428856,5,7,5,23,-5,-12,-4,-7
1529291928428856,-2,-7,0,-6,-2,-1,-1,-1
1529291928449840,4,6,5,-11,1,6,11,4
1529291928449840,-3,-8,-9,-5,-6,8,-7,3
1529291928451776,-3,-2,15,11,4,-6,-3,-4
1529291928451776,-3,-2,0,-15,-14,-11,-14,-7
1529291928463746,-3,-9,-4,-12,-6,-8,-6,-6
1529291928463746,4,6,-2,-4,14,30,20,7
1529291928478757,3,-3,4,2,-2,1,-4,0
1529291928478757,1,2,-1,-22,0,7,4,3
1529291928487682,-1,-2,12,19,6,-4,-6,0
1529291928487682,-8,-5,-2,0,-10,-13,-9,-9
1529291928489675,3,-4,-2,-11,1,4,3,1
1529291928489675,-5,1,4,-8,-3,-9,-6,-5
1529291928509677,-2,-1,4,-10,-17,-12,-17,-9
1529291928509677,0,1,1,1,13,19,19,7
1529291928511624,0,-10,-6,44,5,12,1,0
1529291928511624,-4,-4,-1,-7,-8,-9,-7,-4
1529291928523637,-1,0,-2,-13,-8,-9,-4,-1
1529291928523637,-9,-1,9,21,0,-21,-16,-8
1529291928532561,9,6,0,-10,3,33,26,14
1529291928532561,-2,3,4,5,11,6,6,2
1529291928547526,3,1,-3,1,0,10,4,0
1529291928547526,-6,3,-4,-16,-7,-13,-12,-7
1529291928553714,-6,1,2,-21,-19,-31,-23,-9
1529291928553714,-5,-3,1,25,2,-5,10,2
1529291928570717,2,0,5,7,19,18,10,8
1529291928570717,2,1,-3,-8,2,13,2,0
1529291928571669,-2,5,6,-11,-2,-4,-4,-3
1529291928571669,-5,-1,-11,-13,-14,-7,-9,-7
1529291928583778,-1,2,25,2,-7,-15,-5,-5
1529291928583778,1,4,2,11,0,4,2,-1
1529291928592612,-4,0,1,-5,1,-2,0,0
1529291928592612,-2,7,4,-8,-3,-8,-8,-2
1529291928607944,0,2,-6,1,1,3,4,2
1529291928607944,2,2,3,3,6,5,3,0
1529291928609765,2,1,2,-4,0,4,1,4
1529291928609765,-3,-7,4,1,-7,-5,-8,-2
1529291928630106,-6,-4,-6,-7,-6,-5,-4,-6
1529291928630106,-7,-7,7,7,4,0,-4,-5
1529291928631943,12,-5,-9,-7,-2,0,2,5
1529291928631943,6,1,9,11,9,5,5,5
1529291928644276,3,1,2,3,5,11,5,2
1529291928644276,-5,6,4,-14,-14,-18,-11,-5
1529291928653246,-5,-7,3,17,4,-8,-3,-2
1529291928653246,-1,4,10,-17,-4,3,5,-1
1529291928667049,0,2,-1,-23,-4,1,1,-1
1529291928667049,0,9,10,7,5,-1,-4,-1
1529291928674188,-4,-1,1,-13,-8,-8,-8,-6
1529291928674188,-4,3,1,-23,-10,-5,-6,-3
1529291928690020,-7,8,-7,-4,-6,-1,-3,-2
1529291928690020,1,3,-4,-7,-7,0,2,0
1529291928691983,-5,2,-2,2,0,-1,0,-2
1529291928691983,-3,-14,-4,0,1,-1,-1,-1
1529291928704152,2,-8,-6,-1,-1,-2,-1,1
1529291928704152,-3,-19,-6,1,-1,1,0,0
1529291928713276,-2,-6,0,-1,1,-4,-5,-3
1529291928713276,8,-8,-111,-1,10,-6,5,3
1529291928727087,-3,-12,-107,4,-3,-11,-6,-2
1529291928727087,1,-1,-1,9,0,0,-4,1
1529291928733264,-4,-5,69,-3,-10,-3,-4,-4
1529291928733264,-6,-2,127,-9,-17,-21,-11,-7
1529291928751615,1,2,127,37,25,38,23,10
1529291928751615,-2,-8,93,0,7,9,9,4
1529291928753658,-4,-7,83,-25,-3,6,3,-1
1529291928753658,-6,-6,89,10,-3,-3,-9,-6
1529291928763740,-2,-3,71,-19,-12,-17,-11,-7
1529291928763740,-2,-1,60,1,2,0,-2,1
1529291928780538,-2,10,38,-9,-7,-1,-3,-11
1529291928780538,-3,1,34,-7,-5,4,3,-2
1529291928787858,0,-1,38,-4,-1,1,-3,-3
1529291928787858,-3,-2,24,-1,-4,1,2,-1
1529291928795751,-6,-8,5,8,-1,-7,-1,0
1529291928795751,7,1,10,4,4,1,2,3
1529291928810659,-6,1,19,0,-7,-17,-11,-6
1529291928810659,2,-3,6,-4,-4,-7,-1,0
1529291928811657,3,1,-7,10,19,19,14,9
1529291928811657,3,-2,10,13,13,25,18,4
1529291928824006,1,-2,11,-8,0,-9,-7,-1
1529291928824006,0,-5,-2,-19,-11,-16,-15,-11
1529291928832817,-3,-8,-2,12,-1,-6,-5,-2
1529291928832817,-2,3,6,6,-4,-2,-12,-4
1529291928846918,0,-4,3,-16,-5,2,7,4
1529291928846918,8,2,-2,2,12,22,7,7
1529291928853900,1,3,-2,-3,5,4,1,0
1529291928853900,2,0,1,6,-1,-1,-1,-2
1529291928869717,-26,-2,1,-12,-11,-11,-5,-4
1529291928869717,21,10,1,-2,-7,-10,-9,-4
1529291928871713,0,-2,-2,7,1,1,0,3
1529291928871713,-3,0,0,-3,-3,0,-2,-4
1529291928893038,8,-1,2,2,0,1,-2,-2
1529291928893038,-4,-1,0,-20,2,-3,-1,-4
1529291928894038,-3,-4,-3,-22,-4,-5,-11,-7
1529291928894038,-1,-3,-1,-24,-10,-13,-14,-10
1529291928907362,-1,-3,2,-1,-4,-8,-6,-8
1529291928907362,-4,-1,-1,0,5,-2,7,-1
1529291928913486,9,10,-3,-5,7,7,14,7
1529291928913486,-5,-6,1,-18,3,10,6,4
1529291928930459,9,3,7,105,-8,-7,3,6
1529291928930459,-7,1,109,114,-6,0,6,4
1529291928931301,2,6,121,127,1,11,8,2
1529291928931301,-2,14,124,121,-2,3,4,1
1529291928952432,-3,-2,122,113,-2,4,-4,-1
1529291928952432,-9,-8,3,57,-6,-8,-11,-7
1529291928954271,-14,-10,-23,7,-5,-13,-10,-7
1529291928954271,5,-3,-58,-27,-2,-2,3,-2
1529291928967271,5,-8,-77,-61,-1,-7,-5,-24
1529291928967271,-7,-5,-55,-57,2,-1,5,-5
1529291928973423,4,-2,-43,-77,-3,-4,-5,-9
1529291928973423,-6,-3,-42,-75,-4,-3,-8,-7
1529291928990380,4,3,-29,-92,1,-3,0,5
1529291928990380,1,3,-18,-77,6,-1,2,5
1529291928991449,-8,-5,-33,-87,-5,-12,-4,-1
1529291928991449,-3,6,-10,-57,3,-12,-3,5
1529291929012458,-9,-16,-31,-57,-6,3,6,10
1529291929012458,-4,3,-23,-29,8,4,-1,4
1529291929014316,7,10,7,-4,4,10,7,15
1529291929014316,11,13,32,0,16,10,11,17
1529291929026422,0,-6,16,-9,4,18,3,5
1529291929026422,-3,-12,-7,-17,-6,10,0,0
1529291929035459,4,-6,-26,-7,-8,-12,-7,1
1529291929035459,5,2,-13,-10,-2,-2,-3,2
1529291929049775,3,3,-11,-30,-1,-5,-3,5
1529291929049775,2,-2,-18,-25,-5,-1,-1,-1
1529291929051767,2,1,-15,-11,3,-1,-3,-2
1529291929051767,-5,-8,-28,-16,-2,-4,-1,-6
1529291929072711,0,1,-20,-23,0,-3,3,2
1529291929072711,-1,-2,-22,-3,-2,2,-2,-2
1529291929073763,-3,-2,-19,-9,-2,8,2,-1
1529291929073763,-3,-7,-15,1,-4,6,0,-5
1529291929085872,2,3,2,1,1,5,0,-2
1529291929085872,1,-2,5,10,3,-1,0,3
1529291929094851,-19,-1,4,13,2,-3,-7,-7
1529291929094851,15,-4,1,9,-5,0,-4,7
1529291929109864,6,7,9,14,4,2,2,4
1529291929109864,-10,-8,5,7,-4,-7,-7,-12
1529291929111806,-7,-8,5,2,-7,-3,-2,-6
1529291929111806,-8,-1,7,20,3,0,1,-4
1529291929132765,-3,-2,3,-5,-3,2,2,-3
1529291929132765,-2,-4,3,1,-3,3,2,1
1529291929133884,4,-2,1,4,-2,-2,1,0
1529291929133884,-5,-1,3,2,-3,-1,0,-3
1529291929146755,3,3,-1,-3,-4,-2,-2,-1
1529291929146755,0,2,0,1,-3,-5,1,-1
1529291929154980,2,0,-5,2,1,-2,-1,-2
1529291929154980,-4,-4,-12,-14,-1,-1,-1,-1
1529291929169938,-6,1,-8,-3,7,-2,-2,-3
1529291929169938,2,1,-8,-6,1,-3,-3,-1
1529291929171773,5,3,-4,-9,0,-3,0,2
1529291929171773,-4,-3,-8,1,-2,-7,-1,-3
1529291929191949,-3,-1,-4,2,0,-2,1,0
1529291929191949,-3,2,-2,3,-1,-2,0,1
1529291929199985,1,1,1,8,1,-1,-3,-1
1529291929199985,-4,-2,-4,6,-3,-1,-2,-1
1529291929206039,-2,1,0,-1,1,3,-3,-6
1529291929206039,2,2,-3,-15,-2,4,-3,-2
1529291929214851,0,-2,-1,-15,2,0,-12,-5
1529291929214851,-4,-7,-5,-19,-3,-1,-8,-14
1529291929229819,1,3,-4,-15,0,-2,-7,-5
1529291929229819,1,1,-1,-23,-2,-2,-2,-3
1529291929231806,1,-1,-2,-11,-7,-4,0,2
1529291929231806,0,-3,0,19,-4,-5,5,-1
1529291929252805,-5,-8,1,38,-3,-4,7,8
1529291929252805,3,1,-1,45,-6,-4,3,4
1529291929253803,-4,1,0,53,-3,-1,5,5
1529291929253803,-21,-5,0,52,-2,1,1,3
1529291929266713,26,4,4,35,0,-2,1,14
1529291929266713,-22,-1,0,19,0,-1,-2,-13
1529291929275693,-4,-1,1,9,-1,2,2,-1
1529291929275693,-1,1,-1,2,-2,2,1,-1
1529291929289651,-6,-7,-11,-10,-6,1,-2,-5
1529291929289651,1,-5,-8,-5,-4,-5,-5,1
1529291929291646,6,1,0,-9,1,-2,-2,-5
1529291929291646,-3,3,0,-7,1,1,0,-2
1529291929312590,-5,1,-2,-8,-1,-1,-2,-4
1529291929312590,9,2,-2,-13,0,-2,1,5
1529291929314585,-3,-2,-4,-16,-3,-6,0,-3
1529291929314585,7,0,-2,-21,-1,-6,0,2
1529291929326554,-2,0,-1,-19,0,-3,-3,-3
1529291929326554,2,-3,0,-11,-1,-1,-1,-2
1529291929335529,3,-6,-2,-11,-3,1,0,1
1529291929335529,3,-1,-1,-13,0,1,-3,-2
1529291929350708,0,-2,-2,-10,1,0,-2,-3
1529291929350708,-2,-1,-2,-8,-2,1,0,1
1529291929351704,-3,-5,0,0,-1,1,0,-1
1529291929351704,4,0,0,-6,-1,1,-1,1
1529291929372680,-5,0,-2,-3,0,2,-1,-2
1529291929372680,1,0,-1,2,2,0,-2,1
1529291929374642,-3,5,-2,-2,0,-2,0,0
1529291929374642,-3,-2,1,0,0,-3,-1,-1
1529291929386748,-6,0,3,-1,-1,1,-1,-1
1529291929386748,-3,1,1,2,-1,-2,-1,-1
1529291929395724,-1,2,-1,1,-2,-1,-2,-2
1529291929395724,-1,1,-1,-1,-1,1,-3,-2
1529291929410597,0,0,0,1,1,-2,-2,-2
1529291929410597,2,-1,1,3,0,2,1,1
1529291929411544,0,-2,0,4,-1,0,-2,-1
1529291929411544,3,-1,-1,5,1,1,-2,4
1529291929432826,-2,-1,0,4,-1,0,0,2
1529291929432826,1,2,-2,0,0,0,-1,1
1529291929434786,-2,-1,-1,1,-3,-2,-1,2
1529291929434786,0,0,-2,0,-1,-4,0,3
1529291929446790,0,0,-1,3,-4,-5,1,5
1529291929446790,2,-1,-1,3,-3,-5,-3,3
1529291929455766,0,-2,-3,2,0,-2,1,2
1529291929455766,0,-3,-2,2,0,1,-1,0
1529291929470580,-1,-4,-1,3,-3,-4,1,-3
1529291929470580,3,-1,-2,2,-2,-2,5,-1
1529291929471580,2,-2,-1,0,-3,3,3,-2
1529291929471580,-1,0,-1,-2,-4,1,0,1
1529291929492494,-3,0,0,-3,-5,0,2,14
1529291929492494,-3,-1,2,1,-4,-1,3,8
1529291929494344,-3,0,0,4,-1,-5,2,0
1529291929494344,-3,-2,-2,2,-1,-3,1,-10
1529291929506790,-5,-2,-1,1,0,-2,-4,-19
1529291929506790,-6,-2,-4,5,-2,0,-5,-12
1529291929514937,-5,-9,-3,10,1,-2,-4,-10
1529291929514937,-2,0,-1,6,0,0,-2,-9
1529291929529889,-2,-1,-3,1,4,2,-3,-8
1529291929529889,-2,-4,-1,-4,4,5,-4,-6
1529291929531751,0,0,1,-10,0,0,-6,-6
1529291929531751,-1,-1,-1,-9,1,-4,-4,-2
1529291929552846,-2,-2,0,-9,-1,-2,-3,-4
1529291929552846,-1,1,-1,-10,-2,-3,-2,-4
1529291929554791,-1,0,-1,-7,-1,-2,0,-1
1529291929554791,-3,1,1,-5,-1,-2,-2,1
1529291929566795,-1,1,-1,-6,2,-2,-2,-2
1529291929566795,-1,-1,-2,-4,1,-2,-1,1
1529291929575767,1,0,-1,-3,2,-1,-4,2
1529291929575767,-1,-2,-2,-5,-1,-2,-1,2
1529291929590616,-1,-1,-1,-1,-2,3,-1,0
1529291929590616,0,0,-2,-2,-1,-2,-1,-1
1529291929591586,0,1,1,-4,-2,0,-2,1
1529291929591586,2,0,0,-1,0,1,0,0
1529291929612909,1,-1,-2,-3,-1,-3,-2,0
1529291929612909,-2,-1,0,-1,-2,0,-1,1
1529291929613905,-3,-1,0,-3,-3,-1,-1,-2
1529291929613905,-2,0,0,0,-1,1,0,-1
1529291929626791,0,0,-1,1,-2,-1,0,-2
1529291929626791,1,-2,-1,1,1,0,0,-2
1529291929635818,-2,-1,-1,-1,-1,0,-1,2
1529291929635818,-2,-2,0,-1,-4,-2,0,0
1529291929650644,-1,-1,-1,0,-2,1,-1,-1
1529291929650644,-4,0,-1,-1,-3,-2,-1,1
1529291929651642,-2,1,-3,-2,-1,0,-1,-2
1529291929651642,0,0,-1,-2,-3,-1,-3,0
1529291929672742,0,-1,-1,0,0,-3,1,1
1529291929672742,-1,-1,-1,-1,0,-2,1,1
1529291929674580,2,-1,-2,-1,0,-2,2,-1
1529291929674580,0,-2,-2,-1,-1,1,0,0
1529291929686674,-1,-1,-3,-1,0,1,-2,-3
1529291929686674,1,-4,0,0,-1,-1,-2,1
1529291929695524,-1,0,-3,0,-2,-1,0,-1
1529291929695524,0,-1,-2,0,-1,-4,-4,-1
1529291929710600,-1,-2,-1,1,1,-2,-3,-1
1529291929710600,-1,-1,-2,2,1,-3,-1,-4
1529291929711482,1,0,-1,-1,-3,-1,0,-1
1529291929711482,0,-2,0,-1,-2,1,1,-1
1529291929732427,-1,1,0,-1,-4,-1,0,-2
1529291929732427,-2,0,0,-2,-2,-1,1,0
1529291929734420,-1,-2,-1,-1,1,-2,0,1
1529291929734420,-2,-1,-2,1,0,-2,-2,-1
1529291929746391,0,-3,-1,0,1,-1,-1,0
1529291929746391,2,1,-3,0,-1,1,-1,-1
1529291929755364,-1,-2,-1,2,-2,0,0,-4
1529291929755364,1,-1,1,-1,-2,-2,-1,-1
1529291929770577,-1,-2,-3,1,-2,-1,-1,0
1529291929770577,-2,-3,-1,0,-2,-2,-2,-3
1529291929771495,-1,-2,-1,0,-1,0,-2,-1
1529291929771495,-3,-2,-4,0,0,1,-2,-3
1529291929792443,-1,1,0,0,0,-1,-2,-2
1529291929792443,-2,-1,-3,1,-1,-2,0,1
1529291929794433,0,-1,-2,-1,-1,-3,0,1
1529291929794433,-1,0,-1,0,-4,-3,0,1
1529291929806403,-2,0,0,-1,-3,-1,-1,-1
1529291929806403,-2,0,-1,-1,-2,-1,-1,-1
1529291929815377,-2,0,-1,-1,-2,-2,0,-2
1529291929815377,-1,0,0,-1,-2,-1,0,-1
1529291929829682,-1,-1,-4,1,0,-1,-1,0
1529291929829682,1,0,-1,0,2,0,0,-1
1529291929836777,1,-1,-1,0,2,0,-1,-3
1529291929836777,-2,-2,-1,-1,2,1,-2,-1
1529291929852838,1,0,-3,-1,0,-3,-3,1
1529291929852838,-2,-1,-2,-3,-1,0,-3,-1
1529291929854664,-1,-3,-2,0,0,-1,-3,0
1529291929854664,-1,1,0,-1,-1,-2,-1,-2
1529291929875640,-2,0,-1,-2,-2,-3,2,0
1529291929875640,0,0,0,-2,0,-1,-1,0
1529291929876620,-1,-2,0,-4,-2,1,-2,0
1529291929876620,-2,-2,-4,1,-1,-2,-1,0
