timestamp,emg1,emg2,emg3,emg4,emg5,emg6,emg7,emg8
1529299437647289,3,7,-5,0,1,-1,-2,-2
1529299437647289,2,0,-8,-4,-5,-1,-1,4
1529299437654271,-1,10,-42,-6,0,-1,0,-6
1529299437654271,-4,1,-3,3,5,0,-2,-2
1529299437662249,2,6,5,-1,-7,1,0,2
1529299437662249,2,-3,-2,-17,-7,-6,-2,-3
1529299437669231,-1,0,8,20,5,0,-3,-5
1529299437669231,-1,-2,-10,-23,-2,-2,-1,0
1529299437677210,-1,-7,4,22,4,-2,-2,2
1529299437677210,-3,6,-14,17,17,4,0,-5
1529299437695165,1,-4,-4,-40,-32,-2,0,4
1529299437695165,-1,-5,3,3,-5,-7,-2,1
1529299437699151,-1,-1,7,0,7,3,0,-4
1529299437699151,0,1,2,4,-1,0,0,1
1529299437707130,1,-1,8,13,11,0,0,2
1529299437707130,-3,-1,0,7,0,2,-1,-1
1529299437714111,2,-6,-12,-12,-1,-4,-3,-1
1529299437714111,-4,-1,8,15,4,6,0,-3
1529299437729071,-2,2,-1,-18,-6,-4,-5,1
1529299437729071,-7,-4,4,11,7,14,1,-9
1529299437737051,-8,-10,12,-12,-23,-3,-6,-5
1529299437737051,12,2,12,-14,-2,-39,5,11
1529299437753007,-1,7,27,15,13,12,-4,-4
1529299437753007,-4,-13,-25,-35,-46,26,-1,1
1529299437758993,-2,0,-21,4,23,-76,-6,0
1529299437758993,-3,-5,-13,-9,-21,42,2,-2
1529299437766971,4,-1,45,25,18,-3,0,5
1529299437766971,10,8,18,6,31,-17,1,6
1529299437773952,-2,-8,-32,9,-11,40,3,1
1529299437773952,-7,-4,-23,5,1,-13,-6,-12
1529299437791929,6,3,-6,-22,-12,-8,-6,0
1529299437791929,-7,-6,4,8,-7,24,3,-9
1529299437796890,-3,1,5,-21,-11,-17,-3,-5
1529299437796890,-5,2,1,-1,3,-17,-3,-1
1529299437811851,-11,-16,-13,0,-7,15,2,-7
1529299437811851,-3,3,-6,-9,-6,-17,-6,-4
1529299437819829,7,8,0,-1,9,5,7,3
1529299437819829,6,3,3,12,14,18,8,16
1529299437829802,-11,-7,-11,6,-5,-5,-20,-21
1529299437829802,-5,-4,-5,-19,-1,1,2,-5
1529299437834792,-4,-5,17,-2,-19,-11,5,1
1529299437834792,1,2,13,5,11,-15,1,-3
1529299437849749,4,2,-22,-15,-9,3,9,11
1529299437849749,6,7,-10,-3,3,-7,3,4
1529299437856730,-3,-4,26,25,7,24,-7,6
1529299437856730,-1,-1,10,-32,-2,14,14,-6
1529299437872686,-2,-3,-9,7,-3,-20,-24,1
1529299437872686,-5,-1,-5,15,13,-16,-1,2
1529299437894667,-6,-3,-8,1,-8,-6,-28,-7
1529299437894667,4,-6,-17,-10,-25,-70,-5,-5
1529299437901610,2,6,12,-1,1,-6,16,14
1529299437901610,-1,6,3,1,1,-14,3,6
1529299437909591,-2,1,0,-8,-19,8,-7,-18
1529299437909591,-5,-7,4,12,11,38,-8,12
1529299437916572,1,6,-2,-7,26,9,4,-14
1529299437916572,-1,-6,2,10,-1,2,3,7
1529299437931530,1,-8,-4,0,-10,-26,-8,10
1529299437931530,-4,-5,0,-14,-21,-15,3,-20
1529299437939508,2,-5,1,-2,-17,-7,-11,4
1529299437939508,-7,-6,-6,-10,14,18,-11,-3
1529299437946490,4,6,6,24,15,6,30,1
1529299437946490,-2,4,-3,-11,-3,-15,-10,0
1529299437954506,-1,-7,-2,-6,-22,-16,-4,-6
1529299437954506,8,6,3,2,15,14,10,3
1529299437969441,0,0,-1,-7,16,14,-14,2
1529299437969441,4,-4,1,7,3,30,28,11
1529299437976410,-3,-4,1,-4,-27,-24,0,1
1529299437976410,-8,-9,-12,-5,-16,-37,2,12
1529299437991408,-1,2,4,-6,8,4,-17,-6
1529299437991408,-1,-1,1,-4,0,14,35,17
1529299437999398,-2,3,-2,-3,15,9,-60,-63
1529299437999398,1,-18,-6,-22,-13,-4,51,42
1529299438014343,-6,-20,-14,2,-40,-36,-13,-41
1529299438014343,-5,3,18,27,42,17,-19,-11
1529299438021323,0,8,-8,-11,-11,-3,5,15
1529299438021323,-3,10,6,-11,-15,0,-81,-34
1529299438037249,-3,-3,10,23,22,14,27,13
1529299438037249,1,-1,-11,6,-5,6,-4,-7
1529299438052209,-6,-8,-7,-41,-45,-30,-36,-3
1529299438052209,3,3,16,19,18,6,15,8
1529299438059194,12,15,9,14,32,28,44,53
1529299438059194,-3,-4,-2,-2,-8,-14,-10,-34
1529299438074149,-2,-2,4,-10,-27,-35,14,-10
1529299438074149,-11,-8,-10,-6,-24,-18,-79,0
1529299438082128,16,3,-2,13,41,34,-79,-21
1529299438082128,11,6,-20,-34,-33,9,28,17
1529299438097088,-22,-18,-6,-14,-27,-19,37,-4
1529299438097088,-3,13,14,15,3,-11,2,-21
1529299438112047,-7,-1,-23,19,51,35,-13,20
1529299438112047,-1,1,-25,-22,0,5,-18,-8
1529299438119028,-7,-29,10,-15,-41,-31,-20,-10
1529299438119028,5,-21,11,15,5,-7,14,9
1529299438133999,-4,-1,-4,-7,24,23,29,11
1529299438133999,-4,5,9,52,19,11,20,-10
1529299438142012,-3,3,-16,-25,-19,-14,-4,-3
1529299438142012,-5,0,-1,14,16,17,10,5
1529299438156927,0,-2,-8,-1,-17,-20,-4,2
1529299438156927,2,3,6,-3,-22,-13,8,-1
1529299438171927,-3,-5,-4,-8,-11,-5,1,0
1529299438171927,-3,3,15,26,50,28,13,2
1529299438178906,-4,13,-1,10,15,20,-4,3
1529299438178906,4,8,-6,4,13,-1,0,-7
1529299438193864,-11,5,9,-20,-32,-20,-1,-22
1529299438193864,-7,7,-11,-31,-30,-13,-1,24
1529299438201842,-9,-6,-2,9,8,3,1,-13
1529299438201842,9,-1,7,8,24,15,-3,20
1529299438216766,-5,-6,-6,15,19,17,-1,15
1529299438216766,-1,4,-7,-24,5,3,11,3
1529299438231728,19,-11,-9,-21,-21,3,13,9
1529299438231728,18,7,6,16,22,-9,-9,-58
1529299438240703,10,5,-3,7,-7,-2,-1,18
1529299438240703,3,-7,-16,-5,-16,-20,13,-13
1529299438261680,-13,-12,-19,-46,-38,-14,19,6
1529299438261680,28,34,27,24,59,39,3,17
1529299438269625,-1,29,-28,-8,10,17,-1,6
1529299438269625,-17,-5,8,26,6,4,-33,22
1529299438284585,-28,-2,2,-3,-39,-24,-29,-8
1529299438284585,-11,14,6,32,73,50,19,-20
1529299438299585,-2,-16,37,-17,-16,-23,-22,-30
1529299438299585,-13,7,-29,3,7,-2,-39,-21
1529299438314507,-10,-5,34,53,46,39,-33,38
1529299438314507,1,3,0,12,38,35,53,1
1529299438329466,5,-7,2,-32,-45,-40,26,-12
1529299438329466,-5,29,-2,-43,-66,-46,-52,-9
1529299438344426,6,-24,-38,0,14,11,86,-34
1529299438344426,7,-29,18,11,0,-11,-28,-18
1529299438351407,1,22,25,-2,-3,-1,-5,-17
1529299438351407,-2,8,15,-15,-21,-8,-56,-5
1529299438366369,10,-4,-7,12,20,16,4,111
1529299438366369,-6,-6,2,0,-3,-3,101,-30
1529299438374347,31,14,3,-3,10,4,-35,-32
1529299438374347,-19,-1,9,10,-10,-4,-41,-16
1529299438389307,-21,-6,41,42,49,29,17,-12
1529299438389307,-4,4,6,-32,-23,1,-26,113
1529299438404266,12,10,-26,-18,-9,-7,-60,-33
1529299438404266,0,2,1,-15,-32,-31,-51,-7
1529299438412246,-8,-10,-1,25,8,-8,21,13
1529299438412246,1,4,18,18,14,30,35,33
1529299438427218,-2,0,10,0,20,11,5,78
1529299438427218,5,-21,-4,4,2,-1,15,-32
1529299438434187,-10,-7,0,-44,-45,-28,-41,-43
1529299438434187,-10,1,13,42,15,1,8,-35
1529299438449146,7,5,-4,-38,-12,-5,2,-32
1529299438449146,2,6,1,25,25,11,4,7
1529299438464106,-1,-4,-5,4,-1,-3,20,-7
1529299438464106,3,11,4,0,11,13,0,2
1529299438472123,-13,0,2,-6,-11,-7,-14,-11
1529299438472123,2,4,3,-12,4,-11,4,19
1529299438487095,-2,-14,7,2,-14,-2,-2,-6
1529299438487095,-2,-6,-2,5,9,5,0,-14
1529299438494054,-2,3,-5,11,21,8,0,5
1529299438494054,-1,0,-5,-11,-16,-7,2,8
1529299438508988,0,2,-4,-16,-13,-10,-7,-16
1529299438508988,-1,0,-3,-4,-13,0,7,-17
1529299438523946,-2,7,-7,-5,-40,-14,-13,-23
1529299438523946,3,0,4,33,52,14,7,-1
1529299438531926,-7,1,-32,-39,-26,-12,-12,2
1529299438531926,-3,1,17,-5,-6,-5,2,-1
1529299438546920,1,-6,-5,11,17,12,7,-4
1529299438546920,-4,-3,3,-11,-18,-7,-3,-2
1529299438553899,-1,11,10,1,-7,-2,-1,-1
1529299438553899,-1,-1,-4,2,14,8,7,-1
1529299438568884,-2,0,-1,3,-3,-9,-9,-9
1529299438568884,-1,3,0,-2,-5,2,1,3
1529299438583845,1,7,4,4,0,-5,-5,-6
1529299438583845,-3,-12,-10,-8,-3,-2,-3,-4
1529299438591765,-1,8,6,-12,-19,-13,-11,-4
1529299438591765,-1,-3,1,13,17,14,9,6
1529299438606751,1,1,1,5,9,8,3,0
1529299438606751,-1,-7,-7,-3,-8,-1,-5,-3
1529299438614768,-2,-4,-4,-8,-12,-6,-6,-2
1529299438614768,-3,2,2,-3,-11,-10,-1,-3
1529299438629718,2,-1,-5,6,16,4,0,-3
1529299438629718,0,-5,-1,-2,-2,7,3,3
1529299438644624,-4,7,6,-6,-14,-11,-10,-9
1529299438644624,0,1,1,-5,-9,-1,3,3
1529299438651641,1,-2,-4,9,12,9,3,2
1529299438651641,-11,-11,-2,-11,-6,-6,-5,-7
1529299438667132,4,0,3,1,0,1,1,5
1529299438667132,-6,0,3,-8,-5,-6,-7,-5
1529299438674425,9,3,4,2,-2,0,-4,-2
1529299438674425,-15,-3,-3,0,3,6,1,-9
1529299438690121,-2,0,2,10,10,2,6,6
1529299438690121,0,-10,-15,0,0,1,3,10
1529299438704321,-4,4,2,-1,2,3,3,-2
1529299438704321,1,3,1,3,-3,-3,-2,-2
1529299438712076,8,6,7,6,2,1,1,9
1529299438712076,-8,-14,-21,2,2,1,4,9
1529299438727014,5,0,14,-5,-8,-5,-4,-9
1529299438727014,4,-2,-4,1,1,5,4,2
1529299438735135,3,9,-2,10,7,2,0,1
1529299438735135,0,-16,2,-4,-1,3,1,1
1529299438748987,0,6,-3,5,4,-2,-1,8
1529299438748987,-36,-12,-25,-6,-12,-13,-14,-34
1529299438765020,0,-6,-17,-1,-1,2,-3,-3
1529299438765020,-17,-6,15,-9,-8,-8,-7,-28
1529299438772157,-22,-5,-2,0,-4,-3,-2,6
1529299438772157,-5,8,0,8,4,-1,3,-1
1529299438787119,11,5,14,-9,-6,2,0,1
1529299438787119,24,-6,0,2,6,5,9,22
1529299438794645,-2,1,7,-3,-1,-3,-2,-6
1529299438794645,-36,8,17,-2,-1,1,5,-14
1529299438809665,-1,-15,-41,-9,-2,-5,-11,-11
1529299438809665,15,17,-3,-28,-11,-4,1,15
1529299438824549,-12,-6,12,2,-2,-2,-1,-6
1529299438824549,3,0,-9,-2,-4,-4,-9,22
1529299438832476,-39,-16,-12,-7,-7,-9,-8,-53
1529299438832476,6,16,6,2,2,-2,-4,2
1529299438846416,-2,-3,-19,3,2,2,3,6
1529299438846416,-1,16,3,-6,-6,-3,-5,-10
1529299438854369,-4,-2,-8,0,3,5,10,17
1529299438854369,8,0,20,10,-2,-4,-5,3
1529299438869351,-9,-12,-12,8,7,1,1,-10
1529299438869351,-7,-20,8,-2,-6,-2,-1,-4
1529299438884713,8,37,44,19,10,1,1,8
1529299438884713,-12,-25,-6,34,16,0,-1,-13
1529299438891780,9,5,3,-21,-15,-1,-1,7
1529299438891780,3,-6,-3,-8,-1,-6,-2,-2
1529299438907565,3,-11,-3,2,-4,-4,-1,3
1529299438907565,11,14,10,7,4,3,2,5
1529299438914454,4,-7,-3,12,7,0,-1,2
1529299438914454,-21,-22,3,5,1,-1,-4,-9
1529299438929417,-2,5,-6,-8,-4,-1,-1,-3
1529299438929417,6,6,0,3,2,0,1,0
1529299438936715,8,3,-18,-4,-6,0,0,6
1529299438936715,2,-8,1,12,8,-3,-4,1
1529299438951857,2,-4,9,0,0,2,0,2
1529299438951857,9,8,-4,-23,-12,2,3,1
1529299438966592,-12,-6,-6,6,7,-8,-6,-8
1529299438966592,12,25,13,7,4,4,7,9
1529299438974823,6,-7,2,2,3,8,-1,2
1529299438974823,-27,-43,-38,-17,-20,-6,-10,-17
1529299438990047,1,4,11,-25,-21,-12,-6,-6
1529299438990047,-13,-34,-28,-8,6,3,-1,-1
1529299438997077,12,17,31,12,7,-2,6,6
1529299438997077,16,18,20,17,13,10,5,7
1529299439012499,-6,-17,-19,-8,-14,-10,-11,-7
1529299439012499,-15,-1,8,6,-2,4,2,-1
1529299439019556,-6,-8,-40,-1,7,-4,-6,-3
1529299439019556,2,-2,-31,2,0,3,4,-2
1529299439027511,15,12,51,-13,-14,3,8,10
1529299439027511,10,6,1,12,8,0,1,8
1529299439034256,-29,-12,-20,5,1,-10,-11,-20
1529299439034256,26,9,-2,-28,-25,16,12,20
1529299439049248,5,-47,-62,-3,10,3,-2,-4
1529299439049248,-57,-18,32,2,-2,-10,-11,-26
1529299439057195,10,2,-16,-3,-16,-3,3,9
1529299439057195,-2,8,-6,4,5,-12,-5,-5
1529299439072395,22,50,32,24,19,9,17,29
1529299439072395,11,-13,-27,-14,-19,-7,-8,-6
1529299439079667,-18,-8,-34,-7,2,1,-5,-8
1529299439079667,14,-2,-21,-4,1,6,10,25
1529299439087240,-34,-27,-2,-4,-2,-16,-29,-34
1529299439087240,-19,-1,8,20,6,-11,-7,-14
1529299439094999,11,13,26,-35,-39,-1,7,6
1529299439094999,-1,6,15,3,12,6,2,-3
1529299439108935,14,8,-6,7,9,16,20,31
1529299439108935,11,8,1,9,5,-4,-7,-3
1529299439117177,-3,1,4,1,3,-3,-6,-12
1529299439117177,21,13,10,1,1,2,1,10
1529299439131884,-49,-56,-39,-10,-9,-6,-9,-27
1529299439131884,4,11,19,-10,-6,-2,-2,-4
1529299439140016,6,10,24,-4,-8,-5,0,10
1529299439140016,-9,9,10,8,8,-2,-4,0
1529299439147080,0,18,11,2,4,-1,-3,-8
1529299439147080,14,1,-22,0,7,19,26,26
1529299439155018,4,1,20,1,-2,-8,-21,-20
1529299439155018,15,0,7,3,-3,-7,1,28
1529299439169773,-6,15,-13,-3,-6,-5,-8,-29
1529299439169773,7,-16,-12,-9,-1,12,15,20
1529299439176756,12,3,9,6,7,-2,0,3
1529299439176756,-12,-4,-14,-3,-5,-4,-7,-19
1529299439192136,12,-9,9,4,-2,2,1,10
1529299439192136,-1,4,-7,-10,-1,-8,-6,-9
1529299439200002,3,0,20,14,10,3,8,16
1529299439200002,-17,-14,-2,5,-2,2,-5,-24
1529299439207211,4,8,-5,-15,-10,-8,-6,-1
1529299439207211,3,11,6,1,2,-1,-3,1
1529299439214193,-1,-5,-6,-3,-1,0,1,7
1529299439214193,-13,1,-4,-1,1,-3,-4,-17
1529299439228891,-3,-10,2,10,7,3,5,8
1529299439228891,16,4,6,2,-4,-5,-6,2
1529299439237125,2,-3,-5,-1,3,-3,-5,-8
1529299439237125,-6,-3,0,3,3,1,4,1
1529299439252402,0,10,8,-2,-5,2,-1,-4
1529299439252402,30,8,1,-7,-4,-5,-10,17
1529299439259139,-2,27,5,9,7,11,25,7
1529299439259139,-34,-43,21,6,2,-2,5,-13
1529299439267450,12,14,0,1,2,2,-14,9
1529299439267450,8,-28,-20,-5,-5,-2,5,1
1529299439274971,-66,-18,-60,6,6,0,-7,-13
1529299439274971,37,30,60,-11,-7,-4,3,18
1529299439289849,12,-4,-17,-5,-4,-7,-15,-13
1529299439289849,-34,4,-2,-2,0,0,2,-18
1529299439297649,14,-3,-2,-4,-4,-2,-6,7
1529299439297649,-12,-6,-31,-5,0,-2,-1,-2
1529299439312293,3,-18,22,5,2,0,8,25
1529299439312293,22,40,5,-1,1,0,-18,-26
1529299439319936,-19,-42,-10,-6,-4,-2,5,-9
1529299439319936,-20,-2,-7,10,5,-3,-2,1
1529299439327147,25,23,5,-5,0,9,17,14
1529299439327147,-21,-11,-18,-14,-10,-5,-14,-25
1529299439333872,18,4,23,2,3,0,5,19
1529299439333872,0,3,-11,-8,-4,-3,-10,-12
1529299439348848,-10,1,-12,11,2,-2,1,-5
1529299439348848,-4,-9,5,10,10,12,18,12
1529299439356962,4,2,-2,-9,-15,-7,-9,-7
1529299439356962,8,6,8,2,5,0,-1,-1
1529299439372236,11,-2,-20,10,2,-5,-4,0
1529299439372236,-41,-38,-1,-38,-25,-8,-6,-6
1529299439380218,24,25,14,12,7,3,0,0
1529299439380218,-16,-12,-23,-24,-19,-8,-19,-18
1529299439387505,-2,-2,1,2,3,5,7,0
1529299439387505,-2,-7,0,18,7,-5,-2,2
1529299439394161,16,5,8,3,-2,2,0,2
1529299439394161,3,0,-14,2,1,2,2,13
1529299439409121,-41,-16,-4,-3,-6,-8,-9,-18
1529299439409121,10,6,-6,1,1,0,0,5
1529299439417450,-6,2,7,-4,-5,2,4,1
1529299439417450,9,-1,-16,0,6,5,2,0
1529299439432158,-2,10,6,-8,-5,-2,-2,-2
1529299439432158,6,6,8,7,-7,-10,-6,-4
1529299439440078,2,-5,16,-1,13,-2,-7,-6
1529299439440078,-1,13,6,1,-6,2,6,5
1529299439447022,-4,4,1,-2,1,-2,-4,-5
1529299439447022,-4,0,6,-10,-5,-1,6,8
1529299439455067,9,7,-17,18,13,1,-4,-5
1529299439455067,-2,2,25,-3,-4,3,1,0
1529299439470138,-7,-6,5,10,12,-3,3,-1
1529299439470138,12,-1,7,-4,-2,4,-3,2
1529299439477248,2,2,-8,-16,-11,-6,-5,-3
1529299439477248,8,-1,-5,12,12,1,6,8
1529299439492185,0,7,-3,12,6,6,7,3
1529299439492185,-9,-2,3,-21,-18,3,3,-6
1529299439499236,12,12,3,3,12,5,-3,-2
1529299439499236,-8,-6,-22,11,11,-6,1,4
1529299439507628,7,1,6,-22,-27,1,0,7
1529299439507628,-2,-8,-26,5,19,-1,-4,2
1529299439514720,-8,-7,5,-2,-9,1,-4,-21
1529299439514720,17,16,5,1,-1,2,2,10
1529299439529606,-7,-11,5,13,14,-2,-1,4
1529299439529606,3,0,-21,-18,-20,-8,-6,-12
1529299439537512,-6,-5,6,-9,-8,-8,6,27
1529299439537512,4,-10,-16,13,16,0,-10,-27
1529299439559265,-12,3,12,-10,-12,6,0,-8
1529299439559265,61,5,-7,-10,-8,-5,-5,32
1529299439567248,-56,-19,-12,-1,3,1,0,-9
1529299439567248,8,2,12,-1,-6,-1,10,5
1529299439574545,-5,-1,-16,-8,1,-2,-19,-16
1529299439574545,9,7,13,15,14,2,3,7
1529299439581487,17,7,-5,-2,-7,0,4,8
1529299439581487,0,0,8,-7,-6,-4,-9,7
1529299439596449,5,-1,4,-2,-1,2,11,11
1529299439596449,-24,-2,-3,9,11,6,5,-10
1529299439612454,42,0,-4,-6,-4,-4,4,72
1529299439612454,-29,4,8,9,1,-1,1,-8
1529299439619741,21,4,8,1,0,-3,-2,18
1529299439619741,-33,-7,-12,-7,-2,6,5,-24
1529299439626730,22,7,-4,-2,-1,2,5,1
1529299439626730,-22,-7,-2,2,2,-6,-7,-6
1529299439635190,2,-4,0,-2,-1,0,0,4
1529299439635190,1,-2,-4,-6,-11,-11,-8,14
1529299439648958,-12,-11,0,-7,-7,-8,-11,-24
1529299439648958,-15,8,9,9,4,6,0,-16
1529299439656990,-9,-10,-3,1,3,2,-5,-19
1529299439656990,31,17,3,-2,-5,-1,9,13
1529299439671897,-28,-17,-8,-5,-3,-5,-14,-34
1529299439671897,6,4,5,3,-2,-6,12,51
1529299439678879,-3,2,0,0,1,2,7,-8
1529299439678879,9,0,-5,-4,-3,-1,-3,15
1529299439686857,0,-4,-3,-3,-2,-7,-19,-10
1529299439686857,17,-11,15,6,1,7,37,18
1529299439693838,-5,-6,-6,-3,-2,0,6,1
1529299439693838,-1,5,10,1,-2,-2,-18,-15
1529299439709809,-7,2,2,1,1,1,9,-7
1529299439709809,-5,-10,-15,-7,-1,-3,-16,-8
1529299439716776,9,13,0,2,-4,-4,3,2
1529299439716776,-25,-26,-2,-2,0,2,0,-9
1529299439724755,17,11,-1,2,-1,0,5,13
1529299439724755,1,-3,-9,-3,-4,-3,-13,-19
1529299439731736,-9,-5,6,7,2,-3,7,1
1529299439731736,12,2,-19,-18,-12,-3,-6,7
1529299439746697,-16,-2,0,12,12,2,9,-1
1529299439746697,0,4,-3,-3,0,3,-8,-12
1529299439754675,7,-1,0,3,5,1,-4,-1
1529299439754675,-9,-2,7,9,1,-4,-5,-5
1529299439769633,0,-8,-9,-18,-16,-5,2,-9
1529299439769633,10,11,13,0,3,-6,-6,-9
1529299439776615,-14,-9,-2,-2,-10,-4,-5,-2
1529299439776615,12,6,0,3,2,-1,0,3
1529299439785591,-16,-6,-6,4,7,-2,-8,-13
1529299439785591,-4,3,-5,-12,-15,-9,-6,-6
1529299439799553,5,6,2,-11,-1,-2,-1,1
1529299439799553,10,3,-3,0,2,1,0,-2
1529299439806535,-25,-6,2,3,0,0,4,-3
1529299439806535,0,-2,2,9,9,2,-5,-5
1529299439814514,-6,-2,-1,-12,-8,-1,1,8
1529299439814514,1,-4,-10,-4,-6,0,1,-2
1529299439829474,7,1,-4,0,4,4,6,5
1529299439829474,-3,-1,0,4,5,-4,-5,-7
1529299439836455,-2,-4,-6,0,-2,2,-1,-3
1529299439836455,-3,-3,-6,-12,-1,-1,-1,-5
1529299439844434,12,2,-3,-6,-8,-4,-2,9
1529299439844434,3,-1,0,4,0,-1,2,-2
1529299439851415,-9,-2,1,5,-1,-2,-3,-9
1529299439851415,-3,-14,-5,0,-3,0,-1,-1
1529299439866375,-11,1,-3,0,1,1,0,-5
1529299439866375,-4,1,5,-4,-2,-2,-6,-10
1529299439874353,16,3,-2,1,1,-2,2,7
1529299439874353,-10,-1,4,0,-2,-2,-2,-3
1529299439889314,-22,-4,-6,-7,-4,-2,-2,-21
1529299439889314,-2,-2,-2,2,0,3,4,-1
1529299439896295,-11,-3,-4,-2,-1,0,-6,-4
1529299439896295,10,5,2,1,1,-1,3,2
1529299439904274,10,0,2,1,2,-1,-3,5
1529299439904274,6,0,0,-2,-5,-5,-3,2
1529299439912252,-13,-4,-3,-1,2,1,2,-11
1529299439912252,48,5,0,3,1,0,2,36
1529299439927213,-19,0,1,3,0,1,-1,-33
1529299439927213,-5,-1,-3,-3,-3,-2,-9,-1
1529299439934194,-3,-3,-1,-2,-3,0,-2,2
1529299439934194,-1,-2,-2,2,1,-1,-2,-1
1529299439949172,11,2,1,-3,-2,-1,-3,10
1529299439949172,-22,-6,-3,0,0,3,2,-3
1529299439957132,4,-1,-2,-1,-2,-6,-4,-6
1529299439957132,-21,0,-3,-2,-5,-4,-7,-4
1529299439964117,48,8,3,1,1,-2,8,13
1529299439964117,2,-4,-5,0,0,1,1,0
1529299439979074,0,-2,-1,-2,1,-2,-2,6
1529299439979074,-12,-1,7,-2,-1,3,1,-9
1529299439987052,1,-2,-1,-3,-4,-2,-3,5
1529299439987052,6,4,7,1,0,1,2,3
1529299440002014,6,-1,3,0,-3,1,-1,-1
1529299440002014,-5,0,-3,-1,1,-4,-4,-8
1529299440008995,-13,-3,0,1,2,1,0,-1
1529299440008995,-1,-1,-2,2,-3,-3,-1,-4
1529299440024550,-7,-2,-8,-14,0,3,2,-1
1529299440024550,-3,0,-8,-1,-5,-5,-3,-9
1529299440032520,-6,-1,-8,-1,0,3,3,6
1529299440032520,5,0,-6,0,-2,-3,-1,-3
1529299440047479,-14,-4,2,-3,-2,-2,-18,1
1529299440047479,-10,-1,0,-2,-4,-4,-16,-5
1529299440062168,4,0,0,4,4,3,4,0
1529299440062168,-3,-1,11,1,1,4,8,0
1529299440069412,-2,-1,2,0,-2,-2,10,-1
1529299440069412,0,-2,-6,-2,-1,-1,5,0
1529299440084678,-1,-1,-10,-1,-5,-6,-3,-3
1529299440084678,-8,-1,-6,-2,-3,-3,0,-9
1529299440091993,3,-1,-2,0,2,1,0,0
1529299440091993,2,-1,19,-1,0,1,-1,1
1529299440106937,1,0,-5,-2,-2,-2,-2,-1
1529299440106937,1,-3,0,-5,-2,-3,-1,0
1529299440129878,-4,3,-1,4,2,4,3,0
1529299440129878,-2,-1,-2,-2,-3,-2,-6,-1
1529299440137172,-1,-1,-1,-2,-2,0,-1,-1
1529299440137172,-1,-3,-7,-3,-1,0,0,-1
1529299440152188,1,1,4,3,0,-1,-4,-8
1529299440152188,-7,1,-5,-3,-4,-4,-6,-7
1529299440159151,-1,-2,1,1,3,5,6,2
1529299440159151,2,-2,-1,1,1,2,3,8
1529299440174362,-6,-9,-10,-4,-6,-7,-5,-4
1529299440174362,6,-1,-8,3,2,2,1,1
1529299440189829,-2,1,5,-1,0,-1,0,-4
1529299440189829,-4,3,1,0,0,-4,-2,-7
1529299440204800,1,3,9,0,2,2,0,-3
1529299440204800,-8,-3,0,0,-2,-1,-1,0
1529299440211771,4,1,41,-1,-2,-2,5,5
1529299440211771,0,-2,-1,-3,-3,0,1,3
1529299440227561,-1,0,-26,-2,-1,-1,-1,1
1529299440227561,-4,0,-11,-3,-1,-2,-3,-1
1529299440249675,-1,-8,-5,-3,-1,-2,-3,-1
1529299440249675,2,-1,16,-4,0,0,2,-6
1529299440257083,-1,2,-6,0,-2,0,-1,-1
1529299440257083,0,0,-4,0,0,0,1,-2
1529299440271897,-1,2,-7,-1,-2,-4,-9,1
1529299440271897,-1,0,15,-1,-1,2,2,2
1529299440279975,-1,-1,-1,-1,-3,-2,3,-6
1529299440279975,-2,0,-12,-1,-2,-4,-6,-3
1529299440295034,-1,-7,-14,-5,-2,-1,-5,0
1529299440295034,-2,-3,0,-2,-1,1,3,-1
1529299440317465,-2,1,4,2,-4,-1,-3,-1
1529299440317465,0,0,-3,0,-1,-1,0,1
1529299440332343,1,-2,3,-2,1,2,7,0
1529299440332343,1,-2,4,1,1,-1,-2,-5
1529299440339669,1,-1,-12,-1,2,-1,-1,-11
1529299440339669,-3,2,12,-1,-6,-6,-4,1
1529299440354622,0,0,1,0,1,1,-1,5
1529299440354622,0,-3,-11,-2,-2,-2,2,0
1529299440369247,-1,1,13,0,-1,-2,-4,-2
1529299440369247,-1,-2,15,-1,1,1,0,-43
1529299440384770,0,-2,5,1,-2,-2,4,14
1529299440384770,0,-1,0,-2,1,0,-1,-4
1529299440391501,-1,2,4,-1,-1,-4,-8,8
1529299440391501,1,-3,21,-2,-2,-5,-8,6
1529299440407352,7,0,-11,-2,0,6,9,-3
1529299440407352,0,0,-13,-1,0,2,5,17
1529299440422304,2,0,19,0,-1,-1,-4,-16
1529299440422304,-2,0,-8,-1,-3,-1,-3,3
1529299440429604,-4,-3,-10,-1,-1,-4,-5,-9
1529299440429604,-8,-2,-7,-2,2,-2,-8,6
1529299440444549,0,-3,-6,-3,-4,-4,-4,5
1529299440444549,-2,-2,12,0,0,-3,-2,9
1529299440451587,6,-3,-3,0,-2,1,6,5
1529299440451587,0,-3,-15,-1,-1,3,-6,-8
1529299440467559,-30,3,4,-2,2,-6,-11,3
1529299440467559,-15,1,-2,1,-1,-1,0,14
1529299440482048,-3,2,-4,5,0,-3,-1,-5
1529299440482048,6,1,-11,-3,1,-1,-4,0
1529299440489345,7,-2,-5,-1,-1,-1,-11,5
1529299440489345,10,0,1,0,-2,1,-8,-4
1529299440504345,8,-5,-5,1,1,1,-13,0
1529299440504345,7,-3,-5,1,-1,-1,2,0
1529299440511875,7,-3,0,-2,-1,2,6,-1
1529299440511875,6,1,-2,0,-4,-1,17,-3
1529299440527630,2,-1,0,-2,-1,-2,-2,-5
1529299440527630,1,-2,0,-4,-3,0,2,2
1529299440542133,-2,-1,1,-4,-2,-1,-6,1
1529299440542133,2,0,-1,0,1,0,3,-7
1529299440549155,-1,1,1,0,0,-2,8,-2
1529299440549155,-1,2,-1,0,2,-2,0,1
1529299440564387,-4,-1,0,-4,-3,-1,-1,-1
1529299440564387,0,0,-1,0,-1,-2,-1,-1
1529299440572104,-1,-4,-7,-3,-2,0,0,-1
1529299440572104,-1,-4,3,1,-2,0,-2,3
1529299440587055,0,-1,-2,-1,-2,1,-4,-1
1529299440587055,0,-2,-1,-3,-1,-1,-1,-4
1529299440602069,-1,0,1,-2,-2,-2,-2,-2
1529299440602069,-1,0,0,0,-3,-4,-5,-1
1529299440608999,-3,-1,2,-2,-2,-1,0,0
1529299440608999,-1,0,-2,-1,-1,-1,-3,-3
1529299440624496,1,2,-1,0,-1,1,-2,2
1529299440624496,-8,-1,1,-3,0,0,-7,-8
1529299440632212,3,-2,-2,0,1,1,1,-1
1529299440632212,-2,-2,1,-2,-1,-2,-1,-1
1529299440647429,-2,-1,1,3,0,-1,-2,-3
1529299440647429,-3,-2,-2,1,-1,0,-3,0
1529299440662390,-1,-1,5,0,2,-1,-2,1
1529299440662390,1,0,-3,-3,0,-1,-1,1
1529299440677636,0,0,1,-4,-1,-2,-3,-1
1529299440677636,-1,0,-3,-2,0,0,0,0
1529299440691858,3,-2,0,1,-1,-2,-2,-3
1529299440691858,1,1,-1,2,0,-1,0,-2
1529299440699837,-4,-4,-11,-6,-5,-1,-3,-1
1529299440699837,0,-2,-2,-1,-1,-1,1,-1
1529299440714800,1,-1,3,-2,0,0,0,-1
1529299440714800,-1,-1,-2,-1,-2,-1,0,-1
1529299440730047,-3,-4,-4,-2,-3,-2,-1,-15
1529299440730047,-2,0,-3,-2,-2,-1,-1,2
1529299440752124,-1,-1,-1,0,0,-2,1,-2
1529299440752124,0,1,0,-3,-1,-1,0,0
1529299440759114,-1,-1,3,4,-1,-1,0,2
1529299440759114,0,0,-2,-3,-3,0,1,1
1529299440774571,2,0,0,-1,-2,0,0,4
1529299440774571,-1,-1,-1,0,-2,-1,0,-3
1529299440789536,-2,-2,-3,-1,1,-1,-1,1
1529299440789536,-1,-2,-3,-1,-2,0,-1,0
1529299440797519,-3,-1,1,-2,0,-1,1,1
1529299440797519,1,-1,-1,-2,0,-1,-3,0
1529299440812620,0,-2,-2,1,-2,0,-1,-2
1529299440812620,-1,1,0,1,-1,-1,1,1
1529299440827536,1,-1,-2,0,0,-1,-1,1
1529299440827536,-3,-2,-2,-3,-1,-1,-3,-1
1529299440841741,-1,-3,-3,0,-2,0,0,-1
1529299440841741,0,-1,0,-1,-5,-1,-1,-1
1529299440848862,-2,-1,1,-2,0,-2,0,0
1529299440848862,0,-1,-2,-1,-1,0,-1,-1
1529299440865124,-2,0,-2,-2,-2,0,-1,-3
1529299440865124,1,-3,-1,-1,0,0,-1,-1
1529299440872109,0,0,0,0,-1,-2,-1,-1
1529299440872109,0,-2,0,-1,-1,-2,-1,-1
1529299440894172,1,0,0,-2,-3,-2,-1,0
1529299440894172,0,-2,-2,0,-2,-1,-1,-2
1529299440909131,-2,1,-3,-2,0,-1,-1,-1
1529299440909131,-1,-2,-2,-2,-1,-1,-2,0
1529299440917631,-3,1,0,-1,-3,-1,-2,1
1529299440917631,-1,-1,-2,-1,0,0,-1,-2
1529299440932373,-2,0,0,-1,-2,-1,-2,-2
1529299440932373,-1,0,0,-1,0,0,-2,-1
1529299440939594,0,-2,-2,-1,0,1,-1,-2
1529299440939594,-2,-1,0,0,0,-2,-2,-2
1529299440947414,0,-2,-2,-1,-1,-2,-1,1
1529299440947414,-2,-3,-3,-2,-2,-2,-2,3
1529299440962408,-2,-1,-1,-1,-1,-2,-2,-10
1529299440962408,0,-1,-1,0,0,-2,-1,0
1529299440969275,-1,0,0,-1,0,-2,0,-1
1529299440969275,-1,-2,-3,-3,-2,0,-2,0
1529299440984458,0,-1,-3,-1,-2,-1,0,3
1529299440984458,1,-1,-1,-2,-1,0,0,-3
1529299440992230,2,-1,0,1,0,0,-1,1
1529299440992230,-10,-4,-1,-2,-1,0,-1,-5
1529299441007581,-3,0,-2,0,-2,-1,-2,1
1529299441007581,3,1,2,0,-1,0,-1,1
1529299441022092,0,-1,-1,0,-1,-1,0,1
1529299441022092,-5,-2,0,-1,1,-2,-2,-1
1529299441030035,-3,-1,-3,0,0,0,-1,-3
1529299441030035,0,-3,-2,-1,-1,0,0,-3
1529299441045005,-3,-2,-2,2,0,0,-1,-1
1529299441045005,3,-1,-1,-1,-3,-2,0,0
1529299441051980,-3,-1,0,-3,-1,-2,1,-2
1529299441051980,0,3,-1,2,0,-2,-2,-1
1529299441066934,1,-1,0,-2,-3,-2,0,1
1529299441066934,-4,0,-1,-2,0,-3,-2,-1
1529299441074186,-3,-4,0,0,0,0,0,0
1529299441074186,-3,-5,0,-3,-1,-2,-2,-7
