timestamp,emg1,emg2,emg3,emg4,emg5,emg6,emg7,emg8
1529564278714909,-1,-1,0,1,2,-2,0,-1
1529564278714909,1,0,-1,-2,0,0,0,-1
1529564278728907,0,-1,0,-6,-3,-2,0,0
1529564278728907,1,-2,0,0,-1,0,-1,-2
1529564278740843,-1,0,-2,0,-2,-1,-1,1
1529564278740843,-1,-1,-1,0,1,0,0,-1
1529564278743832,-1,-1,0,2,-1,-2,-1,-2
1529564278743832,0,-1,-2,-2,-1,0,-2,0
1529564278758792,1,-1,-1,-1,-3,0,-1,-1
1529564278758792,-1,-1,-2,1,-1,-2,-2,-3
1529564278767767,0,-1,0,-2,-1,-2,-2,0
1529564278767767,-2,0,0,0,0,-2,1,-1
1529564278806664,0,0,0,0,0,-1,-1,0
1529564278806664,0,-1,-1,0,-1,-2,0,-1
1529564278808660,0,0,-1,-2,-1,0,-1,-1
1529564278808660,0,0,-1,0,0,-1,-2,0
1529564278808660,0,-1,0,-1,-1,-3,-1,-2
1529564278808660,1,-1,1,-2,0,0,-1,-1
1529564278811651,-3,-2,-1,-1,-3,-1,1,0
1529564278811651,-2,0,-2,1,-2,-1,0,0
1529564278819630,-2,0,-1,1,-1,0,-1,0
1529564278819630,-1,1,-1,0,0,-1,-2,-1
1529564278834589,-1,0,0,0,0,0,-1,0
1529564278834589,1,-1,1,-1,1,-2,-1,-1
1529564278836586,-1,-3,-1,2,0,-1,1,0
1529564278836586,-1,0,-2,0,0,0,0,1
1529564278848553,1,0,-1,0,2,0,0,-1
1529564278848553,-2,-2,0,-3,-1,0,1,-1
1529564278857528,-1,0,0,0,0,0,0,0
1529564278857528,0,0,0,3,1,0,-1,-1
1529564278864509,-1,-1,-1,-3,-2,-2,-1,-3
1529564278864509,0,-1,0,-1,0,0,-1,-1
1529564278878471,0,-2,1,-2,1,0,0,0
1529564278878471,-1,0,-1,0,0,1,0,-1
1529564278886451,0,0,-1,3,0,-1,1,-1
1529564278886451,-1,1,-1,-2,-1,0,-1,-1
1529564278895426,0,1,-1,0,-1,-1,-2,-1
1529564278895426,-2,-1,-1,-2,-1,1,-1,0
1529564278910387,0,-1,1,-1,-1,-1,0,-1
1529564278910387,0,1,-2,0,-1,0,0,0
1529564278917368,-1,-1,0,-1,-1,-2,-1,-1
1529564278917368,1,0,-1,0,-2,-2,-1,-1
1529564278923352,-1,-1,-1,-1,-2,-1,-2,-1
1529564278923352,-2,-2,0,0,0,0,-2,-1
1529564278938313,0,-1,-3,-1,0,1,-1,-2
1529564278938313,0,-1,0,0,0,-1,1,-2
1529564278946291,0,0,-1,-1,-1,-1,-1,0
1529564278946291,1,0,-1,0,0,-1,0,0
1529564278955267,0,1,-1,-2,-1,0,-2,-1
1529564278955267,0,-1,0,-1,-1,2,0,-1
1529564278968232,0,-1,1,-1,-1,-1,-1,-2
1529564278968232,-1,-1,1,-1,-1,0,0,-3
1529564278977209,-1,0,-1,-2,-1,0,0,-2
1529564278977209,-2,0,0,-3,-3,-1,1,-1
1529564278983194,-1,1,0,0,1,1,-1,-1
1529564278983194,0,0,-1,0,-1,-1,2,-1
1529564278998154,-2,-1,0,-2,-1,0,-1,1
1529564278998154,0,0,-2,1,0,-1,-2,-1
1529564279006133,-1,-1,-1,1,-2,-2,-2,-1
1529564279006133,0,-1,-3,-1,0,-2,0,0
1529564279015108,-1,-2,0,-1,-2,-3,1,-1
1529564279015108,-1,0,0,0,0,-1,0,-1
1529564279028074,0,-3,-1,-2,-1,1,0,1
1529564279028074,-1,-1,0,0,0,-1,-2,-1
1529564279037050,-1,1,0,-1,0,1,-1,-1
1529564279037050,-1,-2,0,-2,-2,-1,0,-2
1529564279043035,-1,0,-1,0,0,0,0,-1
1529564279043035,-1,0,0,-2,-4,-2,-2,0
1529564279057992,0,-1,-2,1,1,-2,0,1
1529564279057992,-1,-2,0,-1,-1,0,-1,-1
1529564279065972,-1,-1,-1,-1,-1,0,-1,-1
1529564279065972,0,-1,-1,-1,1,1,-1,-1
1529564279074947,0,-1,1,-2,-3,0,-1,-1
1529564279074947,0,-1,0,-1,-1,-2,-1,0
1529564279088911,0,1,0,1,1,0,-1,0
1529564279088911,-2,-1,1,0,0,0,1,-1
1529564279097885,-1,-1,-1,-1,-1,0,-2,-2
1529564279097885,1,0,-2,-1,1,2,0,1
1529564279103869,0,-1,0,-1,-1,-2,-1,0
1529564279103869,0,0,-2,1,2,-3,-1,0
1529564279118832,0,0,-1,1,1,0,1,-1
1529564279118832,-1,-1,0,0,0,-2,-1,0
1529564279125813,0,-1,-1,0,0,0,0,-1
1529564279125813,0,-1,-1,-1,-2,-1,1,0
1529564279134786,0,-2,-1,-1,0,0,-1,0
1529564279134786,0,-1,0,-1,1,0,1,0
1529564279148751,-1,0,-1,-1,0,0,-1,0
1529564279148751,0,-2,1,-2,-1,0,0,-2
1529564279157728,0,0,-1,-1,0,-2,-1,-1
1529564279157728,-2,1,2,-1,-3,0,-1,0
1529564279171690,-2,0,-1,-1,1,-3,-1,0
1529564279171690,-1,0,-1,-2,-1,1,-1,-1
1529564279178671,-1,-3,0,0,-1,-1,0,1
1529564279178671,0,-1,-2,-2,-2,-2,0,0
1529564279185653,-1,0,-3,0,0,0,1,-1
1529564279185653,0,0,-2,1,0,-1,1,1
1529564279194629,1,1,0,0,0,1,-1,0
1529564279194629,0,0,-2,0,0,-1,-2,-1
1529564279208590,0,-2,0,-1,-1,1,-1,-1
1529564279208590,-3,-2,-1,0,0,-2,-1,-1
1529564279217568,0,-1,0,0,0,0,-1,0
1529564279217568,-1,-1,-1,-2,0,1,-1,-1
1529564279231532,0,0,-1,-2,-3,1,-2,0
1529564279231532,1,-1,0,0,-1,1,-2,0
1529564279238514,-1,1,-1,1,-1,1,0,0
1529564279238514,1,0,-1,0,-2,-1,0,-1
1529564279246073,0,-2,-1,0,-1,-1,-1,-1
1529564279246073,-1,-1,1,0,0,2,-1,-1
1529564279255048,-2,0,-1,-1,-3,-2,0,-1
1529564279255048,0,-1,1,0,1,0,0,-2
1529564279269013,0,-1,1,-2,-1,-1,0,-1
1529564279269013,0,-2,-1,-1,-1,-1,-2,-1
1529564279278006,-2,-1,1,-1,1,0,0,-2
1529564279278006,-1,0,-1,-1,-1,0,-2,1
1529564279291990,-1,-1,-1,1,-1,-1,-1,0
1529564279291990,0,-1,0,1,0,-1,1,-1
1529564279298958,2,0,-1,0,-1,0,1,-1
1529564279298958,0,0,0,0,-2,0,-2,-2
1529564279305948,0,-1,0,0,0,-1,0,-1
1529564279305948,0,-1,-2,-1,-1,-1,0,1
1529564279314888,-1,-1,-1,-2,1,0,-1,-1
1529564279314888,-1,-2,0,-1,-1,-3,0,-1
1529564279328851,-2,-1,-1,-1,0,-1,1,0
1529564279328851,-1,1,-1,-1,0,-1,-3,0
1529564279337828,0,-1,-1,-1,0,-1,-2,-2
1529564279337828,-3,0,-1,-1,-1,0,0,1
1529564279351790,1,0,-2,-2,-1,-1,-1,-1
1529564279351790,0,0,1,0,-1,-3,-1,1
1529564279358806,-1,2,-1,-2,-1,-2,-1,1
1529564279358806,-2,1,-1,-1,-1,-3,-1,-3
1529564279365752,-1,0,-1,1,2,1,1,0
1529564279365752,-1,-1,-1,-1,-2,-1,-1,-1
1529564279374728,-1,-1,-2,-1,-2,0,-1,-1
1529564279374728,0,-1,-1,-1,0,-1,0,0
1529564279388691,0,-1,-3,-1,0,-1,-2,0
1529564279388691,1,0,0,-1,0,-1,-1,-2
1529564279397668,-1,-1,-1,0,0,0,0,-1
1529564279397668,-1,-2,1,0,0,-1,-1,-1
1529564279411665,0,1,0,-1,0,2,-1,-1
1529564279411665,0,-1,-2,0,0,1,-2,0
1529564279418611,-2,-1,-1,-2,0,-1,1,0
1529564279418611,0,0,-2,0,-1,0,-2,-1
1529564279425627,-1,-1,1,-2,0,1,0,-1
1529564279425627,0,-2,-1,0,-1,0,1,0
1529564279434569,-1,0,0,0,-1,0,0,-1
1529564279434569,-1,-1,-1,-1,1,0,1,0
1529564279448533,0,0,0,0,-1,-3,-2,1
1529564279448533,-2,0,0,0,0,-3,-1,-1
1529564279457508,-1,-1,1,-1,-1,0,-1,-1
1529564279457508,-1,-2,0,-1,-3,-2,0,1
1529564279471469,-1,-1,-1,0,-1,-1,0,-1
1529564279471469,-1,0,0,-2,-1,0,-1,-2
1529564279478451,0,0,-3,0,-1,0,-2,1
1529564279478451,0,0,-2,0,0,-1,-2,-1
1529564279486431,0,0,3,-1,-1,0,0,-1
1529564279486431,1,0,-2,0,0,-1,-1,1
1529564279501390,-1,0,0,0,-2,0,0,1
1529564279501390,-1,0,0,0,2,0,0,-2
1529564279508405,-2,1,-1,0,-2,-2,0,-1
1529564279508405,0,-1,0,-2,-1,0,-1,-1
1529564279517347,2,0,-2,-2,0,-1,-2,-1
1529564279517347,2,-1,-2,0,0,0,-2,2
1529564279531310,-1,0,0,1,0,-2,1,-2
1529564279531310,0,0,0,0,0,1,0,0
1529564279538291,-1,0,-1,0,-2,-3,-1,-2
1529564279538291,-1,-1,-1,0,0,1,-1,-2
1529564279546312,-1,-2,0,1,1,0,-2,-1
1529564279546312,-2,0,-1,-2,0,0,1,0
1529564279561265,-2,-2,0,0,1,-3,0,-1
1529564279561265,0,-1,-1,-2,-1,-1,0,1
1529564279568246,1,0,0,-1,1,0,-1,-1
1529564279568246,-1,-1,-1,-1,-3,-2,-1,-1
1529564279577224,-1,0,0,0,0,1,-1,0
1529564279577224,0,0,-1,0,-1,-1,0,-1
1529564279591149,-2,0,-2,0,-2,-1,0,0
1529564279591149,0,-1,0,1,1,-1,-1,-1
1529564279598131,-1,3,0,0,-1,-1,0,0
1529564279598131,-2,1,2,2,0,0,0,0
1529564279606109,-1,1,-3,-1,-2,0,0,1
1529564279606109,-1,-1,-2,0,0,-1,-1,-1
1529564279621123,-1,-2,-1,-1,-1,0,-1,-1
1529564279621123,-2,-2,-1,-2,0,-1,0,0
1529564279628052,1,0,-1,-2,-1,0,-1,-1
1529564279628052,-2,0,0,-1,-1,-1,-1,-1
1529564279637028,-1,-2,-1,-2,-3,-3,-2,0
1529564279637028,-1,0,1,0,-1,-1,-2,-1
1529564279651987,-1,0,-1,0,1,-1,0,-2
1529564279651987,1,-1,-1,-1,-1,0,0,-1
1529564279658968,0,-2,-2,0,1,0,-2,-1
1529564279658968,0,0,0,-1,-1,1,1,-2
1529564279665997,-1,0,1,0,-1,-1,-1,-1
1529564279665997,0,-1,0,-1,-4,-2,-1,0
1529564279680929,-1,-1,-1,-1,1,-1,0,-1
1529564279680929,-1,-1,-1,-1,-1,-2,0,0
1529564279688915,-2,-2,1,-1,1,1,-1,0
1529564279688915,1,0,-2,0,1,-1,1,0
1529564279698028,0,-1,0,-1,-2,-2,0,-1
1529564279698028,0,1,-1,-2,0,-2,-2,-1
1529564279711827,-1,-1,1,0,0,1,-1,0
1529564279711827,-1,-2,0,1,0,1,-1,-1
1529564279718809,0,-1,-1,-1,0,-1,0,0
1529564279718809,0,0,-1,0,-2,1,-1,-2
1529564279725816,0,0,-1,-2,-3,-2,0,0
1529564279725816,-1,0,0,0,-1,0,0,-1
1529564279740749,0,0,1,0,0,1,-1,0
1529564279740749,-2,-1,-1,-2,-1,-2,-1,-1
1529564279749355,0,2,-1,0,-1,-2,1,0
1529564279749355,0,-1,1,-2,0,-2,-2,0
1529564279757150,0,0,0,-1,0,0,-1,0
1529564279757150,0,0,0,0,0,0,-2,0
1529564279772081,-1,0,-1,-1,-1,-2,-1,0
1529564279772081,0,0,-1,-2,0,-1,0,-1
1529564279778512,0,-1,-1,0,0,-1,0,-2
1529564279778512,0,-2,-1,-2,-2,-1,1,0
1529564279794647,-2,-2,-1,0,-1,-2,-1,0
1529564279794647,1,0,-1,0,1,0,-1,-1
1529564279801723,1,-1,-1,-2,-1,-1,0,0
1529564279801723,-1,0,-1,1,-1,-2,-1,0
1529564279817815,-1,-2,-1,0,-1,2,-2,-1
1529564279817815,-1,0,-1,-2,-1,-1,-3,-1
1529564279818643,-2,-1,0,0,-2,-1,-2,0
1529564279818643,-2,0,-1,-2,0,-1,-1,-1
1529564279830786,-1,-1,-2,-1,-2,0,-1,-2
1529564279830786,-2,0,0,0,0,1,0,1
1529564279839773,0,0,-1,0,1,0,1,-1
1529564279839773,-2,-2,-1,1,0,-1,1,0
1529564279854116,2,0,-1,0,-2,0,0,0
1529564279854116,-1,-2,0,0,-1,-2,0,-1
1529564279861096,1,-1,-1,-1,-1,1,1,1
1529564279861096,0,0,-2,-2,-2,-2,-1,-2
1529564279876993,-2,-4,-1,0,1,-1,0,-1
1529564279876993,0,1,-1,0,0,-1,0,1
1529564279878988,0,-1,0,-2,1,-2,-2,-1
1529564279878988,-2,0,1,0,1,2,-1,0
1529564279892120,0,-1,0,1,0,-1,-1,0
1529564279892120,-3,-1,-1,-2,-1,-1,-1,1
1529564279899099,-2,-1,0,1,2,-1,-2,1
1529564279899099,1,-1,-3,-2,1,1,-1,-1
1529564279914061,0,1,-1,-1,-3,-3,0,-2
1529564279914061,0,-1,-2,-1,0,0,1,-3
1529564279921043,0,-1,-1,-2,-1,-1,-1,-1
1529564279921043,0,0,-1,0,0,0,1,-1
1529564279937027,-1,-2,0,1,-1,1,-2,-1
1529564279937027,-1,0,-1,0,-1,-3,-1,0
1529564279939021,-2,1,0,-1,-4,-2,0,-1
1529564279939021,0,-2,1,-2,0,0,-1,0
1529564279950990,0,1,0,-2,0,-1,0,0
1529564279950990,-1,0,-1,-3,1,0,0,0
1529564279959965,-1,-1,-2,0,0,-1,-1,-1
1529564279959965,-1,1,0,-2,-2,-2,-1,0
1529564279973963,0,-2,-1,-1,-2,-1,0,-2
1529564279973963,0,0,-1,1,0,0,0,-2
1529564279980957,-1,-2,0,0,-1,0,0,-2
1529564279980957,-1,0,1,1,1,1,-1,0
1529564279996915,0,-1,0,-1,1,-2,-3,0
1529564279996915,-2,-1,-1,-1,-2,-1,-1,-1
1529564280003848,0,-2,-1,-1,-1,0,0,-1
1529564280003848,-1,0,-1,-1,-1,-1,-1,-2
1529564280010828,-1,0,0,-1,0,-2,0,-1
1529564280010828,0,-2,0,1,-1,-1,-1,0
1529564280019805,-2,-1,-1,-2,0,-1,-1,0
1529564280019805,-1,-1,-1,1,-2,0,0,-1
1529564280033800,0,0,-1,-1,0,-1,0,-1
1529564280033800,0,-1,-1,0,-1,-1,-1,1
1529564280040749,-1,2,0,-1,-2,-2,0,0
1529564280040749,-1,0,-2,0,0,-1,0,-1
1529564280057704,1,-1,-1,-3,0,0,-1,0
1529564280057704,0,0,-2,1,1,1,-1,-1
1529564280058736,1,0,0,1,0,0,-1,-1
1529564280058736,-1,1,-2,0,0,-1,-1,0
1529564280070702,0,1,-2,-1,0,0,0,0
1529564280070702,0,-1,-1,-1,-1,-1,1,0
1529564280079687,0,-1,-1,-3,-1,0,-1,0
1529564280079687,-1,-2,-1,-1,1,-1,-1,0
1529564280094605,-1,-1,0,-1,-1,1,-1,-1
1529564280094605,0,-1,0,-2,-1,0,-1,0
1529564280100589,-1,1,-3,0,-2,-2,0,0
1529564280100589,0,0,-1,-1,0,0,1,-2
1529564280116547,-2,-2,0,-1,0,-1,-1,0
1529564280116547,-1,-2,1,-1,-2,-2,1,-1
1529564280124579,-1,-2,-1,0,-1,0,-1,-1
1529564280124579,0,1,0,0,-2,-3,0,0
1529564280130509,-1,0,-2,0,0,-1,-1,0
1529564280130509,-1,0,-1,-1,0,-2,0,0
1529564280140517,-1,0,-3,0,-2,0,-3,-1
1529564280140517,1,-1,-1,-1,-4,-2,-3,-1
1529564280154492,-1,-2,0,0,-2,-2,0,0
1529564280154492,-1,0,-1,-2,-1,-2,0,0
1529564280161428,-1,-1,-1,0,0,-1,1,2
1529564280161428,-1,0,0,-2,1,1,1,1
1529564280177430,-1,-2,0,0,-1,0,0,0
1529564280177430,-2,0,-1,-1,1,1,-1,-1
1529564280179426,0,0,-1,-2,1,-2,-2,-1
1529564280179426,-1,-1,0,0,-2,-1,-1,-2
1529564280191395,1,-2,-2,0,0,-1,-2,-1
1529564280191395,-1,1,1,1,-1,-2,1,0
1529564280200323,2,-1,0,-1,-1,-1,-1,-1
1529564280200323,0,1,1,0,1,0,0,-1
1529564280222265,0,-1,-3,-2,-2,-1,-1,1
1529564280222265,0,0,0,-1,1,-1,0,0
1529564280224259,0,0,-1,1,-1,-1,-1,-2
1529564280224259,0,-2,-1,-2,-2,0,-1,-1
1529564280237271,-1,-1,0,0,-1,-1,0,-1
1529564280237271,0,-1,-2,0,-1,-2,-3,-1
1529564280239220,-1,-1,0,1,0,-1,0,-1
1529564280239220,-1,-2,-2,-2,-1,-1,-1,0
1529564280251234,-2,1,0,0,-2,-1,-1,-1
1529564280251234,0,-1,-1,-1,-1,0,-1,-1
1529564280260164,0,0,0,-1,-1,-1,-2,0
1529564280260164,0,0,-2,1,0,-1,-1,0
1529564280274164,-2,1,-1,0,0,-1,0,-1
1529564280274164,0,-1,-2,-1,-1,1,-1,0
1529564280281153,-1,-2,-1,-1,-2,-2,0,-1
1529564280281153,0,0,-1,0,-1,0,-2,-1
1529564280298079,0,0,-2,-1,1,-2,0,-2
1529564280298079,-2,-2,0,0,0,-1,0,0
1529564280299059,-1,0,0,-2,0,0,-1,-1
1529564280299059,-1,0,-1,-2,-1,0,0,1
1529564280311206,-1,-1,1,-1,-2,-2,0,1
1529564280311206,0,0,-1,1,0,0,-2,-1
1529564280320258,-2,1,0,0,0,0,-1,-1
1529564280320258,0,-1,1,-1,-2,-1,0,-1
1529564280334246,-1,0,0,0,-1,-1,1,1
1529564280334246,-1,-1,-1,-1,-1,0,2,0
1529564280341387,0,-1,-1,0,1,-2,-1,0
1529564280341387,0,-1,-1,1,-2,-2,-1,-3
1529564280357336,0,0,-1,-1,0,0,-1,-1
1529564280357336,-1,-1,0,-1,-1,-1,-1,-3
1529564280359152,-1,-1,-1,0,-1,0,-1,-1
1529564280359152,-1,0,-1,-2,2,-1,0,-1
1529564280371523,0,0,-1,-1,-1,0,0,0
1529564280371523,-2,1,-1,0,-3,-1,-1,0
1529564280380474,-2,-1,0,-1,0,-1,0,0
1529564280380474,-1,0,-1,-1,-1,-1,2,-1
1529564280394686,0,0,0,-2,-1,1,-1,-1
1529564280394686,0,0,1,0,-1,-2,0,-1
1529564280401756,-1,-2,-1,-1,0,-1,2,-1
1529564280401756,0,-1,0,-1,0,0,0,1
1529564280417204,0,-1,-1,-1,0,-1,0,0
1529564280417204,-1,-1,0,-1,-2,0,-1,0
1529564280423977,0,0,0,2,0,-1,-1,1
1529564280423977,0,0,0,-2,-1,-1,-2,-1
1529564280430958,0,0,-1,-1,1,-1,0,-3
1529564280430958,0,-1,1,-1,-2,-1,0,0
1529564280440151,0,0,-2,-2,-1,0,-2,0
1529564280440151,-2,-1,0,0,-1,-2,-1,0
1529564280454602,-1,-3,-3,-2,-2,-3,-2,-1
1529564280454602,-1,0,0,-1,-1,-1,-1,0
1529564280461182,0,1,-1,-1,0,2,0,-1
1529564280461182,-1,0,-1,0,-1,0,-1,1
1529564280476725,-1,1,-1,0,0,1,-1,0
1529564280476725,0,-1,-1,-1,2,0,-2,-2
1529564280483723,0,-1,0,-1,-1,-2,1,0
1529564280483723,-1,-1,0,-1,1,1,-1,-1
1529564280491522,0,-1,0,1,-2,-2,-3,0
1529564280491522,0,-1,-2,0,-1,1,0,1
1529564280500063,-1,-1,1,-2,0,-2,0,0
1529564280500063,0,-1,-1,-1,-1,-1,1,-1
1529564280514919,0,-2,-1,-2,-1,0,0,0
1529564280514919,0,-2,-1,-1,2,0,1,-1
1529564280521482,-1,1,-1,-2,-3,-2,-3,0
1529564280521482,-1,-2,-1,-1,0,0,-2,-2
1529564280536443,-1,-1,0,0,1,-1,1,0
1529564280536443,-1,0,-2,-2,-1,-2,-2,-2
1529564280543426,-1,-2,0,0,-1,0,-1,-3
1529564280543426,-1,-1,0,-2,-2,-1,0,0
1529564280551703,-1,0,0,1,-2,-1,0,-2
1529564280551703,-1,-1,-1,0,-1,-1,0,1
1529564280560564,0,-2,-1,0,1,0,0,0
1529564280560564,-1,0,-2,-1,-2,-3,-2,0
1529564280574344,-2,-1,0,0,-1,1,0,-1
1529564280574344,0,0,-3,-2,1,1,-1,-2
1529564280581326,1,0,1,-1,0,0,0,0
1529564280581326,0,0,-1,0,0,2,0,0
1529564280596603,-1,0,-1,0,0,-2,-1,2
1529564280596603,-1,0,1,0,-1,-1,0,0
1529564280603446,-1,-1,0,0,-1,-2,0,-1
1529564280603446,1,-1,-1,-1,0,-1,0,-2
1529564280620393,0,2,-2,0,0,-2,-1,0
1529564280620393,0,-1,-2,-1,-2,1,0,0
1529564280621216,-3,0,-1,-2,-3,-1,-1,0
1529564280621216,-1,-1,0,0,-1,-2,-1,1
1529564280634394,0,-1,0,-2,-2,-1,1,-2
1529564280634394,0,-3,0,1,-1,-1,-1,0
1529564280640800,0,-1,-2,-1,0,0,-1,1
1529564280640800,-2,-2,-2,0,1,-2,-3,-1
1529564280657354,-1,0,-2,-1,0,1,-1,0
1529564280657354,-2,0,0,-2,0,-1,0,-1
1529564280664365,-1,-2,0,0,-1,0,0,-2
1529564280664365,1,0,-2,-2,-2,-1,0,-2
1529564280679996,-2,-2,0,-1,0,-1,-2,-1
1529564280679996,0,0,-2,-1,0,-1,-1,-3
1529564280681994,-1,0,0,0,0,-1,-1,1
1529564280681994,0,1,0,-1,0,0,0,0
1529564280693960,1,-2,0,-1,-1,2,-1,-2
1529564280693960,0,0,1,-1,-2,-3,-1,0
1529564280700941,-1,-1,-1,-1,1,-1,-2,-1
1529564280700941,-2,0,-1,0,1,1,0,0
1529564280716897,-1,-1,0,-1,0,0,0,-1
1529564280716897,-2,-1,-2,0,0,1,-1,0
1529564280724026,0,1,-1,-1,-2,-1,0,0
1529564280724026,-1,-1,0,1,1,-1,-1,-1
1529564280739980,-1,-1,-1,0,-1,-1,-1,-1
1529564280739980,0,0,0,-1,-2,-1,-1,-1
1529564280741979,0,1,-1,1,-1,-1,0,-2
1529564280741979,0,-1,-1,-2,0,0,0,0
1529564280754943,0,-1,1,1,-1,-1,1,0
1529564280754943,-2,0,0,0,0,0,-1,-2
1529564280760926,-1,-1,-1,0,-1,0,-1,1
1529564280760926,-1,-1,-1,0,-2,0,-1,-1
1529564280775887,1,-1,0,-1,-2,-1,-1,0
1529564280775887,-1,0,0,0,-1,-2,0,0
1529564280783865,-1,-1,0,0,1,0,0,-1
1529564280783865,-1,0,-2,-1,0,0,-1,-1
1529564280799653,-2,0,-2,-1,1,-1,-1,-1
1529564280799653,0,0,-1,1,0,0,-1,1
1529564280800241,-1,0,-2,0,-1,0,-1,0
1529564280800241,-1,-1,-1,-1,0,-1,-1,0
1529564280815200,-1,0,-1,-1,-1,0,-1,-1
1529564280815200,0,0,-1,1,0,1,-1,-1
1529564280820698,-1,0,0,0,0,-1,-2,-3
1529564280820698,-1,-1,1,-1,-1,-2,-1,0
1529564280835780,1,-1,1,-1,-1,-1,0,0
1529564280835780,-2,-1,0,0,1,1,2,0
1529564280843928,-3,-1,1,0,-2,-3,-3,-1
1529564280843928,0,-1,-2,-1,-2,-1,0,0
1529564280858721,-2,1,-2,-1,1,-1,-1,0
1529564280858721,0,1,-1,-3,-1,-2,-2,-1
1529564280859715,0,-1,-1,-3,-1,0,0,0
1529564280859715,0,0,-2,-1,-4,0,-1,-2
1529564280875100,-3,-1,-1,-1,0,0,0,0
1529564280875100,-2,-3,-2,0,-2,-1,0,1
1529564280880856,1,-1,-2,-1,-1,0,-1,0
1529564280880856,1,0,0,0,-1,0,-3,0
1529564280896088,0,-1,-1,-1,0,-1,1,-1
1529564280896088,0,-1,0,0,0,-1,0,0
1529564280904116,-1,0,1,-1,-1,-3,-1,0
1529564280904116,-1,0,-1,0,-2,0,0,-1
1529564280919090,1,-2,1,-1,-1,-1,0,-1
1529564280919090,-1,0,-2,-2,2,-2,-1,-1
1529564280920076,1,-2,0,0,0,2,0,-1
1529564280920076,-1,0,1,0,0,1,1,0
1529564280935038,-1,0,-1,0,-1,-1,-1,-2
1529564280935038,0,0,-2,-1,-2,-1,0,-1
1529564280941020,0,0,-1,0,0,-2,1,-1
1529564280941020,0,0,-2,-1,-1,-2,0,-2
1529564280955980,0,1,0,1,-1,0,1,-2
1529564280955980,-1,-2,1,0,-2,-3,-2,0
1529564280963958,-3,1,-1,-2,-1,-1,0,0
1529564280963958,0,-1,-1,-2,-1,-1,-2,-1
1529564280978964,0,-2,-1,0,1,-1,-2,0
