timestamp,emg1,emg2,emg3,emg4,emg5,emg6,emg7,emg8
1528878188649170,0,0,0,10,1,1,0,-2
1528878188649170,-1,1,-1,-4,0,-1,0,-1
1528878188651164,1,1,5,2,2,1,1,1
1528878188651164,-2,-1,22,4,1,0,0,-3
1528878188652163,-2,1,2,-7,-3,0,-1,-1
1528878188652163,0,-3,-18,-4,-3,1,-1,-1
1528878188658147,-2,0,-3,-4,-4,-2,-1,-1
1528878188658147,-2,-2,-3,0,-1,-3,-1,-2
1528878188664134,1,-1,-2,1,2,-1,0,0
1528878188664134,-1,-1,11,4,-3,-2,-2,-1
1528878188679089,-1,-2,-17,-14,-3,-1,-1,-2
1528878188679089,0,1,1,-1,-4,-2,-2,-2
1528878188689062,-1,-2,12,5,-3,-3,-3,-1
1528878188689062,-1,-2,-29,2,3,0,1,-1
1528878188694050,0,4,5,-3,-5,-1,-1,0
1528878188694050,-1,-4,-16,-5,6,1,-3,0
1528878188718984,2,6,21,11,0,-1,-1,2
1528878188718984,-6,-14,-67,-18,-3,-2,-3,-5
1528878188758876,-2,3,14,34,17,10,11,-3
1528878188758876,2,9,9,11,6,5,2,0
1528878188759874,-3,-7,-7,0,-3,-3,-1,0
1528878188759874,-2,-1,10,-10,-4,0,-1,-2
1528878188761868,0,-1,7,-4,0,-6,-5,0
1528878188761868,-2,2,4,-2,-4,-5,-2,0
1528878188762867,1,5,6,1,-1,2,1,-1
1528878188762867,-3,-2,-7,11,4,-3,-1,-2
1528878188770844,1,-3,-9,-5,-6,-2,-3,0
1528878188770844,-2,-7,2,-1,-2,-1,-1,-3
1528878188776834,1,3,-29,-19,-6,-2,-3,0
1528878188776834,-1,2,0,1,10,2,0,0
1528878188783809,2,2,-21,-4,2,4,8,1
1528878188783809,1,1,26,-1,-3,-5,0,1
1528878188798769,-5,-10,-9,3,-4,-12,-11,-4
1528878188798769,-2,-6,-12,-9,-6,6,6,0
1528878188807746,-5,-7,-12,-5,-7,-8,-5,-7
1528878188807746,4,10,17,9,6,-1,-10,3
1528878188830685,-1,-4,28,1,0,23,24,2
1528878188830685,1,-1,9,8,5,-4,-4,0
1528878188831681,1,2,0,-10,-4,2,-3,1
1528878188831681,-6,-10,-15,-10,-11,-13,-2,-4
1528878188844699,-1,2,6,-2,4,-6,-11,-1
1528878188844699,-3,-2,-12,14,2,1,1,0
1528878188845644,-6,-19,-53,-15,-7,-2,-1,-4
1528878188845644,1,2,9,-1,-3,0,-4,0
1528878188868583,2,7,-14,12,2,-1,0,0
1528878188868583,0,-4,-21,-23,-10,0,1,-1
1528878188868583,-3,-5,18,7,3,-4,-5,-2
1528878188868583,0,7,-7,7,0,2,1,-2
1528878188890528,1,-3,-16,4,2,2,2,0
1528878188890528,-2,-5,-4,1,0,-5,-2,-3
1528878188891522,2,5,36,0,0,2,-1,4
1528878188891522,-5,-14,-68,-15,-5,1,1,-4
1528878188904489,1,9,26,10,0,0,0,0
1528878188904489,-2,1,-22,-2,-7,-3,-6,-3
1528878188905485,-1,5,4,-2,2,1,-1,0
1528878188905485,0,-2,0,9,6,7,5,0
1528878188928423,-1,-3,16,-10,-7,-10,-5,-1
1528878188928423,0,6,-1,3,-6,-1,-5,-1
1528878188928423,-1,-5,12,2,-3,0,1,0
1528878188928423,-1,-8,-33,-6,1,-3,-2,-2
1528878188950408,-1,-6,-2,0,2,1,-2,-2
1528878188950408,-3,-4,7,-6,-1,-2,3,-1
1528878188951380,0,4,15,7,-4,-3,-1,-2
1528878188951380,-3,-7,-2,-5,0,1,-2,-1
1528878188965324,-2,-3,-10,-2,-6,-2,-2,-4
1528878188965324,0,-2,22,2,4,-1,-1,-3
1528878188965324,-2,-2,-11,5,6,-1,0,4
1528878188965324,3,3,17,-1,-2,0,1,-1
1528878188988268,-4,-6,-10,-4,-1,-4,-1,-1
1528878188988268,-1,1,18,-2,-5,-2,-2,-3
1528878188989260,1,6,18,-7,-10,-6,-4,-3
1528878188989260,-2,-5,0,3,1,3,0,-1
1528878189010204,2,4,-21,5,8,3,0,1
1528878189010204,1,-8,2,0,1,0,-3,1
1528878189011202,1,6,8,-4,-2,1,-1,-1
1528878189011202,0,12,-8,-6,-3,-2,0,1
1528878189025164,-1,-6,-16,0,-1,-3,-2,-2
1528878189025164,-2,0,39,9,-1,-2,-2,-1
1528878189025164,4,30,-4,-13,-4,1,0,0
1528878189025164,-5,-27,4,20,7,0,-1,-3
1528878189048104,0,-33,7,-6,2,4,3,6
1528878189048104,-5,-4,-11,-7,-6,-3,-1,-5
1528878189049102,4,9,-1,1,3,0,-2,1
1528878189049102,-1,-9,-8,2,0,-2,0,-1
1528878189071043,4,29,-6,-8,0,-1,0,0
1528878189071043,4,-9,38,7,-1,1,3,9
1528878189072040,-3,-28,28,9,3,0,-1,-4
1528878189072040,-3,-1,-23,-25,-4,-1,-1,-1
1528878189084014,-1,-10,5,7,-4,-3,-2,0
1528878189084014,4,27,1,9,7,5,2,3
1528878189092983,-6,5,45,-8,-8,-4,-3,-7
1528878189092983,0,7,52,19,5,1,2,3
1528878189107943,-2,6,6,-17,-10,-4,-2,-4
1528878189107943,-1,-6,-24,25,12,4,2,3
1528878189109938,3,-9,-13,-2,1,3,3,11
1528878189109938,8,8,2,1,-2,-4,-6,-5
1528878189130882,-17,-1,-1,-14,-10,-5,-10,-16
1528878189130882,-5,3,-9,-1,5,1,8,6
1528878189131879,11,1,-18,10,4,-3,-9,9
1528878189131879,-7,13,45,-11,-5,3,6,8
1528878189143847,10,-6,-50,-5,-3,-2,-3,-6
1528878189143847,-2,2,6,-2,-5,-3,1,6
1528878189152823,-9,-15,-80,-23,-6,-2,2,-12
1528878189152823,0,-5,32,6,-5,-9,-4,8
1528878189167809,8,32,-13,-1,4,4,4,7
1528878189167809,-11,-45,10,3,2,-12,-12,-3
1528878189169778,4,12,0,0,-1,-8,0,-10
1528878189169778,-29,-2,-9,1,1,15,1,-19
1528878189190724,-3,-8,17,5,2,-1,-1,-2
1528878189190724,8,15,-31,-5,-7,0,-3,-4
1528878189191720,-4,-2,27,-8,2,-6,-4,2
1528878189191720,5,1,-11,-3,-1,-7,-4,3
1528878189203688,-7,-25,-20,0,4,2,0,-26
1528878189203688,-1,8,24,-12,-11,-5,-4,1
1528878189213668,-4,-1,13,5,-1,1,0,-1
1528878189213668,-4,-4,8,-7,-5,-3,0,-1
1528878189227662,24,1,4,-15,-3,1,1,7
1528878189227662,2,8,0,12,3,-1,-3,-7
1528878189229618,-4,-16,-21,2,0,2,0,-6
1528878189229618,9,5,-26,-5,-2,-2,-6,5
1528878189250563,-9,1,33,6,-5,-18,-7,6
1528878189250563,-3,-8,-21,-14,0,16,11,-5
1528878189252557,4,9,33,11,-1,4,0,6
1528878189252557,0,-6,-47,-16,-8,-8,6,-8
1528878189264524,-9,-4,34,3,2,-4,-18,1
1528878189264524,1,0,-27,-17,-12,-30,-11,-6
1528878189273502,-5,-6,-15,-3,1,30,16,2
1528878189273502,4,7,10,2,-1,-7,-1,-3
1528878189288461,-4,-3,5,7,-2,-1,-12,0
1528878189288461,-1,2,-6,-3,5,10,8,-2
1528878189289483,-3,-4,-8,-7,-7,-24,-23,-2
1528878189289483,-1,-12,-17,-7,-4,14,6,0
1528878189310442,-1,6,-6,12,1,0,15,4
1528878189310442,0,7,11,-3,-1,-5,-13,-3
1528878189312397,-4,-8,2,2,-2,1,-2,-5
1528878189312397,-1,-1,-2,-3,-5,-37,-28,-5
1528878189324411,-7,-2,-7,1,0,5,31,3
1528878189324411,4,5,30,3,1,24,8,1
1528878189333341,-5,-8,-60,-12,-4,0,4,-3
1528878189333341,4,5,19,9,3,-4,-17,0
1528878189347330,0,5,8,-17,-10,-15,-7,-3
1528878189347330,-2,-5,-1,9,2,-9,-4,-2
1528878189354327,4,7,-6,-13,-5,2,1,1
1528878189354327,-3,-4,8,16,3,-3,1,1
1528878189370242,-4,-1,11,-3,4,8,-2,-1
1528878189370242,2,-7,-46,-15,-12,3,9,4
1528878189372236,-1,8,20,8,-4,-8,-3,-6
1528878189372236,-1,-5,16,-5,-4,6,-9,-2
1528878189384205,1,6,-10,2,7,5,1,0
1528878189384205,-5,-17,-13,-17,-10,-7,-5,-5
1528878189393181,1,-6,-5,17,7,-6,-2,3
1528878189393181,3,7,-10,4,3,6,14,1
1528878189407147,-3,-5,6,13,2,5,-5,-2
1528878189407147,0,4,5,-11,-1,-4,-4,1
1528878189414179,-1,1,19,3,2,-1,2,0
1528878189414179,-4,-4,-12,-10,-3,6,7,-3
1528878189430083,3,8,21,1,-1,1,-4,3
1528878189430083,-3,-1,-28,14,7,-5,-3,-3
1528878189432077,-1,2,29,-6,-8,-2,0,0
1528878189432077,2,1,-5,11,10,7,5,0
1528878189444045,-1,-3,8,-12,-5,-4,-3,1
1528878189444045,-2,3,10,5,-1,-1,-2,-3
1528878189453023,0,0,15,8,3,4,0,-1
1528878189453023,-1,-5,-40,-11,3,-1,1,1
1528878189467985,-3,-5,-23,0,-12,-4,-3,-2
1528878189467985,-4,-2,22,-14,4,3,-2,-2
1528878189473970,2,11,-6,-12,0,0,-1,0
1528878189473970,1,0,11,3,-1,1,3,-1
1528878189490920,-2,-11,-10,13,2,0,-2,2
1528878189490920,-1,2,-2,2,-5,-2,-3,-1
1528878189491917,1,5,-11,5,1,-1,-1,0
1528878189491917,-2,-1,10,-19,-9,-1,0,-2
1528878189503924,-2,-2,-14,-2,2,3,-1,-3
1528878189503924,1,2,10,11,4,1,0,0
1528878189513858,1,2,-7,-11,-1,-3,1,0
1528878189513858,2,0,-5,5,-1,0,2,0
1528878189527361,3,4,14,5,3,-2,-1,0
1528878189527361,-1,-4,-11,-8,-5,-3,-1,-1
1528878189534689,-2,-3,8,2,3,3,-1,-1
1528878189534689,-6,-5,-6,0,-4,-3,-4,-4
1528878189550647,-1,-9,-15,-6,-3,-2,6,2
1528878189550647,3,25,29,-8,-5,-2,-7,-3
1528878189552380,-2,-15,-37,11,4,2,4,3
1528878189552380,11,39,5,5,8,5,13,7
1528878189573227,-20,-78,9,-8,-7,-4,-26,-3
1528878189573227,6,25,-38,-7,-5,-2,1,12
1528878189574222,6,-29,29,-17,-12,-13,-12,14
1528878189574222,-19,28,-41,13,10,7,11,-12
1528878189588055,15,12,36,0,-3,2,-10,0
1528878189588055,-2,-23,2,8,7,6,-17,3
1528878189594939,0,-17,-10,5,3,27,33,2
1528878189594939,-9,-3,65,2,-3,2,-13,-7
1528878189610980,-6,28,-3,0,-1,-29,-21,-4
1528878189610980,-1,-15,22,-2,-9,-11,28,34
1528878189612850,7,7,52,3,3,5,-4,-28
1528878189612850,8,-30,-43,-14,-6,0,6,-2
1528878189632803,2,25,14,8,5,17,11,36
1528878189632803,-9,-19,-1,-9,-8,-24,-26,-31
1528878189634809,-10,-1,-1,-29,-13,-41,-14,-9
1528878189634809,-11,-4,19,33,20,45,4,3
1528878189647413,37,12,-3,0,1,12,13,-2
1528878189647413,4,1,12,-15,-8,44,8,5
1528878189654399,-10,8,-18,57,24,0,5,0
1528878189654399,-4,-9,0,-32,0,-32,-19,-6
1528878189670633,-10,-10,-26,-11,-9,-14,-4,-10
1528878189670633,6,10,22,8,-4,4,6,-7
1528878189672853,2,7,2,-3,-4,-4,-13,-5
1528878189672853,6,-11,-9,-3,-9,-17,-12,13
1528878189693791,-10,-1,-6,4,3,2,14,-6
1528878189693791,1,1,1,5,2,-6,5,-4
1528878189694571,-7,0,-21,-23,-8,-3,-24,-1
1528878189694571,6,-44,-6,5,-3,-3,5,5
1528878189706539,-5,1,-13,-18,-6,5,7,-7
1528878189706539,-7,-7,-15,2,3,-6,0,-4
1528878189716339,-4,-3,-16,6,1,5,12,2
1528878189716339,1,-1,-3,-9,-11,-8,-11,0
1528878189738653,1,15,48,2,6,1,5,-10
1528878189738653,2,2,-45,-1,3,2,-7,-1
1528878189739312,1,-23,11,-36,-21,-6,-1,2
1528878189739312,-1,-3,-12,59,17,-2,0,-6
1528878189753580,-4,-10,-9,-28,2,-2,-4,0
1528878189753580,-2,13,-13,21,0,-9,-4,-3
1528878189755335,2,5,-17,-22,-8,3,0,-3
1528878189755335,0,11,4,-21,-6,1,2,3
1528878189775839,-9,-20,8,18,2,-4,-1,-6
1528878189775839,-1,-30,-24,-12,5,-3,1,-1
1528878189777519,8,15,-8,2,-5,0,-3,2
1528878189777519,-2,0,0,-21,-11,-2,0,-4
1528878189789490,-3,7,-11,9,5,0,-1,-2
1528878189789490,-1,-2,-6,-8,-5,-3,-5,-3
1528878189798029,-3,-1,-28,4,-1,-3,-3,1
1528878189798029,-1,5,28,-12,-9,-3,2,7
1528878189812740,7,10,-11,6,0,0,0,3
1528878189812740,-2,5,17,4,2,-5,-5,-31
1528878189814732,3,-2,25,11,4,0,0,11
1528878189814732,-3,2,0,-7,-5,-4,-4,-4
1528878189835679,-3,6,-4,5,-2,0,3,-1
1528878189835679,-2,-1,-3,-6,2,3,2,4
1528878189837673,1,13,-13,7,6,6,3,4
1528878189837673,-3,-5,39,-12,-7,-6,-6,-6
1528878189849135,-3,-2,-16,5,-4,-10,-2,-2
1528878189849135,0,15,8,1,1,4,-1,5
1528878189857870,-6,1,-17,-8,-3,-2,-2,-5
1528878189857870,0,5,-7,1,0,0,1,3
1528878189872851,0,-6,-18,1,-2,-1,-3,-3
1528878189872851,-2,-10,-16,-7,-3,-4,0,5
1528878189879880,-4,-2,4,2,0,2,1,-2
1528878189879880,3,3,-3,-4,0,1,-1,-6
1528878189895803,-2,-2,-8,-6,-1,5,0,3
1528878189895803,-1,-1,16,3,0,-4,1,1
1528878189896767,-6,-4,10,4,1,-1,-2,-3
1528878189896767,-1,1,-21,-2,-1,0,1,1
1528878189908745,-2,6,9,1,0,1,-1,-1
1528878189908745,3,0,2,2,-1,-1,1,4
1528878189918830,-2,0,14,3,1,-1,0,-4
1528878189918830,0,-4,-19,-1,-2,-2,1,-1
1528878189932915,0,-1,2,-5,-3,-2,-2,-3
1528878189932915,-7,-5,5,-2,-3,-5,-7,-4
1528878189939413,1,-3,-10,2,1,-1,-5,-1
1528878189939413,2,3,11,3,1,5,3,-2
1528878189955638,-3,-2,-5,-6,-1,-1,-3,0
1528878189955638,-2,-1,-3,-3,-2,-3,-1,-3
1528878189957392,-1,-1,6,-1,-2,-1,1,-2
1528878189957392,-1,0,2,-2,-3,-2,-1,1
1528878189969391,-2,-1,3,-2,-2,-1,-2,-3
1528878189969391,1,0,-8,5,2,1,2,1
1528878189978335,-1,-4,-2,-5,-2,0,-1,-2
1528878189978335,-1,0,9,-1,-4,-1,-1,1
1528878189992538,-3,-3,-29,-2,-3,-1,-1,-4
1528878189992538,0,1,8,1,-1,0,2,1
1528878189999633,-2,-2,7,2,1,-1,0,-1
1528878189999633,2,-1,-11,-1,-1,-2,-2,6
1528878190015573,-9,-2,9,-1,0,-1,-3,-16
1528878190015573,1,1,4,-4,-2,-1,-1,-1
1528878190017321,-1,-1,-15,-2,-2,-2,0,1
1528878190017321,-3,0,8,-2,0,-2,-2,-2
1528878190029748,0,0,8,1,1,-1,-1,2
1528878190029748,-2,-2,-4,0,0,-3,-1,1
1528878190038910,-1,-2,-2,-1,-2,0,0,-3
1528878190038910,0,-1,-1,-2,-1,-2,0,-1
1528878190053007,1,1,2,1,-2,-1,0,1
1528878190053007,-1,2,21,2,0,1,-1,-1
1528878190059956,-1,-4,-31,-2,-1,-1,-1,2
1528878190059956,-2,-4,-8,-6,-3,-3,-2,-4
1528878190075670,1,3,6,2,-2,-2,-1,1
1528878190075670,-4,-11,-30,-6,-4,-1,-2,-1
1528878190077261,0,1,19,3,1,0,0,-3
1528878190077261,0,-2,2,0,1,-2,-1,-1
1528878190098432,0,0,4,-1,1,0,1,-1
1528878190098432,1,2,9,0,-2,-2,-1,3
1528878190100376,0,-2,-12,-2,-3,-2,-2,-2
1528878190100376,-2,-1,-8,-1,0,0,-1,-2
1528878190112400,1,-1,8,-1,0,2,1,2
1528878190112400,-2,3,5,11,4,1,1,0
1528878190119139,0,-2,11,-5,-5,-4,-3,0
1528878190119139,-1,-1,-8,0,-4,-2,-2,-3
1528878190136258,0,-1,-5,-6,-3,0,-1,0
1528878190136258,3,3,16,1,1,-1,2,-1
1528878190137171,-2,-4,-12,3,5,1,0,0
1528878190137171,1,-1,31,4,-3,-1,0,-2
1528878190158697,-2,-2,-17,-7,-4,-2,-1,-1
1528878190158697,0,3,-4,-13,-8,-2,0,-1
1528878190160455,-2,-5,-13,14,6,0,-1,1
1528878190160455,0,3,-1,-4,1,1,0,0
1528878190172712,-1,-2,2,6,1,0,-2,-1
1528878190172712,1,0,0,-6,-3,-3,1,-2
1528878190179649,-2,1,11,-5,-4,-1,-1,-1
1528878190179649,-2,-2,8,4,1,1,-1,0
1528878190195556,0,0,3,-9,-8,-2,-3,2
1528878190195556,0,-1,-1,26,18,4,0,1
1528878190197216,-1,-2,-13,-9,-4,-2,-3,-1
1528878190197216,-1,-1,11,6,2,-1,0,-1
1528878190218144,0,0,6,-8,-5,-3,-1,0
1528878190218144,-2,-4,-7,-4,-6,-1,-2,-1
1528878190219142,0,0,9,4,0,1,0,-1
1528878190219142,-1,0,-5,-5,-4,-2,-1,-3
1528878190231110,-3,-3,-9,3,2,0,1,0
1528878190231110,-3,-4,-12,-6,-4,-2,-2,-2
1528878190241083,-1,3,35,2,-2,-2,-1,0
1528878190241083,-1,-3,-21,-5,-2,-2,-2,0
1528878190255101,-1,0,-8,0,2,-1,-1,-2
1528878190255101,1,4,12,6,0,0,-1,1
1528878190257055,-4,-12,-64,-17,-7,-3,-1,-1
1528878190257055,-2,1,11,-3,-2,0,0,-1
1528878190278039,1,-2,13,9,1,-1,-2,-1
1528878190278039,-3,-3,-13,-8,-3,-2,-1,0
1528878190280034,1,2,17,1,1,-1,-1,0
1528878190280034,-1,0,-14,1,1,2,2,-1
1528878190291965,1,-3,-9,0,0,-3,-2,-1
1528878190291965,-3,-3,9,-6,-5,-2,-2,-2
1528878190300976,1,0,10,2,1,0,0,0
1528878190300976,-2,0,-24,-4,-1,-1,-1,-1
1528878190315939,-1,3,16,4,1,0,0,-1
1528878190315939,-3,-7,-27,-10,-4,-3,-2,-3
1528878190316882,-1,-1,-25,-2,-1,-4,-1,-1
1528878190316882,1,2,27,7,1,-1,-1,0
1528878190337877,-1,-4,-45,-5,-1,-1,0,0
1528878190337877,0,0,18,1,-1,-2,-1,1
1528878190339819,-3,1,26,4,-1,1,-1,-3
1528878190339819,0,-1,1,-4,-3,-1,-2,0
1528878190351842,-1,-2,13,4,-1,-2,-2,-1
1528878190351842,-2,-1,-7,-3,1,-1,0,0
1528878190360804,2,3,4,4,0,0,1,0
1528878190360804,-1,-1,-2,-1,-4,-2,-2,-1
1528878190375778,-1,-1,8,-2,-1,0,-2,-2
1528878190375778,-2,0,0,-3,-1,-1,-1,-2
1528878190376775,0,-2,-8,-3,-1,-1,0,-1
1528878190376775,-2,1,7,1,-1,-1,-1,-2
1528878190397700,0,-4,-6,-4,-1,0,-1,-2
1528878190397700,1,1,-8,1,-2,-1,-1,-2
1528878190399664,-1,2,7,-1,-1,0,-1,1
1528878190399664,-1,-3,-13,-2,-1,-1,-1,-2
1528878190411683,-2,-1,7,0,-1,-3,-1,-2
1528878190411683,-1,-1,10,1,1,0,-2,0
1528878190420603,-2,-4,-13,-3,-2,-1,-1,-1
1528878190420603,-2,-1,3,0,0,1,-1,-1
1528878190435619,-3,-1,5,1,-1,1,0,-1
1528878190435619,-1,0,19,3,-1,-2,0,-1
1528878190437612,-2,1,-7,-4,-1,-1,-1,0
1528878190437612,-1,-4,-12,-1,0,-2,-1,-2
1528878190457562,1,13,8,0,-2,-2,1,1
1528878190457562,-2,-8,-16,-1,-1,-1,0,-1
1528878190459500,0,3,5,1,0,-1,-2,-2
