timestamp,emg1,emg2,emg3,emg4,emg5,emg6,emg7,emg8
1528884658146847,0,0,-2,1,-1,-2,0,-1
1528884658146847,-1,0,-1,-1,0,0,-2,0
1528884658157820,-1,-2,-1,-2,2,4,0,-1
1528884658157820,-4,-3,-3,-2,-4,-4,-2,-1
1528884658160809,-1,0,0,1,0,1,-1,0
1528884658160809,0,0,0,1,0,1,0,0
1528884658175769,-1,0,0,-1,-3,-3,-1,0
1528884658175769,-3,-6,-5,-1,1,0,-1,-1
1528884658183748,2,5,2,0,1,-3,-1,0
1528884658183748,0,0,3,-2,-1,3,-1,0
1528884658223642,2,4,3,1,0,-1,-2,-1
1528884658223642,0,2,1,4,2,-1,-1,1
1528884658224649,-2,-2,1,0,-1,-2,-1,0
1528884658224649,-5,-12,-11,-5,-1,-2,-2,-2
1528884658225646,-5,-3,-1,-3,0,-1,-3,-2
1528884658225646,3,3,4,2,-1,2,1,0
1528884658227633,3,0,1,2,1,-2,-1,-1
1528884658227633,3,6,7,-2,1,-1,0,1
1528884658236609,-5,-5,-5,-5,-14,-5,0,-2
1528884658236609,-4,-9,-5,-3,-1,-2,-1,-1
1528884658244592,-4,-6,-8,-2,-6,1,0,-1
1528884658244592,4,8,5,0,1,0,-1,-2
1528884658251568,2,-3,8,8,8,2,2,1
1528884658251568,1,12,7,-2,0,-1,-1,-1
1528884658265544,1,2,1,-6,-1,0,0,1
1528884658265544,-3,-2,-14,1,1,-2,-1,0
1528884658282486,3,2,-1,-2,-3,-3,-2,-4
1528884658282486,-3,-7,1,-1,-3,0,-1,-2
1528884658283483,0,-6,-4,0,0,-1,1,-1
1528884658283483,0,-3,3,1,-1,1,0,2
1528884658296448,-2,-4,-5,-4,0,0,-1,-3
1528884658296448,-4,-9,-13,-3,2,-2,-2,-11
1528884658302432,1,9,10,2,4,0,1,12
1528884658302432,1,-5,-7,-3,-7,-1,2,-1
1528884658311408,3,1,1,3,2,1,2,10
1528884658311408,2,29,18,0,-3,-3,-4,-6
1528884658325371,9,14,4,5,5,5,-1,-5
1528884658325371,-4,-8,6,-1,0,2,0,2
1528884658334348,-6,-15,-11,-6,1,0,-2,-5
1528884658334348,-9,-19,-23,-2,2,-2,-1,3
1528884658341328,-8,-8,2,0,-1,0,-2,-7
1528884658341328,1,9,10,2,2,2,-1,-1
1528884658355306,-1,-10,-5,-1,-3,-2,0,-1
1528884658355306,3,7,-5,-3,-1,-1,-1,0
1528884658362287,2,4,-1,0,-1,-1,3,3
1528884658362287,-1,-7,1,-3,-7,-7,-3,-6
1528884658372245,-11,-11,0,1,3,0,0,-1
1528884658372245,-5,0,1,-4,-7,-3,2,4
1528884658385211,0,-11,-7,-1,-2,-1,-2,-3
1528884658385211,3,17,1,2,14,1,1,2
1528884658394188,8,21,11,2,-12,-1,1,2
1528884658394188,3,-13,-4,3,4,3,0,2
1528884658400171,-6,-9,-2,-3,-1,1,-1,-1
1528884658400171,0,-7,-13,0,5,-1,-1,0
1528884658415147,-3,-3,2,0,-2,-2,-1,4
1528884658415147,8,7,12,0,-5,4,0,-3
1528884658423110,-5,-4,-8,-4,-5,-5,-2,-3
1528884658423110,-2,-6,-6,2,1,1,-1,-1
1528884658438069,-2,-1,0,0,1,-4,0,-3
1528884658438069,0,-14,-15,-2,-6,-1,-1,-1
1528884658445060,2,33,24,-10,-16,-4,-2,1
1528884658445060,23,26,13,7,6,2,1,-1
1528884658454041,-6,-25,-3,2,6,4,1,-1
1528884658454041,2,16,-3,-2,1,0,-2,1
1528884658460012,-9,-27,-20,-6,3,-7,-1,-6
1528884658460012,-11,-6,-1,3,6,1,1,1
1528884658474972,18,13,5,0,-9,3,1,1
1528884658474972,-7,-10,-1,2,8,-2,0,0
1528884658482951,3,3,-3,-2,-2,-2,-3,-4
1528884658482951,-7,-4,4,-8,-11,-2,-5,-1
1528884658491927,-8,-4,-7,-1,2,3,4,-2
1528884658491927,-6,-5,-3,4,7,-8,-2,0
1528884658504891,-1,-4,-11,-13,-19,-1,-1,-2
1528884658504891,2,-5,7,-2,9,0,-2,-1
1528884658513869,4,20,4,3,2,-3,-1,0
1528884658513869,3,6,29,3,0,1,0,1
1528884658528828,-1,0,-5,8,12,2,2,2
1528884658528828,-7,-25,-11,-5,-12,-3,-2,-2
1528884658534810,-20,-11,-15,-9,-1,-1,-3,-2
1528884658534810,25,54,10,0,2,3,2,1
1528884658542791,3,-5,12,15,15,3,-1,2
1528884658542791,-6,-7,-10,-5,-11,2,1,0
1528884658551765,1,-11,-7,-1,1,-6,-5,-1
1528884658551765,-9,-16,-2,-3,-6,2,1,0
1528884658564730,1,6,-4,-3,3,2,0,0
1528884658564730,-1,6,4,4,3,1,1,-1
1528884658574704,-3,-1,2,-5,-3,-4,-1,-3
1528884658574704,-6,-14,-4,-1,-1,1,-8,0
1528884658588669,0,2,-2,1,3,-2,3,3
1528884658588669,-4,-5,-2,-8,-14,-6,-20,-8
1528884658595648,3,13,10,5,9,3,1,1
1528884658595648,0,-8,-10,-5,-9,1,1,-1
1528884658602632,-2,-5,0,2,1,-5,-5,-1
1528884658602632,-6,-3,-4,-1,-2,-4,5,1
1528884658611613,11,8,2,0,0,0,2,0
1528884658611613,-1,0,7,5,2,3,-1,3
1528884658625568,-2,-7,2,0,2,0,2,-3
1528884658625568,-4,-6,-10,-9,-8,-2,0,-1
1528884658634546,1,4,-9,2,-1,-5,-5,-2
1528884658634546,-8,-11,17,1,-2,-8,1,-1
1528884658648507,4,7,3,5,5,7,-2,0
1528884658648507,6,13,6,-3,-9,0,3,2
1528884658655488,-5,-23,-15,-4,-1,6,-3,0
1528884658655488,-4,1,-11,-4,-1,3,1,-2
1528884658662470,0,6,8,-1,-3,-13,0,-2
1528884658662470,0,-19,-7,2,1,-3,-2,0
1528884658671446,-6,9,0,-5,-3,-2,-1,-3
1528884658671446,11,5,-3,2,-1,-2,-3,-6
1528884658685420,-9,-35,-10,0,0,4,1,5
1528884658685420,-13,22,-8,3,1,4,1,-2
1528884658694391,6,13,34,7,-1,12,-9,1
1528884658694391,9,1,4,4,3,-6,-1,12
1528884658708351,3,6,-4,-5,2,5,22,2
1528884658708351,-7,-30,-16,-8,-2,0,-2,-3
1528884658715329,-8,-9,-22,-6,-1,-4,-1,-15
1528884658715329,7,20,26,7,4,-3,-7,5
1528884658722311,2,23,2,4,-1,8,6,23
1528884658722311,19,-2,2,-2,-3,-1,4,-8
1528884658731285,-8,15,7,-3,0,-3,-4,5
1528884658731285,3,-18,-34,-6,4,8,0,5
1528884658745250,-5,-15,2,-2,-9,-13,-5,-10
1528884658745250,-3,21,26,14,9,6,-10,-5
1528884658754225,19,4,-2,2,3,3,15,2
1528884658754225,-18,-19,-6,-10,-10,-11,9,-6
1528884658768186,4,6,-7,0,0,-1,-8,-4
1528884658768186,-6,-3,-3,0,5,0,-2,3
1528884658775169,8,14,8,5,0,-10,-4,-4
1528884658775169,-8,-12,-7,-7,-1,1,-3,-6
1528884658783148,-5,1,-5,0,-4,1,-5,1
1528884658783148,1,-25,-8,-2,0,-4,3,-4
1528884658798107,-3,12,2,0,-10,2,2,2
1528884658798107,6,12,4,1,2,10,2,-2
1528884658805088,-9,-8,4,-1,-4,-5,-10,-8
1528884658805088,-42,-29,-10,-1,3,4,11,-6
1528884658814064,42,23,2,-1,4,-2,-1,1
1528884658814064,1,-2,-8,-4,-5,-7,-4,22
1528884658837005,9,6,10,5,27,3,-3,-7
1528884658837005,9,23,16,9,-23,-1,3,15
1528884658838003,-20,-19,-7,-9,1,0,0,-4
1528884658838003,-5,-1,-1,8,-7,-4,-1,-10
1528884658842987,1,-5,-10,-10,-6,-2,-3,-5
1528884658842987,-4,8,10,5,20,0,-1,-2
1528884658857947,-3,-5,9,11,-10,-1,-2,-1
1528884658857947,1,-5,-3,-18,-11,1,-1,-7
1528884658864928,-3,-2,-2,-2,10,4,-2,-1
1528884658864928,11,9,-7,9,3,-2,-2,-1
1528884658873903,-3,-3,5,-10,-9,-1,-1,3
1528884658873903,-2,-6,0,19,11,8,2,-1
1528884658888863,-5,-6,-2,-7,-14,3,3,0
1528884658888863,9,8,2,0,3,-12,-2,0
1528884658894847,0,-5,-8,1,16,1,0,2
1528884658894847,-7,-6,-3,-3,4,1,2,-3
1528884658902830,3,4,6,-3,-12,0,-1,-1
1528884658902830,8,4,-4,-4,3,1,-1,2
1528884658917839,-11,-12,-9,1,-4,1,1,0
1528884658917839,-1,1,3,-3,0,-3,-1,-3
1528884658924768,3,4,2,2,-3,-3,-2,-2
1528884658924768,3,1,1,-2,2,5,2,1
1528884658934741,-10,-11,-7,-1,6,-3,0,0
1528884658934741,-2,-2,0,0,4,0,-1,-3
1528884658948705,6,14,19,8,8,1,-1,2
1528884658948705,4,7,1,-12,-20,-3,-1,-1
1528884658955685,-3,-4,0,15,28,0,0,-2
1528884658955685,-3,-11,-9,-3,-1,-2,0,-2
1528884658962668,-13,-26,-21,-5,-3,-1,0,2
1528884658962668,6,22,12,-1,-1,-3,0,1
1528884658977627,0,8,5,-1,-4,-1,-3,0
1528884658977627,8,4,2,3,0,0,-1,-7
1528884658985607,4,-2,0,-4,0,5,1,3
1528884658985607,-3,-10,-8,-1,-9,-5,-2,0
1528884658994582,0,-8,-5,-2,-1,-4,0,0
1528884658994582,-6,1,2,-2,-6,-3,-3,0
1528884659008545,-9,2,-2,-10,-20,-4,-2,-3
1528884659008545,10,-5,-6,0,4,7,0,-1
1528884659015526,-8,-6,-8,-6,3,-1,-4,0
1528884659015526,0,4,10,0,-6,0,0,-2
1528884659022507,2,5,3,5,4,0,-3,1
1528884659022507,-5,0,-2,3,4,-1,1,3
1528884659037467,-4,-4,-3,-5,-8,-5,-1,-1
1528884659037467,-4,-7,-11,-2,7,2,-1,-2
1528884659045446,-2,0,-3,2,1,0,0,-4
1528884659045446,2,4,15,1,3,-4,-2,-2
1528884659054422,13,6,5,2,3,5,2,6
1528884659054422,3,7,-2,-5,-8,-5,-1,2
1528884659068385,-8,-15,-12,-5,-1,-1,-5,-6
1528884659068385,0,-3,-5,4,9,0,6,32
1528884659075366,-6,1,2,-9,-15,-4,-12,-47
1528884659075366,-1,6,9,10,8,3,0,-1
1528884659082347,4,0,-2,1,-5,-1,-1,2
1528884659082347,-6,-8,-7,-8,6,-2,-4,-9
1528884659097308,3,-9,-3,2,-2,-1,0,14
1528884659097308,0,8,-2,-6,-4,-1,1,4
1528884659105286,-7,-1,2,3,5,-5,-3,-11
1528884659105286,-4,-7,-2,0,1,2,-2,0
1528884659114266,13,10,1,-1,4,3,5,8
1528884659114266,0,-1,3,1,-3,-3,-1,-4
1528884659128234,6,-1,-2,1,2,-2,1,4
1528884659128234,-11,-4,-2,-3,-7,3,-1,-5
1528884659135214,-5,3,3,0,5,1,1,3
1528884659135214,1,-5,-3,-2,0,0,0,1
1528884659143192,6,5,1,-1,0,0,2,1
1528884659143192,-4,-4,-8,-5,-2,-2,-3,-6
1528884659157456,-5,-6,5,-1,-11,-2,-2,0
1528884659157456,-1,3,0,0,6,2,1,4
1528884659165436,-3,1,4,7,4,1,0,1
1528884659165436,4,1,-1,-6,-6,-5,0,-7
1528884659174363,-8,-3,-3,-1,-1,-2,2,6
1528884659174363,-9,-8,-3,3,3,1,-3,-5
1528884659188604,8,-3,-4,-1,2,1,3,1
1528884659188604,0,6,3,1,-4,-3,-1,-1
1528884659195307,13,5,2,-3,-2,0,-1,2
1528884659195307,-15,-7,-3,-5,-8,-4,-2,-2
1528884659211488,1,3,1,-4,-3,-1,-3,-1
1528884659211488,-3,-3,-1,2,3,0,0,-3
1528884659218290,1,0,-2,-1,0,-1,0,1
1528884659218290,3,-3,-2,-2,2,2,-2,1
1528884659234442,3,5,-1,-4,1,-4,-3,-1
1528884659234442,1,-8,-1,1,-10,2,0,-2
1528884659235245,-10,-1,-2,-3,-4,-2,-1,0
1528884659235245,9,-1,-2,3,4,-1,0,2
1528884659248447,3,1,0,-8,-12,4,2,0
1528884659248447,-6,-1,3,2,5,-1,-1,-1
1528884659256754,-6,-8,-5,4,1,-8,2,16
1528884659256754,-2,-2,2,1,6,0,4,-16
1528884659271750,-5,0,0,2,15,0,-3,-1
1528884659271750,-2,-3,1,-4,-18,4,0,-9
1528884659278489,4,16,13,1,2,2,-16,-1
1528884659278489,3,2,3,3,0,-4,7,8
1528884659294324,2,-6,-3,-1,-1,3,-1,-1
1528884659294324,-2,-8,-7,-3,4,2,2,7
1528884659295323,-6,-12,-11,-2,1,-1,0,-6
1528884659295323,-7,14,4,-7,-16,-4,-9,-2
1528884659307290,17,10,7,2,1,-1,0,1
1528884659307290,1,0,-3,2,11,0,-4,-1
1528884659316303,-2,-6,0,0,-1,3,1,-10
1528884659316303,-7,-8,-10,-5,9,-1,-2,2
1528884659331435,-10,-5,-3,2,-8,-3,5,4
1528884659331435,3,1,3,-3,-3,-6,-3,-4
1528884659338384,0,-2,-8,-1,0,3,1,-2
1528884659338384,5,2,6,0,-7,-1,1,4
1528884659354413,-2,10,4,3,-1,-1,-1,-3
1528884659354413,-2,-3,-2,2,3,-7,-4,-2
1528884659356163,0,-8,-8,-6,-8,-3,-1,-5
1528884659356163,-4,-2,-4,1,7,4,0,4
1528884659368305,-5,-9,-2,-2,3,-1,-4,-4
1528884659368305,5,11,5,2,-1,5,0,-2
1528884659377341,2,7,7,1,-2,-1,4,5
1528884659377341,2,-3,1,-3,-3,-5,-4,-1
1528884659391306,-7,-10,-4,2,1,0,0,-3
1528884659391306,-5,-2,-9,-1,9,0,0,0
1528884659398412,3,9,12,4,-5,1,0,2
1528884659398412,6,0,3,2,2,0,0,-3
1528884659414303,4,2,0,-4,-4,1,-1,0
1528884659414303,3,-6,-5,-3,2,-6,-2,1
1528884659415305,-10,-12,-13,-7,-7,3,0,-5
1528884659415305,1,4,6,3,1,1,0,0
1528884659429318,-3,1,3,4,4,-2,0,2
1528884659429318,-3,1,-2,-5,-12,-1,-1,0
1528884659435249,15,11,5,6,7,2,2,3
1528884659435249,-2,-4,-4,0,-1,3,1,0
1528884659451584,7,-11,-10,-1,0,-5,-5,-4
1528884659451584,-12,0,1,-2,4,2,1,-1
1528884659457996,2,12,9,2,-4,-3,-2,-4
1528884659457996,2,1,0,2,2,1,1,3
1528884659474912,5,6,4,-2,-8,0,4,3
1528884659474912,0,-6,-6,-1,-3,-4,-3,-4
1528884659475631,-11,-12,-8,-6,-6,-2,2,-2
1528884659475631,6,1,-7,-2,-3,-2,-3,1
1528884659487833,-5,5,8,3,3,2,-1,-1
1528884659487833,3,1,0,-2,1,1,2,4
1528884659496577,-12,-5,-5,6,7,-3,-3,-2
1528884659496577,4,-3,-4,-4,-6,-1,-2,-5
1528884659510538,-4,-1,-5,-3,-1,-3,0,-1
1528884659510538,10,9,6,3,-1,4,1,2
1528884659517514,-5,-6,-2,-2,3,0,-2,2
1528884659517514,-2,0,-3,-3,-3,3,1,-2
1528884659534692,-4,-3,-2,1,-1,-4,-2,1
1528884659534692,3,8,9,2,1,2,1,-1
1528884659535465,-2,-2,-3,-1,1,-1,1,1
1528884659535465,-4,-10,-6,-1,-2,-2,-3,-2
1528884659547675,4,2,1,-3,-6,1,-1,2
1528884659547675,-3,-4,-1,-1,0,-1,-1,-2
1528884659556414,6,-1,1,-3,-1,0,1,-1
1528884659556414,-3,1,-1,1,3,2,0,0
1528884659571704,-3,0,3,3,2,1,-2,0
1528884659571704,15,8,4,3,4,-1,0,3
1528884659578431,0,-6,-4,-9,-14,-3,-2,-2
1528884659578431,1,0,2,0,2,-4,0,1
1528884659594401,-8,-2,-3,-3,-3,-1,-1,-3
1528884659594401,-2,-2,-1,-2,0,-1,-2,-2
1528884659596007,-2,-2,-1,1,4,0,-1,-1
1528884659596007,0,-1,-3,-4,-4,-1,-2,-4
1528884659608121,-4,-3,-3,-5,-5,-2,0,0
1528884659608121,4,2,3,1,-4,-1,-1,1
1528884659616951,0,0,-1,1,3,0,-1,-1
1528884659616951,-2,-1,-1,-1,-6,-1,-1,-3
1528884659631273,1,0,-1,-2,2,-2,-2,1
1528884659631273,-6,-4,-1,-1,-1,-1,-2,-4
1528884659637895,4,4,2,0,-1,0,2,5
1528884659637895,-5,-2,0,2,1,-2,0,-2
1528884659654646,-3,-2,-4,-3,-1,-2,-2,-3
1528884659654646,-3,2,-2,-2,-4,-1,-1,0
1528884659656139,-2,-2,-2,-1,0,-1,-1,0
1528884659656139,0,0,2,0,1,0,0,2
1528884659668393,-4,1,3,1,0,0,0,-2
1528884659668393,5,-1,-3,-2,-2,0,0,0
1528884659677073,-5,3,0,0,1,0,-2,-3
1528884659677073,1,-2,-3,-1,-1,-1,0,0
1528884659691297,-1,0,-1,0,0,-1,0,0
1528884659691297,-4,-3,-2,0,-1,0,-1,-2
1528884659698019,3,0,-3,0,0,-1,0,-1
1528884659698019,-1,-1,-2,-3,-2,-1,-3,-2
1528884659713280,-2,1,1,0,-1,0,0,1
1528884659713280,-1,-2,-2,0,-1,-1,1,-1
1528884659720262,1,-2,0,-1,-1,-1,-1,-1
1528884659720262,1,0,0,0,-2,-2,-1,-1
1528884659728591,-2,-1,0,0,-1,0,-1,1
1528884659728591,0,0,1,-2,0,-1,0,-1
1528884659737218,0,-1,0,0,-1,-2,0,-1
1528884659737218,-3,-2,-2,-1,0,1,0,1
1528884659751543,2,-1,-1,-1,-2,0,-1,-1
1528884659751543,-4,-3,-2,-2,0,-1,-2,-1
1528884659758315,-2,2,0,0,-1,0,-1,-1
1528884659758315,0,-1,0,-2,0,-1,-1,0
1528884659774202,5,4,1,0,-2,0,-3,1
1528884659774202,0,-4,-1,2,1,-1,-2,-1
1528884659780482,-4,-8,-5,-3,-1,-1,0,-2
1528884659780482,-2,0,0,-2,-2,0,2,0
1528884659788081,-1,2,2,3,1,0,1,-1
1528884659788081,-2,0,-1,1,-1,1,-1,1
1528884659797058,1,1,0,2,2,0,-1,1
1528884659797058,-2,-2,-3,-1,-1,-1,-1,-2
1528884659811019,-2,-1,-1,-3,-1,0,0,1
1528884659811019,1,-3,-5,-5,-2,-3,-3,-5
1528884659818003,-2,0,5,2,3,0,-1,1
1528884659818003,0,-5,-5,-4,-3,-1,-3,-6
1528884659834319,-1,-1,-2,-1,-3,-3,-2,-3
1528884659834319,-2,0,-1,0,-1,2,0,1
1528884659841081,-3,-1,-2,-3,-2,-1,1,-3
1528884659841081,3,4,5,1,2,-1,0,2
1528884659847951,-3,-2,-5,-1,4,-1,0,-1
1528884659847951,-2,-8,-6,-5,-10,-3,-1,-2
1528884659856903,-4,-2,-7,-3,-2,0,-1,0
1528884659856903,-2,5,8,6,3,2,1,3
1528884659871099,-2,4,5,1,-2,-2,-1,-2
1528884659871099,1,3,2,2,7,1,2,1
1528884659878082,-6,-20,-9,-4,-5,-1,-2,0
1528884659878082,-1,5,-11,-6,-6,-2,-2,0
1528884659894039,2,14,4,2,0,1,-3,2
1528884659894039,11,10,18,4,2,0,4,2
1528884659900079,-3,6,6,5,5,1,0,0
1528884659900079,-10,-15,-9,-2,-1,-1,0,0
1528884659917021,-1,-14,-10,-4,0,-2,-3,-8
1528884659917021,2,1,-4,-1,1,0,-2,0
1528884659918019,7,7,7,0,-5,-1,0,-1
