timestamp,emg1,emg2,emg3,emg4,emg5,emg6,emg7,emg8
1528440982131202,-6,-3,-2,-11,-7,-3,-1,-3
1528440982131202,-4,2,-1,-12,-9,-2,-6,-3
1528440982138181,-5,-11,-6,-15,-16,-6,2,-4
1528440982138181,-2,11,13,42,37,15,3,3
1528440982147159,10,3,3,7,3,3,3,-2
1528440982147159,-9,1,-3,-6,-5,-1,-3,-4
1528440982157132,4,0,-8,-13,0,1,-5,-6
1528440982157132,8,0,-4,-19,-17,-17,-12,3
1528440982164113,6,17,25,38,22,8,7,17
1528440982164113,-6,-19,-19,-12,-7,-9,-3,-8
1528440982176080,1,9,2,1,0,2,1,6
1528440982176080,-1,-15,-8,20,24,15,10,-1
1528440982183062,-6,-2,-10,-26,-13,-7,-8,-6
1528440982183062,-10,-4,3,6,-1,-1,0,1
1528440982198022,3,-1,11,31,15,2,1,-5
1528440982198022,9,13,-1,-19,-24,-20,-18,-7
1528440982206998,-9,-13,-7,3,17,20,22,3
1528440982206998,-3,4,0,-16,-9,-1,1,-1
1528440982220961,1,-14,-8,-2,0,1,-3,-4
1528440982220961,-6,6,2,-11,-9,5,4,-1
1528440982235920,1,-10,-13,-12,-16,-22,-14,-2
1528440982235920,2,3,-1,-2,2,-2,-1,-4
1528440982242929,1,6,11,27,17,6,2,3
1528440982242929,-3,-5,0,-5,-18,-22,-10,-2
1528440982250880,-12,-6,-8,-22,-10,-1,-6,-17
1528440982250880,14,7,10,15,19,15,20,20
1528440982265841,-7,5,5,20,7,0,-5,-4
1528440982265841,2,-6,-5,-15,-13,-1,5,5
1528440982280828,8,-15,-22,-25,-6,9,12,11
1528440982280828,-1,16,15,2,9,19,16,9
1528440982295762,-3,-10,-12,-7,-14,-15,-7,-1
1528440982295762,1,-3,-1,4,0,4,-6,-4
1528440982304754,-5,7,-10,-35,-30,-26,-12,-4
1528440982304754,-14,-14,-2,10,4,-5,-4,-9
1528440982318727,11,18,24,21,17,22,11,10
1528440982318727,5,5,-7,-17,-8,-7,-5,-2
1528440982325729,-10,-11,1,12,-2,-5,-7,-4
1528440982325729,6,5,-6,-4,-12,-11,-6,-4
1528440982340642,14,5,-10,3,-7,1,0,-1
1528440982340642,-25,-9,6,8,9,7,-3,-5
1528440982355600,23,14,-4,-28,-33,-16,-1,6
1528440982355600,-8,-4,2,39,32,13,4,1
1528440982370560,-2,3,-3,-21,-13,-12,-9,0
1528440982370560,-14,-34,-29,-13,-5,-2,-6,-12
1528440982385520,-6,-3,1,-7,-4,-3,2,1
1528440982385520,4,2,-1,-15,-12,-6,-4,-5
1528440982393499,-6,19,16,12,16,9,8,3
1528440982393499,24,24,17,7,6,4,5,9
1528440982415440,-6,-17,-8,-19,-9,-8,-7,-3
1528440982415440,-1,1,15,21,17,8,3,2
1528440982423424,3,6,5,7,-5,-1,-2,0
1528440982423424,1,-1,0,18,23,14,8,1
1528440982430439,-2,1,-7,-19,-15,-5,-1,-1
1528440982430439,-1,-6,-4,6,4,-1,-2,0
1528440982438380,-7,-12,-11,-23,-17,-10,-5,-4
1528440982438380,17,0,-7,-6,-10,-7,-4,2
1528440982445397,-3,4,13,17,20,12,6,1
1528440982445397,-5,2,-1,-11,-11,-7,-4,-4
1528440982460320,-2,-2,0,6,9,1,-2,-4
1528440982460320,-7,-4,-3,-9,-8,-5,-3,0
1528440982468299,-1,-6,-11,-10,-5,-7,-3,-5
1528440982468299,-10,4,5,-3,-6,-3,-5,-5
1528440982483259,8,-6,9,12,7,5,6,6
1528440982483259,0,1,-11,-11,-2,-3,-5,-8
1528440982491238,2,-3,4,2,-5,-1,-2,3
1528440982491238,9,15,-1,-8,-7,7,4,2
1528440982498221,-11,-11,-8,-14,-2,-9,-3,1
1528440982498221,-4,-3,5,16,6,1,-5,-6
1528440982506257,-11,-10,7,18,18,9,2,-2
1528440982506257,2,1,-10,-8,-8,-6,-2,-1
1528440982521158,2,4,3,0,1,6,1,-1
1528440982521158,-10,-3,-4,-20,-16,-10,-4,-1
1528440982528139,9,13,-1,-14,-12,-7,-7,-5
1528440982528139,-5,-7,15,42,37,10,5,0
1528440982543099,-3,-2,-13,-32,-26,-12,-1,-1
1528440982543099,5,0,14,33,25,17,6,7
1528440982551077,-7,-3,-9,-11,-6,-2,-5,-7
1528440982551077,1,-4,-3,-5,-12,-12,-4,-4
1528440982558061,8,5,-2,8,10,6,7,2
1528440982558061,-3,0,4,-14,-15,-13,-6,-3
1528440982566040,-2,3,4,12,1,4,1,5
1528440982566040,-3,-7,-15,-21,-2,8,10,2
1528440982580998,-4,0,-2,-7,-18,-23,-14,-9
1528440982580998,-2,0,-1,-10,1,11,9,0
1528440982587979,8,6,5,26,5,-6,-6,1
1528440982587979,-10,-4,0,1,4,2,-2,-4
1528440982602940,-15,-3,0,4,1,0,-7,1
1528440982602940,21,8,-3,-16,-15,-6,8,4
1528440982610929,-3,0,4,9,12,5,1,5
1528440982610929,14,4,-5,-3,-6,2,1,-3
1528440982617953,-3,0,3,6,8,9,9,3
1528440982617953,-15,-9,1,12,0,-6,1,-1
1528440982625932,11,3,-5,-21,-14,-2,0,0
1528440982625932,0,5,3,6,2,2,2,2
1528440982640844,3,0,6,8,4,3,-2,-1
1528440982640844,-9,-9,-5,-3,-2,-2,-9,-8
1528440982647819,-2,-2,-10,-24,-21,-18,-2,-3
1528440982647819,2,2,12,25,26,21,11,7
1528440982663835,-4,-1,-3,-3,-3,-2,-1,-11
1528440982663835,-8,-1,-2,-1,-1,-4,-2,2
1528440982670758,4,-1,2,-1,13,14,7,1
1528440982670758,-4,-4,-8,-21,-29,-21,-11,-2
1528440982678861,-16,-5,-4,-3,-2,-6,1,-4
1528440982678861,16,9,-4,-3,-2,3,-7,-2
1528440982685845,-5,3,3,6,9,1,1,-3
1528440982685845,-4,-7,-10,-13,-15,-15,-17,-6
1528440982700805,7,4,3,7,9,14,14,5
1528440982700805,-11,-2,0,1,-6,-6,-9,-4
1528440982707824,-7,-13,-10,-17,-10,-9,-5,-4
1528440982707824,-2,-2,7,27,16,-4,-7,-2
1528440982722818,2,-3,-5,-6,3,13,6,0
1528440982722818,-2,-2,3,6,7,0,-4,-2
1528440982730726,-10,-6,0,2,-5,2,3,0
1528440982730726,8,-2,-12,-23,-13,-8,-3,-3
1528440982738750,1,6,3,3,0,-1,-3,2
1528440982738750,0,-4,-2,0,-3,-4,2,-2
1528440982745696,-9,0,-3,9,9,1,-1,-5
1528440982745696,4,-5,-3,-14,-19,-14,-13,-7
1528440982760646,2,2,-7,-7,-4,-6,-6,0
1528440982760646,-1,1,-3,-13,-8,-3,1,-2
1528440982768770,7,8,18,45,32,16,1,3
1528440982768770,-10,-8,-5,-8,-7,1,4,2
1528440982783584,1,-6,-6,-7,-5,-12,-5,-1
1528440982783584,5,3,-6,-19,-6,0,-1,1
1528440982790605,-5,-7,0,10,3,-6,-12,-10
1528440982790605,-4,3,5,3,4,11,19,5
1528440982798858,-4,5,8,18,19,14,3,2
1528440982798858,8,-5,-11,-27,-30,-24,-12,-5
1528440982805779,-1,15,21,61,55,32,17,9
1528440982805779,9,-5,-6,-16,-15,-7,-7,-2
1528440982828808,14,10,3,4,3,-1,-6,2
1528440982828808,-8,0,-4,-2,2,2,2,-1
1528440982835650,2,-6,-3,-17,-13,-6,0,1
1528440982835650,-8,-8,-5,-14,-7,-10,-8,-4
1528440982850747,-8,-6,-3,3,-10,-12,-11,-7
1528440982850747,4,9,6,8,21,21,10,7
1528440982858585,-1,-9,-5,-11,-23,-13,-5,-5
1528440982858585,-5,-3,-3,5,6,6,0,0
1528440982865706,4,1,-2,-26,-12,-6,-3,-2
1528440982865706,-10,-2,4,12,-7,-6,-4,-5
1528440982873675,-3,-12,-17,-24,-13,-7,0,-3
1528440982873675,-1,8,-2,6,2,3,2,1
1528440982880653,-6,-3,0,2,-3,-5,-5,-2
1528440982880653,12,-4,15,18,17,8,1,0
1528440982888664,3,7,-2,-24,-21,-5,1,1
1528440982888664,-4,-8,-8,-3,-4,-3,-3,-2
1528440982903466,-3,-4,-6,-5,-3,-1,-4,-4
1528440982903466,-7,11,2,0,0,1,1,0
1528440982911474,3,-8,-8,-15,-14,-11,-3,-3
1528440982911474,-2,0,0,2,1,1,-1,-2
1528440982918583,-11,-5,3,3,2,1,0,-3
1528440982918583,16,5,-5,-1,0,-1,0,4
1528440982925410,-10,-9,-5,-4,-5,-2,-5,-7
1528440982925410,6,4,-4,-8,-3,-1,-1,2
1528440982940366,4,-6,5,5,1,4,3,3
1528440982940366,-10,-4,-1,5,0,-3,-2,-5
1528440982948380,9,15,1,-9,-1,1,1,3
1528440982948380,-5,-10,-1,-1,3,-1,-1,-3
1528440982963360,-14,-5,-3,1,-3,-5,-3,-5
1528440982963360,2,-2,-2,-1,3,0,-2,1
1528440982971333,11,9,4,0,-1,-1,2,4
1528440982971333,-3,0,1,-2,2,1,-1,-1
1528440982978267,1,0,-5,-7,-4,-5,-3,0
1528440982978267,-14,-17,4,2,-1,-2,-4,-5
1528440982985376,1,6,-2,3,4,-1,-5,-1
1528440982985376,1,0,4,11,7,9,7,3
1528440983001371,1,-3,-3,1,2,2,1,-2
1528440983001371,-18,-10,-4,-8,-12,-11,-9,-5
1528440983008344,13,1,-5,-3,5,2,-1,-2
1528440983008344,-2,2,2,-11,-4,-6,0,0
1528440983023292,2,-1,-4,3,-5,1,-1,-1
1528440983023292,-3,0,2,13,12,5,3,-1
1528440983038310,-10,-6,-4,-7,-13,-15,-10,-6
1528440983038310,7,2,1,2,-2,-2,0,1
1528440983046326,-3,-1,-6,-14,-3,-6,-11,-4
1528440983046326,2,2,1,0,0,11,17,3
1528440983060288,-3,-4,3,4,-3,-1,3,2
1528440983060288,-13,-8,-4,-7,0,-9,-8,-6
1528440983068268,8,1,0,4,0,6,1,2
1528440983068268,5,0,-4,-5,-8,-6,-2,-2
1528440983083228,-13,-9,7,7,1,0,-3,-7
1528440983083228,16,11,1,9,1,-10,-12,2
1528440983106167,6,8,2,13,19,9,1,3
1528440983106167,5,3,1,5,9,22,15,6
1528440983121184,-2,-3,-2,-4,-10,-13,-9,-2
1528440983121184,-2,1,3,0,-4,-2,-3,-6
1528440983128162,2,4,-3,-8,-8,-1,6,4
1528440983128162,-7,0,-8,-17,-12,-18,-13,-4
1528440983143123,2,6,5,17,19,8,4,4
1528440983143123,-6,-4,0,-3,-8,-12,-19,-4
1528440983151098,7,4,1,4,7,16,19,7
1528440983151098,-10,-5,-6,-12,-7,-12,-16,-11
1528440983158073,11,6,0,-5,4,6,8,10
1528440983158073,-6,-8,-5,4,-2,3,-2,-5
1528440983172989,-2,-5,5,1,-5,2,1,3
1528440983172989,-18,-5,4,13,9,3,-2,-3
1528440983181019,18,8,-3,-8,-7,-9,-11,-6
1528440983181019,-2,0,-4,-8,-9,-5,3,-1
1528440983195982,-4,-9,-4,-9,-7,-8,-5,1
1528440983195982,-2,1,-3,-2,1,-4,-1,-3
1528440983202909,-9,-8,-5,-10,-2,1,0,-1
1528440983202909,-3,-3,4,15,10,-2,-5,-2
1528440983217922,-3,4,-3,3,0,-7,-7,-7
1528440983217922,-6,-4,-2,-4,0,-1,0,-1
1528440983232881,4,5,-3,-15,-10,-9,-9,-2
1528440983232881,8,4,1,-2,-2,3,1,-4
1528440983240808,-4,-4,11,37,30,10,5,4
1528440983240808,2,0,-4,-8,-6,-1,-3,6
1528440983255804,-7,-2,-2,0,1,-1,0,-3
1528440983255804,4,4,4,14,28,18,5,2
1528440983263762,-3,-2,0,-9,-17,-10,-4,-4
1528440983263762,-4,-3,-2,0,-1,-5,-3,-4
1528440983278705,-2,0,2,6,9,5,3,1
1528440983278705,2,1,2,3,1,3,2,1
1528440983293665,4,1,0,0,0,3,3,1
1528440983293665,-3,-1,-3,-1,-2,-4,-4,-8
1528440983300646,-2,-4,-4,-9,-13,-5,-2,1
1528440983300646,-8,-6,-5,-10,-8,-3,-1,-1
1528440983315608,0,-1,-1,5,4,-3,-3,-4
1528440983315608,4,4,0,-2,-6,-5,-3,-2
1528440983323586,-2,-4,2,4,2,-1,0,-1
1528440983323586,4,1,0,3,2,5,4,1
1528440983338547,-2,-8,-5,-11,-11,-9,-7,-5
1528440983338547,-4,-2,0,0,0,-1,2,1
1528440983353536,0,3,2,4,5,1,-1,1
1528440983353536,-6,-5,-1,-2,-4,-2,0,-1
1528440983360487,2,1,-4,-4,-4,-2,-1,-1
1528440983360487,1,-1,-1,0,0,2,-2,-3
1528440983375447,0,2,1,-1,0,2,1,3
1528440983375447,3,4,3,1,4,0,-1,0
1528440983383427,-5,-3,-2,-3,-5,-5,-4,-4
1528440983383427,0,-1,-1,-14,-7,-4,1,0
1528440983398525,-4,-8,4,25,10,1,-1,-4
1528440983398525,2,-1,-3,-7,-3,0,-2,2
1528440983413348,1,-1,-2,-9,-7,-5,-3,0
1528440983413348,0,3,6,3,1,-1,2,0
1528440983421354,-7,-10,-10,-16,-8,-7,-4,-4
1528440983421354,-1,3,1,5,2,1,0,-1
1528440983435871,0,-3,-3,-5,-2,-3,0,-2
1528440983435871,-5,-1,1,-1,-2,-1,-1,-1
1528440983443855,6,4,-1,-9,-5,-2,-1,2
1528440983443855,-1,-2,-3,2,3,-1,2,-1
1528440983458781,1,1,0,-5,-2,0,0,-1
1528440983458781,-2,-1,0,-1,-3,-3,-1,-2
1528440983465760,-6,-5,-6,-2,-2,0,0,-2
1528440983465760,-2,-5,0,1,1,0,-1,-1
1528440983480864,0,3,0,-3,-4,-5,-5,-2
1528440983480864,-4,-5,-3,-2,-1,2,2,0
1528440983488845,-1,2,-2,-4,-4,-3,-6,-4
1528440983488845,0,0,-3,-3,-2,-3,4,-1
1528440983503885,1,3,3,1,-1,-3,-2,1
1528440983503885,3,3,2,3,3,2,0,0
1528440983518827,0,-1,-3,-1,1,4,4,0
1528440983518827,-1,-3,0,-1,-3,-4,-1,0
1528440983525671,-1,1,4,0,1,-2,0,-2
1528440983525671,-8,-12,-10,-2,0,-3,-11,-7
1528440983541183,0,-3,0,1,1,5,9,5
1528440983541183,-2,0,-3,-2,-2,-1,-6,-3
1528440983548272,1,1,-2,-6,-6,-6,-1,1
1528440983548272,2,9,9,3,-1,-3,-1,-1
1528440983563416,-3,-5,-5,-6,-9,-9,-8,-3
1528440983563416,3,6,5,2,2,5,3,3
1528440983578511,-1,0,-3,-4,2,0,0,-1
1528440983578511,1,-3,-1,8,10,14,10,4
1528440983585496,-1,0,1,-2,0,-2,-5,-3
1528440983585496,2,-2,-2,0,-1,-1,1,3
1528440983600747,-2,-2,-1,-4,-9,-14,-10,-6
1528440983600747,2,1,-6,-5,-2,0,0,1
1528440983608596,-2,0,2,-1,-2,1,-3,-1
1528440983608596,-4,-3,-3,1,-1,-2,6,0
1528440983623716,2,0,-1,2,2,2,5,2
1528440983623716,-2,-5,-5,-6,-1,2,-1,-3
1528440983638674,-3,0,-2,-3,-1,-1,-7,-4
1528440983638674,-2,-2,-1,-3,-6,-9,-7,-3
1528440983645660,-1,-2,-3,0,-5,-10,-2,-2
1528440983645660,3,5,5,2,3,-1,1,1
1528440983660458,2,1,2,3,7,15,7,3
1528440983660458,-1,1,0,0,-4,-1,-1,-2
1528440983668439,1,3,4,-1,-6,-7,-2,-1
1528440983668439,0,-4,-2,3,4,8,1,-2
1528440983691378,-3,-5,-3,0,-1,-2,-1,-1
1528440983691378,1,0,-1,-2,-4,-3,2,2
1528440983706335,-2,-2,0,-2,-5,-9,-4,-2
1528440983706335,-2,0,1,-1,-3,-5,-5,-1
1528440983713317,-2,-3,-5,-5,0,-1,0,-2
1528440983713317,-1,1,2,0,-2,-3,-2,-2
1528440983728281,-1,-4,-3,-4,-1,-3,-2,-1
1528440983728281,0,0,-3,-1,-2,-5,-3,-2
1528440983743399,1,1,3,3,3,4,3,3
1528440983743399,-4,-5,-3,-5,-1,-2,-2,-1
1528440983758334,-2,-3,-1,-1,0,3,0,-2
1528440983758334,-1,-2,-2,-1,-3,-3,-2,-2
1528440983773302,0,-1,-4,0,-1,-4,-2,-3
1528440983773302,-1,3,8,0,0,-2,-1,0
1528440983781165,-1,-2,-2,-3,2,2,-1,-1
1528440983781165,-2,-1,3,1,-3,-3,-2,-1
1528440983796097,0,0,-6,-4,-1,-3,-1,-3
1528440983796097,-1,-2,2,0,-2,-1,-2,-1
1528440983803265,-2,-3,-2,-2,-1,1,1,0
1528440983803265,0,0,1,-2,0,-1,-3,-2
1528440983818225,0,1,2,-1,0,-1,1,-1
1528440983818225,-3,-5,-8,-3,-1,-2,-1,-1
1528440983826204,-2,-3,-4,-1,-1,1,0,-2
1528440983826204,0,1,-3,-1,-3,-1,-1,-1
1528440983841349,-1,-1,2,-1,-1,-3,-1,-1
1528440983841349,-1,-3,-6,-2,-1,-1,-2,0
1528440983848334,-1,0,1,-1,-2,0,0,-1
1528440983848334,-2,-3,-4,-3,-2,-2,-1,0
1528440983863490,-1,0,-2,-1,-1,1,0,-1
1528440983863490,0,-2,0,-1,-2,-1,-3,-2
1528440983878874,0,-2,2,0,-2,0,-1,0
1528440983878874,0,-2,-3,-2,-1,-2,-1,-2
1528440983885765,-2,-2,-2,-2,-1,-2,-1,-1
1528440983885765,-2,-1,-2,-1,-2,0,-1,0
1528440983901079,-3,0,1,1,0,-1,-2,-1
1528440983901079,-2,-2,-3,-1,-1,-2,-2,-2
1528440983907907,0,0,-2,-1,0,0,-1,-2
1528440983907907,-2,1,2,-1,-3,-2,-2,-2
1528440983923862,-2,0,-2,-1,0,-1,-1,-1
1528440983923862,-2,-1,-1,-1,0,-1,-1,1
1528440983937825,-1,0,0,-1,-1,0,-2,-1
1528440983937825,-1,-4,-3,0,-2,0,0,-2
1528440983945811,0,-2,0,1,-1,0,-1,-1
1528440983945811,-1,0,-2,-2,1,-1,-1,-1
1528440983960767,0,-1,0,0,-1,1,1,0
1528440983960767,-1,-1,-2,0,0,-1,0,1
1528440983968885,-3,-1,0,-1,-1,0,0,-2
1528440983968885,-1,-1,-2,1,0,-1,-1,0
1528440983983871,0,-1,-1,-1,-1,0,-1,-1
1528440983983871,-1,-2,-3,-2,-2,0,0,-2
1528440983990875,0,-2,-3,-1,0,-2,-2,0
1528440983990875,-1,-1,-1,0,0,-1,-1,0
1528440984005826,-1,-1,-1,-2,0,-1,-1,-1
1528440984005826,0,1,0,-1,-3,0,-1,-1
1528440984020784,0,0,-2,-1,-1,-2,-1,0
1528440984020784,-2,-1,-1,-2,0,-1,0,1
1528440984028842,-1,-2,-1,-1,-2,0,-1,1
1528440984028842,1,0,0,-2,-2,-1,0,-2
1528440984043868,-1,-2,1,-1,-2,-1,-2,-2
1528440984043868,0,1,-1,0,-2,-1,0,-1
1528440984050839,-1,0,-2,0,-2,0,-2,-3
1528440984050839,-2,-2,-2,-1,-2,-3,-1,-2
1528440984065662,-1,-1,-2,1,0,-1,-2,1
1528440984065662,-1,-2,0,0,0,0,0,0
1528440984088287,0,0,-2,0,0,0,0,-1
1528440984088287,0,-2,-1,-3,0,-3,-1,-1
1528440984096338,-1,0,-1,-1,-1,0,0,0
1528440984096338,-2,-1,0,-1,-1,-2,0,0
1528440984111146,-2,-2,-2,0,-1,-1,-3,0
1528440984111146,-2,-1,-3,-1,-1,-2,-2,-2
1528440984118262,-1,-2,-2,-3,-2,-1,-2,-1
1528440984118262,1,-1,-1,-1,-1,0,-2,-2
1528440984126106,-1,-1,0,0,0,-2,0,-1
1528440984126106,0,0,1,-1,-1,1,-3,-1
1528440984141221,-3,-1,0,-1,-1,0,0,-1
1528440984141221,-2,-1,-1,0,-1,0,-2,-1
1528440984148046,0,-2,-1,-1,-1,-1,0,-1
1528440984148046,-1,-2,-1,-1,1,0,0,0
1528440984163006,-1,-1,0,-2,-1,-1,0,0
1528440984163006,0,-1,-1,-1,-1,-1,1,-1
1528440984171123,1,-1,-2,-2,0,-1,0,0
1528440984171123,-1,-1,-2,0,0,-1,0,-1
1528440984185942,-3,-1,-2,-1,0,-2,-1,-1
1528440984185942,-1,0,-2,-2,-1,-1,-3,-2
1528440984200903,1,-1,0,-1,0,0,-1,-1
1528440984200903,-2,0,0,0,-2,0,-1,-1
1528440984208910,0,0,0,-1,-2,0,-1,-2
1528440984208910,-2,-1,-2,-2,-1,-1,0,0
1528440984223203,-2,-2,-1,0,-1,0,-1,-2
1528440984223203,-1,0,-3,0,-2,-2,-1,-2
1528440984231180,0,-1,0,0,-1,-1,-2,0
1528440984231180,-1,-1,-1,-1,-2,0,2,-1
1528440984246309,-2,-1,-3,-2,-2,0,0,-1
1528440984246309,-1,-2,-1,-1,-1,-1,-3,-1
1528440984261428,-1,0,-1,-1,-2,-2,-1,0
1528440984261428,-1,-1,-2,-2,0,0,-2,0
1528440984268449,-1,-2,0,0,-2,0,-2,-2
1528440984268449,0,-1,-1,0,-2,0,-1,-1
1528440984283406,0,-2,-2,-2,-1,-1,0,0
1528440984283406,0,-1,-1,0,-2,0,-1,0
1528440984291361,-2,-2,0,0,-1,-1,0,-2
1528440984291361,-1,0,0,-1,-1,-2,0,-1
1528440984306189,0,0,-1,-2,-1,-2,-2,0
1528440984306189,-1,-2,-2,-1,-1,-2,-2,-1
1528440984320778,-1,-1,-1,-3,-1,-2,-1,0
1528440984320778,-1,-2,0,0,0,-2,0,-1
1528440984328768,-1,-2,-3,-1,0,-2,-1,-2
1528440984328768,-2,-1,1,-1,-1,-1,1,0
1528440984343911,1,0,-3,1,-1,-1,0,0
1528440984343911,-2,-1,-2,0,-1,-2,-1,0
1528440984351207,0,-1,0,-1,-2,-1,-1,0
1528440984351207,0,0,-1,0,-2,1,0,-2
1528440984365500,0,0,-1,-2,-1,0,1,-2
1528440984365500,-2,-2,-1,0,-2,-1,-1,-3
