timestamp,emg1,emg2,emg3,emg4,emg5,emg6,emg7,emg8
1528186127499884,-2,-1,0,0,-1,0,-1,-1
1528186127499884,0,-1,-2,-1,-1,-1,-2,0
1528186127511852,-1,-1,0,0,1,-1,-1,-1
1528186127511852,-1,-1,0,-1,-2,-1,0,1
1528186127520828,-1,-1,1,0,0,-1,1,-1
1528186127520828,-2,-1,-2,0,1,1,0,-1
1528186127535788,0,-1,1,-1,-1,-1,-1,-1
1528186127535788,0,0,-1,0,0,-1,-1,-1
1528186127536785,0,0,-2,0,0,1,-1,-1
1528186127536785,-1,-1,0,-1,0,-2,1,-1
1528186127557730,-1,0,0,0,-1,-1,-1,0
1528186127557730,0,-1,0,0,1,-1,0,1
1528186127559724,0,-1,-2,-2,0,-1,-2,-1
1528186127559724,1,0,-1,0,-2,-1,-1,-1
1528186127571692,0,-1,-1,0,-2,-1,-2,-2
1528186127571692,-1,-3,-1,-1,-1,-1,-2,-2
1528186127580668,-1,-1,0,0,1,1,1,0
1528186127580668,0,0,1,0,0,-1,1,-1
1528186127595628,0,-2,0,-1,0,0,-1,0
1528186127595628,-1,0,0,-1,-2,-1,-2,-2
1528186127597622,1,-2,-1,-1,-1,-1,-2,-2
1528186127597622,0,0,0,-1,-1,-2,-1,-3
1528186127617569,0,-1,-2,0,-1,-1,0,-1
1528186127617569,0,-1,0,-2,-1,-1,0,0
1528186127619568,0,-2,-2,0,-1,0,0,0
1528186127619568,1,1,-1,1,2,-1,-1,0
1528186127631531,-1,-1,0,-1,1,-1,0,1
1528186127631531,-1,-2,-1,-2,0,1,1,1
1528186127640508,-1,-1,1,-1,0,-2,-1,0
1528186127640508,0,-3,-1,-1,0,0,-3,-2
1528186127654470,-2,0,0,0,0,0,-1,-1
1528186127654470,-1,-2,0,-1,1,-2,0,-3
1528186127661454,0,0,1,-1,-1,-2,0,-2
1528186127661454,-1,-1,-1,0,-1,0,0,2
1528186127678406,-1,-1,-1,-1,-1,-1,0,-1
1528186127678406,0,-1,-1,0,0,0,0,-1
1528186127679404,-1,-1,0,-1,-1,0,-2,-1
1528186127679404,-1,-1,1,0,-3,0,-1,0
1528186127701572,-1,0,-2,1,0,-1,-1,-1
1528186127701572,0,1,0,1,-1,-1,-2,0
1528186127702362,0,-1,-2,-2,0,-2,1,-1
1528186127702362,0,0,-1,-3,-1,-1,-1,1
1528186127715340,-1,-2,-1,0,-1,-2,-1,1
1528186127715340,0,-1,-1,-1,0,-1,0,1
1528186127721292,0,0,1,1,1,-1,-2,-1
1528186127721292,0,0,0,0,0,1,-2,-1
1528186127738246,-1,0,-2,0,-1,0,0,-1
1528186127738246,-2,-2,-3,-1,-1,-1,0,1
1528186127739244,-3,0,-2,0,0,-1,-1,1
1528186127739244,-1,-2,-1,0,-2,-2,0,-2
1528186127751232,0,-2,-1,0,0,-1,0,0
1528186127751232,0,0,1,1,0,0,-1,0
1528186127760188,-1,-1,0,0,-1,0,1,0
1528186127760188,-1,0,-2,2,-1,-1,2,-1
1528186127775183,-1,0,-1,-2,0,0,-1,-1
1528186127775183,-1,-1,0,1,0,0,-1,-1
1528186127782137,1,1,-1,0,0,-1,0,-1
1528186127782137,0,-2,-2,-1,-1,-1,0,0
1528186127798099,-1,0,1,1,0,-1,0,0
1528186127798099,-1,-1,0,-1,0,-1,-1,-1
1528186127800123,-1,-1,-1,-2,-3,0,0,-1
1528186127800123,-1,-1,0,0,0,-1,1,-1
1528186127820056,0,-1,-1,0,-2,-1,1,0
1528186127820056,1,-1,0,-1,0,-1,-1,1
1528186127822023,0,-1,0,-1,0,1,1,-1
1528186127822023,-2,0,-2,-2,0,1,-1,-1
1528186127835014,1,0,-1,-1,-1,0,-1,0
1528186127835014,-1,-1,-2,-1,-2,-1,1,0
1528186127848952,0,-2,-1,0,-2,-2,-3,-1
1528186127848952,-1,1,0,0,-2,-3,-2,0
1528186127857927,-2,-1,1,-2,1,0,0,-1
1528186127857927,0,0,0,1,0,0,-1,-2
1528186127859925,-1,0,-2,-1,0,-1,-1,-2
1528186127859925,1,-1,-1,0,0,-2,-2,0
1528186127880915,0,-2,-1,1,0,-1,-3,-1
1528186127880915,-1,-1,-1,-1,-1,-1,0,0
1528186127881864,-1,0,-2,1,0,-1,0,-1
1528186127881864,-1,-2,0,-2,0,0,-1,-1
1528186127902847,-1,-1,-2,-1,-1,-1,0,0
1528186127902847,-2,-2,-2,0,0,-1,0,0
1528186127904802,1,-1,-1,1,-1,0,-1,-1
1528186127904802,0,0,-1,0,-2,0,-2,1
1528186127925945,-1,0,0,-1,-2,-1,0,0
1528186127925945,-1,0,1,0,-1,-1,0,-2
1528186127931756,-1,-1,0,-1,0,-1,-1,0
1528186127931756,0,0,-1,-2,1,0,3,-2
1528186127940705,-1,-3,-2,-1,1,-1,-1,-1
1528186127940705,1,0,-1,-2,-1,0,0,0
1528186127941722,-1,-1,-1,0,-1,-1,-1,-1
1528186127941722,-2,-1,-1,-1,0,-1,-1,0
1528186127954679,-2,-2,0,1,0,-1,-1,-2
1528186127954679,-1,-1,-1,0,-1,-1,-2,-1
1528186127962673,-1,-1,-2,0,-1,-2,0,0
1528186127962673,1,0,0,-1,0,0,0,0
1528186127977624,1,0,-2,0,0,-1,-1,-2
1528186127977624,-1,-1,-1,-2,0,0,-2,0
1528186127979616,0,-1,1,0,-1,-1,1,-1
1528186127979616,-1,-1,0,0,-1,0,1,0
1528186128000583,-1,-1,-1,-3,-1,-1,1,0
1528186128000583,-1,-1,-1,0,-1,0,1,1
1528186128002545,-1,0,-1,-2,-1,-2,-2,0
1528186128002545,0,0,0,0,1,0,-1,-2
1528186128014508,0,0,1,0,1,1,2,0
1528186128014508,-1,-2,-3,0,0,-1,-1,-2
1528186128023486,-2,-2,0,0,-1,-2,0,-1
1528186128023486,0,-1,1,0,-2,0,-1,1
1528186128038672,-1,0,-1,-1,0,-2,-1,1
1528186128038672,0,0,1,0,0,0,1,0
1528186128039442,0,-2,0,-1,-1,0,-2,-1
1528186128039442,0,-2,-1,0,0,0,-1,-2
1528186128060388,1,-1,-1,-1,-3,0,-1,-2
1528186128060388,0,0,-1,-1,-1,0,-1,0
1528186128062382,-2,-1,2,-1,0,0,-2,0
1528186128062382,0,-1,0,-1,0,-2,0,1
1528186128074348,-1,-1,0,0,1,-1,0,0
1528186128074348,-1,-1,0,1,-1,0,-1,-2
1528186128083324,-2,1,0,0,-1,-2,-1,-1
1528186128083324,0,0,0,-1,1,2,-1,-1
1528186128098284,-1,0,-1,-1,0,0,0,0
1528186128098284,-2,-1,0,-3,-1,-2,0,0
1528186128099537,1,0,-1,-1,0,0,0,1
1528186128099537,0,-2,-1,0,1,-2,1,0
1528186128121388,-1,0,1,-1,0,-1,1,1
1528186128121388,1,-1,0,-1,-1,-1,-1,-1
1528186128122227,-2,-1,-1,-1,0,0,0,0
1528186128122227,-1,-1,0,-1,0,-3,0,-1
1528186128134223,0,0,0,-1,-1,2,-1,0
1528186128134223,-2,0,0,-2,-1,0,0,0
1528186128143194,-1,-1,1,-2,-1,0,0,-1
1528186128143194,-1,1,-1,-1,-1,-1,-2,-1
1528186128158369,-1,0,0,-1,0,0,-1,-2
1528186128158369,-1,-1,-1,-1,0,-1,-2,-1
1528186128160131,-1,0,-1,-1,-2,0,-2,0
1528186128160131,-1,-2,-1,0,-1,-1,-1,-1
1528186128181063,0,-1,1,2,-1,-1,0,-1
1528186128181063,0,-1,-2,2,0,-1,-1,-1
1528186128182061,0,0,0,-1,0,-1,0,0
1528186128182061,-2,-2,-1,0,-1,-1,0,1
1528186128194128,0,0,-2,-1,0,-1,-1,-1
1528186128194128,0,0,-2,-1,-1,-1,0,-2
1528186128203114,-1,1,-2,1,0,0,-1,-2
1528186128203114,0,0,0,-2,-1,-2,-1,0
1528186128218477,-1,1,0,-2,-1,-2,-2,0
1528186128218477,0,-1,0,0,0,-1,-1,0
1528186128220407,0,-1,-1,0,0,-2,0,-1
1528186128220407,-3,0,0,0,0,1,-2,0
1528186128241278,0,0,-2,-1,0,0,0,-1
1528186128241278,0,0,1,-1,-1,0,0,0
1528186128241999,0,-1,-1,1,-1,-1,0,0
1528186128241999,-1,-2,-1,0,0,2,-1,1
1528186128253970,-1,-1,0,-1,-1,0,0,1
1528186128253970,0,-3,-1,-1,-1,0,0,1
1528186128270922,0,-1,-1,-2,-2,-1,0,-1
1528186128270922,0,1,-2,0,0,0,0,-1
1528186128277905,0,-2,-1,1,-1,0,0,0
1528186128277905,0,1,1,0,-1,-1,0,1
1528186128279899,-2,0,0,-2,1,0,0,-2
1528186128279899,-1,1,0,0,-1,-1,-1,0
1528186128300160,-1,-1,-2,-1,-2,-1,0,-1
1528186128300160,0,-1,-2,-1,-1,-1,0,-1
1528186128302156,0,0,0,-1,-1,0,0,-1
1528186128302156,-1,-1,2,0,0,-1,1,-1
1528186128314088,0,0,0,1,-1,-1,-1,0
1528186128314088,0,-2,-1,0,0,1,-1,1
1528186128331053,-1,0,-1,-1,-1,-1,1,1
1528186128331053,-1,-1,0,1,0,0,-1,0
1528186128353284,-2,-1,0,2,-1,1,0,0
1528186128353284,0,1,0,0,0,-1,-1,-1
1528186128355224,0,-1,-2,-1,-1,1,-1,-2
1528186128355224,0,0,0,0,0,-2,-1,-2
1528186128360100,-1,-1,-1,-1,0,-2,0,-1
1528186128360100,-3,0,-1,-1,0,-1,0,-1
1528186128366948,-1,0,0,0,-1,-1,0,0
1528186128366948,-1,-1,-2,-2,0,-3,2,0
1528186128383442,0,-2,0,-2,-1,-1,-1,-3
1528186128383442,-1,-1,0,-1,0,-2,-1,-2
1528186128385288,1,0,-1,0,0,-1,-3,-1
1528186128385288,-2,-1,-1,-1,-1,-1,1,-1
1528186128412121,0,-1,-1,-1,-1,-2,1,0
1528186128412121,1,-1,0,-1,-1,-1,-1,-1
1528186128421116,-1,-1,0,0,0,1,-1,-1
1528186128421116,0,0,0,1,-1,-1,-2,0
1528186128422095,-1,-1,-1,0,-1,-2,0,0
1528186128422095,0,0,0,0,0,-1,-4,-1
1528186128436056,1,-2,-1,-1,-1,0,1,-1
1528186128436056,0,0,0,-1,-1,-1,0,0
1528186128444034,0,1,-1,-3,0,0,0,0
1528186128444034,-2,-1,-1,0,0,0,1,-1
1528186128445103,-3,-1,0,0,-2,-1,-1,0
1528186128445103,-1,-2,-2,-1,-1,0,0,-3
1528186128466235,-1,-1,0,0,-2,-1,0,-2
1528186128466235,-1,0,-2,0,-2,0,-4,-1
1528186128466973,0,0,-1,-1,-2,0,-1,-2
1528186128466973,0,0,-1,-1,-2,-1,-1,0
1528186128479572,-2,-1,0,-2,1,-1,0,0
1528186128479572,1,-1,0,0,-1,-1,1,-1
1528186128488221,1,-2,-1,0,-1,-2,-1,0
1528186128488221,-1,-1,-2,-1,-1,1,0,-2
1528186128535274,-1,-1,-1,0,1,-1,0,1
1528186128535274,-1,-1,0,0,0,-1,-1,-1
1528186128536275,0,0,0,-1,0,0,-2,0
1528186128536275,0,1,0,-1,-1,-2,0,-1
1528186128537629,0,-1,-1,0,-1,-2,-1,-1
1528186128537629,-2,-1,-1,-2,-1,-1,1,-1
1528186128541600,0,-3,-1,-1,0,-2,-1,-1
1528186128541600,0,0,0,1,-1,-1,-1,-1
1528186128542580,-1,0,0,-1,-1,-1,0,-1
1528186128542580,-1,0,-2,-1,-1,-1,0,0
1528186128555032,-1,-2,0,-1,-1,0,-1,0
1528186128555032,-2,-1,-1,-2,-1,0,-1,-1
1528186128563084,-2,-1,-1,0,-1,0,-1,0
1528186128563084,-1,0,0,1,-1,0,-1,0
1528186128564818,0,-2,0,0,-2,-1,0,-1
1528186128564818,0,-1,-2,-1,0,-1,0,0
1528186128585762,-1,0,0,-1,0,0,0,0
1528186128585762,-1,-2,-1,0,-1,-1,-1,-1
1528186128586809,-3,-1,-2,-1,0,-1,1,-1
1528186128586809,-1,0,-1,0,-2,-1,-1,-1
1528186128598728,0,-1,-2,0,-2,0,-1,-2
1528186128598728,0,-1,1,-1,-1,1,0,0
1528186128607731,-1,0,1,0,1,0,-1,-1
1528186128607731,0,-4,-1,0,0,0,0,0
1528186128621720,0,1,-1,0,0,0,-1,1
1528186128621720,0,0,-1,-3,0,-2,0,-1
1528186128638688,-1,-1,-1,-1,0,-1,0,0
1528186128638688,0,-1,-1,-1,-2,-1,-1,0
1528186128645656,-1,0,0,0,-3,0,-2,-1
1528186128645656,-2,0,0,0,-1,-2,-1,-1
1528186128647597,-2,-1,-1,-2,0,-1,0,-1
1528186128647597,-1,-1,0,0,1,-1,1,0
1528186128659620,0,-3,-1,0,2,-2,0,-1
1528186128659620,0,-2,-1,0,-1,0,0,0
1528186128685549,0,2,0,-1,-3,-2,2,-1
1528186128685549,0,-1,1,0,-2,-1,-1,1
1528186128686526,-1,0,1,0,-1,0,-1,0
1528186128686526,-1,-1,-1,-1,-1,0,0,-1
1528186128689484,0,0,-1,-1,0,-1,-1,0
1528186128689484,-1,-2,0,-1,0,-1,0,-1
1528186128705497,-1,0,-2,-1,-1,0,0,-1
1528186128705497,1,-1,-1,-1,-1,0,1,1
1528186128707488,0,-1,-1,-2,2,0,-1,0
1528186128707488,0,1,0,0,-1,-1,-2,-1
1528186128719441,-2,-1,-1,-1,-2,-1,-3,1
1528186128719441,-1,0,-1,0,0,-2,1,-1
1528186128735401,1,-1,-2,1,0,-1,0,-2
1528186128735401,0,0,0,0,0,-1,-1,0
1528186128758356,-1,0,-1,-1,-1,-1,-3,-1
1528186128758356,0,2,-1,-1,-1,-1,-1,0
1528186128759351,0,0,-1,-1,1,-1,-3,1
1528186128759351,-1,-2,0,0,-1,0,-2,-1
1528186128765336,0,-1,-1,-1,-2,0,1,0
1528186128765336,-1,-2,-2,-2,0,0,0,1
1528186128767277,-2,-1,1,1,0,-1,-3,0
1528186128767277,-2,-1,-1,-1,-1,0,0,1
1528186128779246,-3,0,1,-1,-2,-2,0,0
1528186128779246,-2,0,0,0,-1,-1,-1,-1
1528186128788221,-2,0,0,0,0,0,1,0
1528186128788221,-1,0,-1,0,-1,0,1,-1
1528186128803235,-1,-1,-1,-1,0,-2,0,-2
1528186128803235,-2,-2,-1,1,0,-1,0,-1
1528186128804235,-2,0,-1,-1,-1,-2,-1,0
1528186128804235,0,-1,-1,-1,0,1,-1,-3
1528186128833156,1,0,0,-1,-1,0,0,0
1528186128833156,0,0,0,0,-1,0,1,-1
1528186128835127,1,0,0,1,-1,-1,1,0
1528186128835127,0,-1,-1,-1,-1,-1,1,-2
1528186128839130,-1,-1,0,0,-2,1,0,-2
1528186128839130,1,-2,-1,0,-1,-1,-1,-2
1528186128848062,-1,-1,1,0,-2,-2,-1,0
1528186128848062,0,1,-2,-1,-1,-1,-1,1
1528186128862079,1,-3,-1,-1,1,0,1,-1
1528186128862079,-1,1,0,0,-1,-1,-1,-1
1528186128871013,-1,-1,-1,0,0,-2,0,-1
1528186128871013,0,-2,-1,0,0,-2,-2,0
1528186128885960,-2,0,-2,-1,0,0,0,1
1528186128885960,0,-2,1,-2,0,-1,-1,1
1528186128886957,-1,-1,-2,1,-1,1,-2,1
1528186128886957,0,-1,0,-1,-1,0,0,0
1528186128908476,0,0,-1,0,0,-1,-1,-1
1528186128908476,0,-1,-2,-1,0,-1,1,1
1528186128909202,-2,0,-2,-1,0,-1,-1,-2
1528186128909202,-2,-1,-1,-1,0,-1,-2,1
1528186128922172,-3,-2,-2,-1,-1,-1,0,1
1528186128922172,0,0,0,0,0,0,-1,-2
1528186128931142,1,-1,0,1,-1,0,0,-1
1528186128931142,0,-1,-1,0,0,1,0,0
1528186128946317,0,0,0,-1,-1,-2,-2,0
1528186128946317,-4,-1,-1,-1,-1,0,0,-1
1528186128947101,0,-2,-1,-2,-1,0,1,0
1528186128947101,0,0,-1,-1,-2,-1,-1,0
1528186128968288,-1,-2,1,1,-1,0,0,0
1528186128968288,-3,-2,0,-1,-4,-1,-2,-1
1528186128970039,1,0,-1,-2,-2,-2,-1,-1
1528186128970039,0,-2,0,-1,-1,-1,-2,-2
1528186128991411,-1,0,-1,0,0,1,0,1
1528186128991411,0,-2,-1,1,1,-2,1,-2
1528186128991411,-2,0,-1,0,-1,0,-1,-1
1528186128991411,0,0,0,0,0,-2,1,0
1528186129013248,1,0,-1,0,0,1,-1,-1
1528186129013248,-1,0,-1,-1,0,0,-1,-1
1528186129014245,0,-1,-2,-1,-1,-1,-1,0
1528186129014245,-3,-1,-1,-1,-2,-2,0,-1
1528186129036406,1,0,0,0,0,-2,-1,-1
