timestamp,emg1,emg2,emg3,emg4,emg5,emg6,emg7,emg8
1528186122995129,8,18,4,2,-7,0,2,3
1528186122995129,-11,-2,-6,-16,-14,-26,-13,-5
1528186122997122,-9,-24,-5,-3,-9,-36,-5,-6
1528186122997122,3,12,0,3,11,40,6,6
1528186122998119,2,0,-4,4,16,19,0,-4
1528186122998119,13,8,2,-7,-16,-25,-3,5
1528186123006103,-3,8,1,3,0,4,-10,-3
1528186123006103,-7,-10,-4,1,-2,7,8,-3
1528186123008092,-1,-4,0,12,21,1,3,6
1528186123008092,-1,2,-1,-11,-6,15,3,-2
1528186123012114,-1,-7,-1,-15,-19,-19,-8,-6
1528186123012114,7,22,1,8,-2,-9,-10,0
1528186123027055,-1,-3,3,1,-6,10,13,2
1528186123027055,-4,-9,-2,1,18,-13,-4,0
1528186123035021,4,4,1,4,6,36,12,3
1528186123035021,1,-1,2,-4,-19,-56,-13,-1
1528186123042998,-8,-8,-4,-5,-13,11,-6,-6
1528186123042998,-2,-5,0,9,10,10,2,-3
1528186123065937,4,13,3,0,9,-7,-1,2
1528186123065937,-5,-17,-2,4,-28,-19,-14,-4
1528186123104833,-4,-30,-5,0,-20,-29,-11,0
1528186123104833,-6,-4,-6,-2,-9,2,-6,-3
1528186123105831,1,0,0,-3,-13,10,-4,-5
1528186123105831,1,-1,1,4,30,22,8,3
1528186123106828,4,17,2,-7,-9,11,6,1
1528186123106828,-3,-4,-5,5,9,-32,-11,-2
1528186123108822,-4,-11,-3,-4,-3,-17,-6,-2
1528186123108822,-2,-3,-1,0,-23,2,0,-3
1528186123117798,-1,5,1,-6,-3,5,-2,-4
1528186123117798,1,1,0,-2,1,-1,2,0
1528186123125779,-1,5,-1,-6,-14,-5,0,2
1528186123125779,1,-2,-4,1,9,-6,-3,1
1528186123131762,0,2,2,10,6,-2,3,-1
1528186123131762,0,-1,1,-9,-15,3,-1,-3
1528186123146722,-1,-6,-3,-10,19,10,2,-2
1528186123146722,-2,-1,-7,-7,-13,-12,-6,-3
1528186123153703,-2,3,-3,0,-3,-2,-5,-2
1528186123153703,-2,-4,-3,5,4,5,0,-1
1528186123177639,-1,-4,-5,7,17,5,4,1
1528186123177639,-3,-2,-3,-5,-12,-7,-3,-1
1528186123178636,-3,-1,-1,4,12,-4,-4,-3
1528186123178636,3,2,4,1,-1,9,8,4
1528186123194593,1,1,6,13,-5,-7,-1,2
1528186123194593,-2,-4,-7,-11,-6,-14,-6,-4
1528186123194593,-2,0,-3,-12,-13,-2,-1,-1
1528186123194593,-1,-1,3,21,10,16,4,0
1528186123214540,0,-1,-1,-15,-5,-10,-3,-1
1528186123214540,-1,-3,-5,-16,-19,-14,-10,-2
1528186123215538,-2,-2,-3,-2,-1,0,3,1
1528186123215538,1,1,0,-14,-9,-6,0,-1
1528186123237479,-1,5,3,9,-6,3,-5,-3
1528186123237479,1,0,-3,2,18,8,2,0
1528186123238476,-2,-8,-13,0,0,-2,-3,-1
1528186123238476,1,4,16,5,-15,-11,-1,1
1528186123252439,-1,-2,-5,2,17,14,3,0
1528186123252439,0,6,17,11,11,8,4,2
1528186123253436,0,-3,-9,-3,2,4,3,0
1528186123253436,-2,-3,1,-1,-3,-7,-8,-4
1528186123274380,0,1,10,26,-3,-5,-3,-2
1528186123274380,-2,-7,-11,-20,-7,-13,-5,-3
1528186123275378,-1,-3,-11,-16,3,8,5,0
1528186123275378,0,0,-3,1,-15,-5,-1,-1
1528186123298317,-2,0,2,-15,-9,-7,-1,1
1528186123298317,2,0,-2,17,6,3,2,3
1528186123298317,1,0,16,18,-4,-8,-9,-3
1528186123298317,-1,-1,-8,-20,-10,0,2,0
1528186123312281,-1,1,8,18,12,3,2,0
1528186123312281,-4,0,8,7,4,7,1,-1
1528186123313279,1,-2,-3,1,-12,-7,1,0
1528186123313279,-1,-1,4,-15,7,1,0,0
1528186123335219,-3,-7,-10,0,0,-4,1,-2
1528186123335219,-3,-1,-9,-43,-19,-6,-3,-2
1528186123335219,-2,5,14,19,8,2,-1,0
1528186123335219,0,-3,-18,-5,5,-3,-7,-5
1528186123358156,-2,1,-1,14,6,2,-4,-3
1528186123358156,-3,-2,10,14,-4,-6,-1,-1
1528186123359154,0,-4,-9,-47,-10,2,2,0
1528186123359154,-2,0,7,61,29,11,2,0
1528186123372145,-8,-9,-18,-57,-21,-8,-18,-10
1528186123372145,0,0,-7,-20,-9,-6,7,3
1528186123373117,-4,0,3,7,7,3,-1,-4
1528186123373117,2,0,26,28,7,-2,-1,-2
1528186123395058,28,2,-19,-28,-15,-4,-28,1
1528186123395058,-61,-5,14,50,14,11,23,-9
1528186123396055,3,-12,-8,-3,-11,-12,-58,9
1528186123396055,5,-8,-19,-28,-20,-16,21,-22
1528186123418016,30,11,15,25,8,13,38,41
1528186123418016,11,8,-4,36,2,-1,74,26
1528186123418994,-16,2,32,28,20,11,-2,-3
1528186123418994,-37,-10,-36,9,-5,-4,-80,-33
1528186123431987,-16,-5,6,-41,-20,-22,-52,-19
1528186123431987,50,-4,-10,13,8,2,10,-5
1528186123432957,-11,8,16,48,5,10,52,15
1528186123432957,17,1,8,8,2,0,-28,-5
1528186123454898,-73,-19,-26,-63,-33,-10,29,-7
1528186123454898,55,6,-10,-29,6,3,-19,13
1528186123461885,-12,-6,-20,-16,6,3,-43,-21
1528186123461885,-15,0,-3,-12,1,-2,15,-2
1528186123485853,45,5,-11,33,3,-1,16,14
1528186123485853,16,5,1,14,-8,-5,-4,11
1528186123485853,7,6,10,-12,-2,2,20,-24
1528186123485853,-37,0,15,-15,-5,-4,-18,4
1528186123492796,-25,-20,-68,9,2,7,7,-14
1528186123492796,-7,-3,0,-62,-11,-9,-27,-12
1528186123492796,22,3,1,78,10,-5,0,4
1528186123492796,-5,-5,18,-84,-21,-19,6,0
1528186123514738,-1,4,12,-2,5,36,24,0
1528186123514738,7,-3,-17,5,6,22,-21,-3
1528186123515735,-25,4,18,23,12,-28,1,-2
1528186123515735,5,-9,-26,6,-13,14,20,11
1528186123537676,23,18,43,23,27,11,5,6
1528186123537676,-23,-2,-2,-10,9,-7,-18,-14
1528186123538674,-1,-9,-15,-26,-4,18,10,3
1528186123538674,19,9,-25,14,2,3,20,10
1528186123560615,-3,6,66,23,-3,-17,-21,-12
1528186123560615,-19,-25,-61,14,-10,-7,-6,-7
1528186123561614,11,28,64,4,-10,-24,-1,5
1528186123561614,6,-17,-53,-51,-9,6,9,5
1528186123574578,-2,4,2,2,2,-1,-4,-6
1528186123574578,-12,-7,8,6,1,-11,-4,-4
1528186123575576,28,5,5,-22,-6,3,-2,61
1528186123575576,2,9,31,24,9,3,0,-37
1528186123598514,-19,-8,-36,-16,-23,-15,-9,-12
1528186123598514,-5,4,27,7,1,-12,-9,-4
1528186123598514,9,-3,17,-16,-25,-4,0,11
1528186123598514,5,-5,0,15,13,5,9,7
1528186123611496,7,4,22,20,32,11,1,36
1528186123611496,-10,-3,-25,9,0,12,0,-48
1528186123619471,-21,-18,-42,-53,-28,1,-4,-30
1528186123619471,5,5,12,5,-8,-22,-8,16
1528186123635415,2,-1,21,-8,-36,-30,-4,-4
1528186123635415,0,19,-13,27,27,1,-5,15
1528186123636413,1,-3,14,-9,27,25,12,2
1528186123636413,1,-19,16,-7,8,27,16,-4
1528186123658391,-9,-38,-80,-4,-12,-20,-23,-6
1528186123658391,-3,16,28,10,-13,-11,12,21
1528186123658391,0,-7,-27,-18,0,-4,5,-27
1528186123658391,7,38,41,8,-7,-2,3,13
1528186123671319,7,-6,-3,18,25,8,-1,-8
1528186123671319,-5,-11,4,-16,-17,-8,-7,-1
1528186123687310,-12,-10,-14,-14,-13,-8,-1,-14
1528186123687310,7,9,-9,0,-7,-2,-1,21
1528186123695255,6,13,12,2,-9,-10,-1,-6
1528186123695255,-17,-7,6,-17,-26,-11,-12,-17
1528186123695255,0,-10,-13,-10,18,14,-4,4
1528186123695255,5,2,-44,-7,-13,-4,1,16
1528186123718194,-3,-11,1,5,14,4,3,-15
1528186123718194,2,-9,-9,-13,0,0,-2,-3
1528186123719191,-5,-2,-17,6,8,1,-3,-16
1528186123719191,1,2,16,10,4,-15,-4,14
1528186123741151,2,11,-10,-14,-22,-4,4,9
1528186123741151,12,18,27,16,39,16,-1,3
1528186123742130,-13,-16,-28,7,-4,-5,-8,-38
1528186123742130,-5,-4,-30,3,25,-1,-3,-13
1528186123763074,-1,10,14,-3,-21,-1,1,0
1528186123763074,1,-1,18,0,-6,1,3,20
1528186123765071,8,-8,-41,-6,-11,-8,1,16
1528186123765071,31,3,32,28,11,-1,-45,-23
1528186123778035,-84,6,36,-27,-16,-5,25,-16
1528186123778035,19,3,18,47,19,12,-30,21
1528186123780048,21,4,16,2,0,-10,-90,-13
1528186123780048,20,-8,-15,0,-13,3,107,42
1528186123792003,-33,19,5,9,26,25,62,36
1528186123792003,76,4,-18,-50,-2,3,-79,-12
1528186123800972,13,8,40,20,-21,-1,111,38
1528186123800972,-71,-16,-9,-16,-7,-2,32,33
1528186123813975,-29,-3,11,20,7,-6,-78,-56
1528186123813975,7,-4,-16,-12,-7,-2,86,-13
1528186123822915,-15,12,24,51,24,9,-38,-4
1528186123822915,39,-10,7,-17,-4,6,-53,-19
1528186123837913,19,-9,-38,-38,-5,-7,21,31
1528186123837913,-27,-6,47,46,-3,-4,-54,-37
1528186123839869,1,-4,-25,-15,2,6,4,-3
1528186123839869,-38,-8,-15,4,-17,-9,-1,-8
1528186123851837,17,6,33,55,11,-11,-55,-18
1528186123851837,6,-5,-23,-6,-12,5,0,-1
1528186123860814,-7,6,3,-13,-3,-50,17,11
1528186123860814,-26,2,13,-7,-24,17,-8,-8
1528186123873778,56,-3,-20,33,63,47,-17,-1
1528186123873778,-25,0,3,-3,-9,-34,18,7
1528186123890738,-16,8,-4,-6,-5,31,32,11
1528186123890738,16,6,20,19,44,-5,-43,-13
1528186123897714,13,-9,-11,-20,-6,-6,26,1
1528186123897714,-28,-17,-17,-22,-21,1,21,9
1528186123899709,-12,0,-6,-23,-16,-19,-42,-18
1528186123899709,21,13,13,49,14,1,-16,-7
1528186123911685,5,-6,-5,-7,-24,-40,15,6
1528186123911685,-19,0,13,2,-4,37,4,10
1528186123920324,15,-7,-44,18,29,19,-11,-3
1528186123920324,-2,-6,-16,-53,-35,-21,10,-5
1528186123935356,-6,-4,-4,2,-8,-19,-5,-1
1528186123935356,-5,-6,-3,-18,-21,-20,-20,-5
1528186123942345,12,-4,-2,-15,7,11,6,22
1528186123942345,-10,-10,-31,-11,9,23,11,-15
1528186123965651,-4,3,9,-1,4,17,-10,-6
1528186123965651,-3,-8,-6,0,-13,-11,-8,-8
1528186123967208,-7,0,9,3,-5,-23,-4,-8
1528186123967208,8,4,-5,1,8,-5,-5,36
1528186123981171,16,-3,16,-12,-33,22,16,-3
1528186123981171,-10,19,-4,9,20,27,25,-14
1528186123982162,-12,-11,-5,-22,-2,-1,-2,-10
1528186123982162,1,-17,-14,3,-3,-19,-17,3
1528186123995126,3,-12,0,-3,17,3,6,-4
1528186123995126,-1,6,11,-8,-4,-6,-1,34
1528186124002467,-2,10,-3,-12,-38,-6,-6,-32
1528186124002467,-6,8,23,12,3,1,-4,-19
1528186124018921,-7,-32,-12,-7,-1,-5,-11,-2
1528186124018921,-7,-21,-41,-7,20,-1,-3,-5
1528186124019515,8,13,34,5,-6,-7,-4,12
1528186124019515,6,15,9,-7,-1,8,11,13
1528186124048763,3,2,-11,-4,-4,-11,-5,-2
1528186124048763,5,18,12,-9,-1,4,-3,-1
1528186124049435,3,0,3,1,-5,3,2,5
1528186124049435,-8,-6,-9,-8,2,-10,-13,-21
1528186124054421,-4,9,0,-6,-15,-2,-1,3
1528186124054421,5,2,5,-18,-29,-19,1,1
1528186124063398,-2,-5,-9,22,46,22,10,2
1528186124063398,-5,-4,8,-7,6,6,4,-3
1528186124076363,6,10,26,1,-20,3,-3,3
1528186124076363,0,-7,-19,6,23,9,6,4
1528186124085525,4,-2,8,-11,-36,-11,4,21
1528186124085525,-5,12,10,13,20,9,7,-19
1528186124100562,-5,-5,-21,3,17,4,0,-8
1528186124100562,-1,6,8,7,-3,-6,-3,-2
1528186124107362,-1,-9,13,0,3,-4,-7,-2
1528186124107362,8,6,-30,-12,-4,-3,-4,6
1528186124123493,1,4,-2,-16,-4,5,4,3
1528186124123493,-8,-4,-15,-11,-5,-6,-10,-12
1528186124124501,9,0,9,11,9,-1,-35,-9
1528186124124501,1,-3,-4,-9,-17,-6,-16,-15
1528186124137310,-9,-2,21,66,29,7,-3,-14
1528186124137310,-6,1,-33,-41,-25,-4,67,47
1528186124146450,25,15,6,8,3,-6,-103,1
1528186124146450,32,-10,14,55,14,8,42,-5
1528186124160141,-7,-29,-45,-59,-10,0,71,27
1528186124160141,1,12,33,43,11,0,-76,-7
1528186124162134,-14,-3,-3,22,15,10,-42,-44
1528186124162134,23,-12,-58,-50,-30,-15,37,41
1528186124184491,-16,11,44,58,7,-4,-43,13
1528186124184491,-24,-7,17,-7,-6,-5,-52,-36
1528186124186128,1,-7,-45,5,2,-1,19,-2
1528186124186128,26,16,44,54,25,2,-128,-23
1528186124197356,-21,-3,-23,-38,-13,-2,89,1
1528186124197356,12,0,8,-30,-7,-1,23,-4
1528186124206018,-17,-17,-24,-6,-10,-12,-95,-28
1528186124206018,-15,-17,6,-17,7,13,126,13
1528186124220287,2,-2,-61,-2,-7,-9,-64,-12
1528186124220287,27,3,26,33,-3,3,17,6
1528186124227221,-41,-13,-33,20,16,12,43,0
1528186124227221,-21,3,1,-53,-35,-37,-17,9
1528186124243547,13,-3,-8,-13,-10,-10,-46,-9
1528186124243547,-3,-3,16,30,34,16,-9,-14
1528186124244224,3,4,3,9,23,46,63,21
1528186124244224,-6,0,-27,-27,-4,-7,-1,3
1528186124256192,2,-1,-8,-2,-8,-15,-25,-20
1528186124256192,-13,-8,-22,13,-17,-14,-1,-3
1528186124265165,10,-9,7,-24,3,10,39,23
1528186124265165,-15,-6,9,28,9,6,-23,-11
1528186124280125,11,16,23,5,0,-9,-8,-1
1528186124280125,-7,-4,6,-30,-33,-35,-4,1
1528186124287345,-1,-2,5,-10,-4,-2,18,4
1528186124287345,-12,-10,-5,22,15,19,-6,-13
1528186124303327,-1,1,8,-2,-12,-10,-8,2
1528186124303327,1,-4,-6,-8,10,3,5,6
1528186124317300,3,10,3,-14,-15,-11,7,-1
1528186124317300,-11,1,-8,5,-3,-3,-5,-4
1528186124318295,9,5,13,-6,11,3,5,9
1528186124318295,0,10,-5,-2,9,28,-4,3
1528186124325300,8,-3,-4,-15,-13,-20,13,12
1528186124325300,-26,-11,22,13,20,16,2,-34
1528186124340250,3,-11,-19,-2,10,3,-8,6
1528186124340250,-8,11,18,2,5,-2,-10,-27
1528186124346221,-10,10,3,-13,-19,-13,0,-15
1528186124346221,-1,-5,-5,0,-7,-16,-6,15
1528186124363194,2,-3,4,-13,-8,8,-5,-11
1528186124363194,10,1,-4,12,29,3,10,30
1528186124369180,6,11,-4,-1,-9,-3,15,11
1528186124369180,-3,-26,-19,-12,-22,-2,-11,8
1528186124377137,-8,-7,2,-17,0,10,-2,-22
1528186124377137,-4,-29,-21,-7,-7,-3,4,1
1528186124385116,-3,15,15,-2,-4,-18,-13,-9
1528186124385116,-19,11,-13,-5,-9,4,1,-21
1528186124400131,5,16,19,35,46,0,-1,6
1528186124400131,9,-2,-8,-31,-26,6,-5,-2
1528186124407110,2,-5,-1,-16,-10,-7,13,16
1528186124407110,5,1,7,-8,-15,-6,-3,4
1528186124423069,6,2,7,12,7,8,0,3
1528186124423069,-13,-11,-21,0,6,-7,-6,-6
1528186124425090,2,-8,12,-8,-16,-14,-2,10
1528186124425090,-12,-9,-4,-4,12,-1,0,4
1528186124445986,-10,-3,-7,-11,-26,3,-7,-31
1528186124445986,-2,2,4,13,22,7,3,-2
1528186124446952,6,-7,-13,3,-1,7,6,6
1528186124446952,10,19,25,3,-5,-8,-4,-15
1528186124459968,1,-5,-1,2,-6,-3,-7,33
1528186124459968,-3,0,1,2,0,-3,3,-15
1528186124466897,-12,-13,10,2,3,3,-2,-13
1528186124466897,2,0,5,-1,-5,-6,-6,3
1528186124482856,7,13,2,2,-8,-2,9,8
1528186124482856,2,-3,-1,6,14,6,8,10
1528186124484850,-3,-10,-8,1,7,4,-1,-6
