timestamp,emg1,emg2,emg3,emg4,emg5,emg6,emg7,emg8
1528276969612845,0,-2,-3,-1,-4,0,-2,-2
1528276969612845,-1,-1,-1,0,-2,-1,-2,0
1528276969613842,0,0,-1,0,-1,-2,0,-1
1528276969613842,0,-1,-1,-2,-1,-1,-2,-2
1528276969627841,0,-3,0,0,-1,-2,-1,-1
1528276969627841,-1,-1,-1,0,0,-1,0,-1
1528276969628847,0,-2,-2,-1,-2,-1,-3,0
1528276969628847,-2,-1,-1,-1,1,0,0,-1
1528276969649796,-2,0,-1,-1,-1,-1,-1,0
1528276969649796,-1,-3,-1,-1,0,0,0,-1
1528276969650743,-2,-1,-2,-1,-1,-1,-1,-3
1528276969650743,0,-1,-2,0,-1,-1,0,-1
1528276969680683,0,-1,-1,-1,-1,1,-1,-1
1528276969680683,-2,-2,-1,-1,-1,-2,-2,-2
1528276969681661,-3,-1,0,-1,-1,0,0,0
1528276969681661,0,0,-1,-1,-1,0,-2,-1
1528276969687644,-3,1,0,-1,-1,-2,-1,0
1528276969687644,0,0,0,-1,-3,-1,-1,0
1528276969688642,-1,0,-2,-1,-2,-1,-2,-1
1528276969688642,0,-1,-2,-2,-2,-1,-1,1
1528276969709586,-1,-2,-2,-1,-1,0,0,-1
1528276969709586,-1,-2,-1,-2,-1,-1,0,1
1528276969710586,-2,-1,-2,0,0,-2,-2,0
1528276969710586,-1,-1,0,-2,1,-1,-1,-2
1528276969733562,-1,0,-1,-2,-1,0,-2,0
1528276969733562,-1,-1,-1,-1,0,-1,-1,-1
1528276969734519,-1,-1,-2,-1,0,0,-1,-1
1528276969734519,0,-1,-1,-2,0,-1,-1,0
1528276969747537,0,-1,0,0,-1,-2,-1,-1
1528276969747537,0,0,-2,-1,-3,0,-2,-1
1528276969748483,1,-1,-1,-1,0,-1,-1,-1
1528276969748483,-1,-2,-1,1,-1,-1,-2,0
1528276969770424,-2,1,-2,-2,-1,1,0,-1
1528276969770424,-2,-2,0,-1,-2,-1,-1,-2
1528276969770424,-1,-1,-1,-1,-1,-2,-1,-1
1528276969770424,-1,-1,-1,-1,-1,-2,-2,-1
1528276969793363,0,-2,-1,-2,-1,-1,-2,0
1528276969793363,1,-3,-1,-1,2,0,-1,-3
1528276969794360,1,-2,0,-3,-2,-2,0,-2
1528276969794360,-2,-2,-1,-1,-1,0,0,-2
1528276969815303,0,-1,-2,1,0,-1,-1,1
1528276969815303,-1,-1,-2,-1,1,-1,-1,-1
1528276969816302,-2,-2,-2,-2,-1,-1,-1,-1
1528276969816302,-2,0,0,-1,-2,-2,-2,-1
1528276969830263,0,-2,-1,-2,-2,-1,-1,-2
1528276969830263,-2,0,-1,-1,-2,-1,-1,0
1528276969831261,-1,-1,-1,0,0,1,0,0
1528276969831261,0,0,1,0,-2,-1,-1,-2
1528276969853241,-2,-2,-3,0,0,-1,0,0
1528276969853241,-1,-2,-1,-1,-1,-1,-1,-2
1528276969854200,-3,-1,-1,-1,-2,0,-1,1
1528276969854200,-1,-3,-1,-1,0,-2,-2,1
1528276969867165,0,-1,-1,-2,-2,0,0,-3
1528276969867165,0,1,0,0,-1,0,-1,0
1528276969868162,0,-1,-1,0,-1,0,1,-1
1528276969868162,0,-1,-2,0,-1,-1,1,0
1528276969890106,-1,-1,-3,-1,-1,-2,-1,-1
1528276969890106,0,-2,-1,-1,-1,-1,-1,-2
1528276969891105,-2,-1,-2,-2,-1,-1,-2,-2
1528276969891105,0,-1,-1,0,-1,-2,0,0
1528276969913044,-1,0,-1,0,-1,-4,-3,0
1528276969913044,-1,-1,-1,-1,-1,-1,0,-2
1528276969914041,-1,-2,-1,-1,-1,-2,-2,0
1528276969914041,0,-2,-1,-2,-1,0,-1,-2
1528276969928002,-2,-2,-1,-1,-1,-1,-2,0
1528276969928002,-1,-2,0,-1,-2,-2,0,-1
1528276969935022,-2,-2,-1,-2,-2,-1,0,-3
1528276969935022,-6,-4,-4,-5,-2,-2,-1,-3
1528276969949969,0,-6,-4,3,0,1,0,-3
1528276969949969,2,-8,-9,0,-1,-1,0,2
1528276969950943,5,9,4,5,2,2,1,1
1528276969950943,2,12,13,2,1,0,-1,0
1528276969972882,-3,-1,-1,-3,-2,-1,0,-2
1528276969972882,-1,-1,0,-3,-3,-2,-2,-1
1528276969973879,-3,-4,-6,-3,-1,-2,-1,-2
1528276969973879,-4,-5,-7,-4,-2,-1,-1,-1
1528276969986845,-2,0,-1,-2,-1,-1,-1,-1
1528276969986845,-2,-2,-3,-1,-3,-3,-1,-2
1528276969994850,-2,-6,-3,-2,1,-1,1,-3
1528276969994850,0,-2,-1,1,-1,1,-1,-2
1528276970009784,-2,-2,1,-1,-1,-1,0,-1
1528276970009784,-3,-1,1,0,-1,-1,-2,-1
1528276970010789,-1,-1,0,-1,-2,-1,-2,-1
1528276970010789,-2,-2,-3,-1,-2,0,-2,-1
1528276970033733,0,-1,0,-3,-2,-1,-1,-1
1528276970033733,0,3,0,0,0,-1,-1,-1
1528276970033733,-2,-2,1,0,-2,-1,-2,-1
1528276970033733,-1,-3,-3,-2,-1,0,-1,0
1528276970046686,-1,-1,-2,-1,-2,0,-2,-1
1528276970046686,-1,2,1,-1,-1,0,-2,-1
1528276970054664,0,0,1,1,0,-1,-2,0
1528276970054664,1,-2,-3,1,0,-2,-1,-1
1528276970069625,-1,1,0,-1,-1,-1,0,-1
1528276970069625,-1,0,1,-1,0,-2,-1,0
1528276970070639,-1,-3,-2,-1,-3,-2,-2,0
1528276970070639,-1,1,0,-1,-1,0,-1,1
1528276970093564,-1,0,-1,-1,0,-1,-2,-2
1528276970093564,-1,-2,-1,-2,-2,0,-2,1
1528276970093564,0,-1,-2,-2,-2,-1,-2,-1
1528276970093564,-2,-1,-1,0,-2,-2,-1,-2
1528276970106526,0,-2,-1,0,0,-1,-1,-1
1528276970106526,-3,0,-1,-1,-1,0,-1,-2
1528276970115532,-1,-1,-1,-1,-1,-1,-1,-2
1528276970115532,-1,0,0,-2,-1,-1,-1,-1
1528276970130462,0,-1,0,-2,-2,-1,-2,-2
1528276970130462,-2,-1,1,-1,0,-1,-2,-2
1528276970130462,-2,-1,-1,-2,0,-1,-1,-1
1528276970130462,-2,-3,0,0,1,0,0,-1
1528276970153401,1,-1,0,-1,-1,-1,-2,-1
1528276970153401,0,0,0,-3,0,-1,-1,-2
1528276970154398,-1,-2,-2,-2,-2,-3,-1,-1
1528276970154398,0,-1,-3,-1,0,0,0,-1
1528276970167363,-3,0,-1,-1,0,-2,1,-1
1528276970167363,0,-2,-1,0,-1,1,1,-1
1528276970175342,0,1,-2,-1,0,1,-1,0
1528276970175342,0,-2,-1,0,-2,-2,-2,-1
1528276970190355,-1,-1,-2,-1,-1,-1,-2,1
1528276970190355,-1,-1,-3,0,-3,-1,0,-1
1528276970191360,-2,-2,-3,0,-2,-1,-1,-1
1528276970191360,-1,0,-1,0,-1,-1,-1,0
1528276970213243,0,-1,-1,-2,-2,1,-1,0
1528276970213243,0,0,-2,-1,1,-3,-2,-1
1528276970214237,0,0,-1,-1,0,0,-1,-2
1528276970214237,0,0,-3,-1,0,0,-1,-2
1528276970227203,0,-2,-1,-1,0,-2,-1,-1
1528276970227203,-1,-2,-4,0,-3,-1,0,-2
1528276970235451,-1,-1,2,-1,0,0,0,-1
1528276970235451,-1,-1,-1,-1,-2,0,-2,-2
1528276970250402,0,1,0,-1,-1,-1,-1,0
1528276970250402,0,0,-1,0,0,-1,-1,-1
1528276970251426,-1,-3,-5,-1,-2,-2,-2,0
1528276970251426,0,-2,-2,-3,-2,-3,-2,0
1528276970273343,-2,-2,-1,-1,-2,-2,-1,-1
1528276970273343,-1,-1,-1,-1,0,-1,-3,1
1528276970274076,-1,-2,0,0,-2,-2,-1,-1
1528276970274076,-2,-2,-1,-2,-1,0,-1,-1
1528276970287308,0,-3,-2,-1,-1,0,-3,0
1528276970287308,-2,0,0,-1,0,0,-3,-1
1528276970295658,-1,0,0,-3,0,-1,-1,-1
1528276970295658,-1,-1,-1,-2,-1,-1,-2,0
1528276970310315,-3,0,0,-1,-2,-1,-2,-1
1528276970310315,-2,-1,0,-3,-1,-1,1,-2
1528276970311310,0,0,-1,-1,0,-1,2,0
1528276970311310,-1,-1,-1,0,-2,-2,1,1
1528276970333266,-1,0,0,0,-1,-1,-1,-1
1528276970333266,-1,-1,-2,-1,-1,1,0,-2
1528276970334251,0,-3,-1,-2,-1,1,-1,-1
1528276970334251,0,-4,-3,1,-2,-1,-2,0
1528276970347235,-2,-1,-2,-1,-2,-1,-1,-1
1528276970347235,-2,-2,-2,-1,-2,-2,-1,0
1528276970355194,-1,-2,-1,-2,0,-1,-1,0
1528276970355194,-1,0,-1,-1,0,1,0,-1
1528276970370555,0,0,1,-1,-1,1,-2,0
1528276970370555,1,-1,0,-1,-1,-2,-1,-2
1528276970370555,-2,-1,-1,-1,-1,-2,-1,0
1528276970370555,-1,1,0,-1,-1,-2,-1,-1
1528276970392725,-2,-1,-1,-1,0,1,1,-2
1528276970392725,0,-1,-2,-2,-2,0,1,-1
1528276970400882,-2,0,-1,-1,-2,2,-1,-3
1528276970400882,0,0,0,0,-1,-2,-1,-3
1528276970415439,-1,-1,-2,-1,-1,-3,-2,-1
1528276970415439,0,-1,0,-1,0,-1,0,-2
1528276970417432,1,1,0,-2,1,-1,-1,0
1528276970417432,-1,-2,-1,-4,1,-1,-1,0
1528276970438695,-1,-2,0,-3,-1,-1,-1,-2
1528276970438695,-1,-1,-1,0,0,-1,-2,-2
1528276970440697,-2,-1,-1,1,-1,-3,-2,-1
1528276970440697,-3,-1,-1,0,1,0,-1,-2
1528276970452610,0,0,-3,-1,-1,0,0,0
1528276970452610,-1,-1,-2,0,-1,0,0,2
1528276970461329,-1,-1,-2,-1,-1,0,-2,-1
1528276970461329,1,-1,-2,0,-1,1,-1,-1
1528276970475277,0,-1,-1,0,-3,-2,-1,0
1528276970475277,-2,0,-1,-1,-1,-2,-1,0
1528276970477272,1,1,-1,-2,1,-1,-1,0
1528276970477272,-1,-1,-1,0,0,1,-2,-1
1528276970498551,0,0,0,0,-1,-2,-2,1
1528276970498551,-1,-3,-1,-1,0,0,-1,-1
1528276970500211,0,-2,-1,0,-3,-2,-1,-2
1528276970500211,1,-1,-1,-1,-1,-3,-1,0
1528276970512556,-1,-2,-2,-1,-1,-1,-1,-2
1528276970512556,-1,-1,0,-1,0,-2,-1,-1
1528276970521156,-1,-1,0,-1,-3,-1,1,0
1528276970521156,-1,0,-1,-1,-1,-1,-1,-1
1528276970536118,-2,-2,-2,0,-1,-1,0,-1
1528276970536118,-1,-1,-1,-1,-1,-1,0,-1
1528276970537114,-1,0,-1,-2,0,-2,-1,-3
1528276970537114,-1,0,-1,0,-2,0,-1,-3
1528276970558095,-1,-1,-1,-1,-2,-1,0,-1
1528276970558095,0,-1,-2,-2,-2,0,-1,-1
1528276970560052,-2,-2,-1,-1,-1,0,-1,-2
1528276970560052,-2,-2,-1,-2,1,-2,0,1
1528276970572022,0,-2,-1,-1,0,-1,0,-1
1528276970572022,0,0,0,-2,0,-1,-1,-1
1528276970581013,-2,-2,1,1,-1,0,-2,-1
1528276970581013,0,-2,-1,-1,0,-2,-2,-1
1528276970604064,-1,-1,0,0,0,-2,0,-2
1528276970604064,-2,-1,-1,0,0,0,-1,-1
1528276970604932,-1,-2,-2,0,1,0,-1,0
1528276970604932,-1,-1,-1,-1,-2,0,1,0
1528276970617900,-1,-1,-2,-1,-1,-1,-1,0
1528276970617900,0,0,-2,-2,-2,-1,-3,0
1528276970619891,-1,-2,0,-1,-1,-2,-2,-1
1528276970619891,0,-1,-2,-1,-1,-1,1,0
1528276970631858,-2,-1,-1,1,-3,-1,-1,-1
1528276970631858,-1,-2,-1,1,-2,0,-1,-1
1528276970640840,0,-2,-1,-1,-1,0,-2,-1
1528276970640840,-2,0,-2,-2,-1,-1,-2,-2
1528276970656034,-1,0,-2,-1,-2,-1,-1,-1
1528276970656034,-1,-1,-1,-2,-1,-2,-1,-1
1528276970657793,-2,-2,-1,0,-1,-1,0,1
1528276970657793,-2,-2,0,0,-2,-1,-1,-2
1528276970679074,1,0,-2,-2,0,-1,-1,0
1528276970679074,-1,-1,-1,-2,-1,-1,-2,-2
1528276970679794,0,-1,-2,-1,0,-1,0,0
1528276970679794,-2,-1,-3,0,-1,-2,-2,-1
1528276970691762,0,-1,-2,-2,0,-2,-1,-1
1528276970691762,0,-1,-1,-2,-1,-1,-3,1
1528276970700958,-2,-1,-1,-3,-1,-1,-1,0
1528276970700958,-2,-1,-1,-1,-1,0,-2,-2
1528276970715934,0,0,1,-1,0,-2,0,-1
1528276970715934,-2,-1,-2,0,-1,0,-1,1
1528276970722764,-1,-2,-2,0,-3,1,0,-2
1528276970722764,-1,-1,-1,-1,-1,0,0,-1
1528276970746200,0,-2,-1,-2,-1,-1,-2,-1
1528276970746200,-1,-1,-2,-1,-1,-2,-2,0
1528276970747213,0,1,0,-3,-1,-1,-1,-1
1528276970747213,-1,0,-2,0,-2,-1,-1,0
1528276970762205,-3,-1,-1,-1,-1,0,-2,-1
1528276970762205,-1,-2,-2,-1,-1,-2,-2,-2
1528276970764390,1,1,-2,-1,-1,-2,-1,-1
1528276970764390,0,-1,-1,-1,-2,-1,-2,0
1528276970775767,0,-1,0,-1,-2,-1,-1,-1
1528276970775767,0,-1,-1,0,-2,-2,0,0
1528276970782712,-1,-2,-3,-1,0,-1,-1,-2
1528276970782712,0,-1,1,-1,-2,-1,-1,-1
1528276970798699,-1,-1,-1,0,-1,-1,-2,-1
1528276970798699,-1,0,0,-2,-1,-1,0,-1
1528276970805229,-1,0,1,-1,-2,-1,1,-1
1528276970805229,0,-1,-1,-1,0,-3,-1,0
1528276970812212,-2,0,0,-1,-2,-2,0,0
1528276970812212,-1,-1,-1,0,-1,0,0,-2
1528276970820926,-2,-1,0,-1,0,-1,-1,-1
1528276970820926,-1,0,-1,-1,-1,-1,-3,-1
1528276970835928,-1,-2,0,0,-1,1,-1,-1
1528276970835928,0,-1,-3,0,0,-2,-1,-1
1528276970842094,-1,-2,-1,-1,1,-2,-1,1
1528276970842094,0,0,-2,-2,0,0,-1,-1
1528276970858945,-2,0,-1,-1,-1,-1,0,-1
1528276970858945,-1,-1,-1,-1,-2,-1,0,-1
1528276970859787,-2,-2,-1,0,-2,-1,-1,-1
1528276970859787,-1,-2,0,-2,-2,-2,0,-1
1528276970881086,-2,0,-1,-1,-2,-1,-1,-1
1528276970881086,-2,-1,-2,-2,0,0,-1,-1
1528276970882721,-2,-1,-1,-1,-2,-1,-1,-1
1528276970882721,1,0,0,0,2,-2,-1,-1
1528276970895126,0,-1,-2,-1,-1,-1,-1,-1
1528276970895126,-2,-1,0,-1,-1,1,1,-1
1528276970909650,-1,0,0,-1,0,-1,-2,0
1528276970909650,-1,1,-1,-1,-1,0,0,-2
1528276970926604,-1,-1,0,0,-1,-2,-1,-1
1528276970926604,-1,-1,-1,0,0,0,-2,-1
1528276970931912,-1,-1,-3,0,-2,-3,-2,-2
1528276970931912,-1,-3,-2,-2,-2,-1,0,-2
1528276970941606,2,-3,-1,0,-2,-1,0,0
1528276970941606,-2,-1,-2,-2,-1,-2,-2,-2
1528276970942562,1,-1,-1,-2,-2,0,0,-1
1528276970942562,-1,-1,-3,-1,-1,0,0,0
1528276970954528,-2,-1,-3,-3,1,-1,-1,-1
1528276970954528,-1,0,0,-2,-2,-1,-1,-1
1528276970963506,-1,0,-2,0,0,1,-2,-1
1528276970963506,-2,-1,0,-1,-1,-2,-2,-1
1528276970978717,1,0,-1,-2,-2,0,-2,-3
1528276970978717,0,-2,-1,0,-2,-1,-1,1
1528276970979714,-1,1,-2,-1,0,-1,-2,-1
1528276970979714,0,-1,0,0,0,-1,0,-2
1528276971001073,-2,-2,-1,-1,0,0,-1,-1
1528276971001073,-1,-1,-1,0,-1,-1,-2,0
1528276971002654,1,0,-1,0,-1,-2,-2,0
1528276971002654,-1,-1,0,0,-2,-1,-1,-1
1528276971023857,-1,0,0,0,-2,-2,0,-1
1528276971023857,0,-2,-2,-2,-2,-2,0,0
1528276971024870,-2,-1,-1,-2,-1,0,0,0
1528276971024870,-3,0,-1,-1,-1,-1,0,-1
1528276971038561,-1,-1,0,-1,-1,0,-1,-1
1528276971038561,0,0,-3,-1,-1,2,-1,-1
1528276971040621,-1,-1,-1,0,-1,-1,-2,-1
1528276971040621,-2,-1,-1,-1,0,-1,-1,-1
1528276971068721,-1,-2,-2,-1,0,-2,0,-2
1528276971068721,-1,-1,0,-1,-1,-2,-2,-1
1528276971069748,-1,-1,-1,-2,-1,-2,0,-2
1528276971069748,0,-2,0,-1,-1,-1,1,-1
1528276971074704,-2,-3,-3,1,-1,-1,-1,0
1528276971074704,0,-1,-1,-2,-1,-1,-2,1
1528276971083448,0,-1,0,-1,-2,0,0,-1
1528276971083448,0,-3,-2,-2,-2,0,-1,-1
1528276971098987,-2,-1,-2,0,0,0,0,-1
1528276971098987,-2,-1,-2,-1,-1,-1,-1,-1
1528276971099650,0,-3,-1,-1,0,-2,-1,0
1528276971099650,-1,-2,-2,-1,0,-1,-1,0
1528276971121588,0,-1,1,-1,-1,-1,0,-3
1528276971121588,-1,-1,-2,-1,-1,0,0,-1
1528276971122586,0,0,-1,0,-2,-1,-1,-2
1528276971122586,-2,-1,-1,0,-1,0,0,-1
1528276971134882,-1,-1,-3,-3,1,-1,-2,-2
1528276971134882,-1,-1,-1,-1,-1,0,0,-2
1528276971143531,-1,-2,0,-2,0,-1,-1,-1
1528276971143531,-1,-1,-2,0,0,-2,-2,-1
1528276971158821,-1,0,-1,-1,-2,-2,-1,-1
1528276971158821,-1,-2,-1,-3,-1,-2,-1,-2
1528276971164738,-1,-2,-1,-1,-1,-1,-1,-1
1528276971164738,-1,-1,1,-1,-1,0,-2,0
1528276971188676,-1,0,-2,-2,-1,-2,-1,-1
1528276971188676,0,-1,0,0,1,-2,-2,-2
1528276971190603,-2,0,-2,1,-1,0,-2,-1
1528276971190603,-2,-2,-2,0,-1,-2,-1,-1
1528276971203633,-1,-2,-1,-1,-3,0,0,-1
1528276971203633,-1,-1,-1,0,-1,-2,0,-1
1528276971205634,-2,-2,-1,1,-1,0,0,-2
1528276971205634,1,-1,-3,-1,0,-2,-1,-2
1528276971218330,-1,-1,-1,-1,-2,-2,-1,0
1528276971218330,-1,-1,1,-1,-1,-1,0,0
1528276971220647,0,-1,-1,-2,-3,-2,-1,0
1528276971220647,-1,-1,-1,0,-1,-1,-1,-1
1528276971240302,0,0,-1,1,-1,0,-2,0
1528276971240302,-2,0,-1,-1,1,0,-2,-1
1528276971242267,-2,-2,-3,-1,-2,-1,0,-1
1528276971242267,-2,-2,-3,-1,0,-1,-1,1
1528276971254233,0,0,-1,-1,-1,-1,-1,-2
1528276971254233,0,-1,-2,0,-2,-1,-2,-2
1528276971263209,-1,1,0,-1,-1,0,-1,-2
1528276971263209,-1,-1,-2,-2,-2,-1,-2,-1
1528276971278221,-1,-1,-1,-2,-1,-2,-2,0
1528276971278221,-2,0,-2,0,-2,-1,0,0
1528276971280210,1,-1,-1,-2,-1,0,-2,-1
1528276971280210,-1,0,1,0,-2,-3,-1,-2
1528276971300166,0,-2,-1,-2,-1,-2,-1,0
1528276971300166,-1,1,-1,-1,0,-1,-1,-1
1528276971307147,0,-1,0,-1,1,0,-2,-1
1528276971307147,0,-2,-1,-1,-1,-2,-1,-2
1528276971314130,-1,-2,-2,-2,-2,0,-2,-1
1528276971314130,-2,-1,-2,-1,0,-2,0,0
1528276971323097,-1,-2,-1,-1,-2,-2,-1,0
1528276971323097,-1,0,0,-2,-3,1,0,-2
1528276971346045,-1,-1,-1,0,-2,-1,-1,-1
1528276971346045,-3,-1,-1,-2,-1,-1,-1,-1
1528276971347052,-2,-2,-1,-1,-1,-2,-1,-1
1528276971347052,0,-1,-1,-2,0,-2,-1,-3
1528276971361002,-1,-1,1,-1,0,-1,0,-1
1528276971361002,-1,-1,-1,-2,-3,-2,-3,0
1528276971362002,0,-2,-2,-1,-2,-1,-1,-1
1528276971362002,-3,-1,0,-1,-2,0,-1,0
1528276971373965,-1,-1,-2,0,-1,-2,-1,-2
1528276971373965,0,-1,0,0,0,-1,-1,-1
1528276971390869,-1,-2,0,-2,-2,-2,0,0
1528276971390869,-2,0,0,0,-1,-2,-2,0
1528276971397849,0,1,-1,-1,-1,-1,-3,0
1528276971397849,-2,-1,0,-1,-2,-3,0,-1
1528276971399845,-1,-2,0,-1,-1,-1,-2,-1
1528276971399845,1,-2,-1,-2,0,0,-1,-1
1528276971420788,-2,-2,0,0,0,-1,-1,-1
1528276971420788,0,-1,-1,-1,-1,0,-2,-1
1528276971422782,-3,0,-1,0,0,-2,-1,-2
1528276971422782,-1,-1,-2,-1,0,0,-2,-1
1528276971434784,0,-2,-2,0,-1,0,-1,0
1528276971434784,0,0,-1,-1,-2,-1,0,-1
1528276971443728,-1,-1,-2,-1,0,-2,1,0
1528276971443728,-1,-2,-2,-1,-4,-2,-1,-1
1528276971457690,-2,-1,0,-1,0,-1,0,0
1528276971457690,-2,-1,-1,0,0,-1,-1,-1
1528276971464705,-2,0,-1,0,-1,0,-1,-2
1528276971464705,-2,0,0,0,-1,-1,-1,2
1528276971480682,0,-1,1,0,-1,-1,-2,-1
1528276971480682,0,-1,-1,-2,-1,0,-1,-1
1528276971482623,0,0,-2,-1,0,-1,-1,-1
1528276971482623,0,-1,0,0,-1,-1,0,1
1528276971494643,-2,-3,0,0,-2,-1,-1,-3
1528276971494643,-1,-1,-1,-2,-2,-1,-2,-2
1528276971503568,-1,-1,-1,0,0,-2,-1,0
1528276971503568,-2,-1,-3,-2,0,1,0,-1
1528276971518588,0,-1,0,-1,-1,-2,-1,1
1528276971518588,-2,-2,-1,-2,-1,-1,-1,-1
1528276971519572,-1,-1,-1,0,-1,-2,-1,0
1528276971519572,-2,0,-1,-1,0,-2,-2,-1
1528276971540470,0,0,-3,-1,-1,-2,-1,-1
1528276971540470,-1,0,0,-2,-1,-2,1,-1
1528276971542463,-2,-1,-1,-1,-2,-1,-2,-1
1528276971542463,-2,-2,-1,1,-1,-3,0,0
1528276971554684,-3,-2,-1,0,0,-1,-1,-2
1528276971554684,0,-2,-1,0,-1,-1,-2,0
1528276971580365,-1,-1,0,-2,-2,0,-2,-3
1528276971580365,0,-1,-2,0,0,-1,0,-3
1528276971581361,-2,-1,-1,-1,-1,0,-1,0
1528276971581361,-3,0,-2,1,0,0,0,-2
1528276971584406,-3,-1,-1,0,-1,-1,-1,0
1528276971584406,1,-3,0,0,-2,-1,-1,-2
1528276971600728,0,0,-1,-2,-1,0,0,-1
1528276971600728,0,-1,-1,-2,-2,-1,1,-1
1528276971602304,-2,-1,-1,-2,-2,0,0,-2
1528276971602304,1,0,1,-3,-2,-2,-1,-1
1528276971614595,-1,1,-2,0,0,0,-1,-2
1528276971614595,0,-3,-3,0,-1,-2,-1,-1
1528276971623705,-1,1,-1,-2,-2,-1,-1,-3
1528276971623705,-1,-1,-1,-2,-1,0,0,0
1528276971638071,0,0,0,-1,-2,-1,0,-1
1528276971638071,-1,-1,-1,-1,0,1,-1,0
1528276971644648,0,-2,-1,-1,1,-1,0,0
1528276971644648,0,0,-1,-3,0,-2,0,-1
1528276971660846,-1,-1,-1,-3,-1,-2,-1,-2
1528276971660846,-2,-2,0,0,-2,-2,0,-2
1528276971662601,-1,0,1,0,-2,-1,0,0
1528276971662601,0,-1,-1,-2,-1,0,-2,-2
1528276971675141,-3,-2,-2,-1,-2,0,-2,-1
1528276971675141,-2,0,-1,-1,-1,-2,0,1
1528276971683797,0,0,-1,-3,-1,-1,0,-1
1528276971683797,-3,0,-3,-1,-1,-1,-2,-1
1528276971698024,0,1,-1,-1,-1,-1,0,-1
1528276971698024,-1,-2,-1,-2,-1,-1,-2,1
1528276971711985,0,-2,0,0,0,-1,-2,-1
1528276971711985,-1,-2,0,0,-2,0,-1,0
1528276971719964,-1,-1,-2,-1,-1,-2,0,-2
1528276971719964,0,-1,0,-1,0,0,0,-2
1528276971728677,0,-2,-2,-1,-3,-1,-1,0
1528276971728677,-1,-2,-1,-1,0,-3,-1,-1
1528276971734925,-2,-1,-1,-1,-3,-1,-1,0
1528276971734925,-1,0,-1,0,-2,-1,-1,-2
1528276971743646,-1,-1,-1,0,1,-1,0,-1
1528276971743646,0,-2,-1,-2,1,0,0,0
1528276971758860,-2,-2,-1,-2,-1,-1,-1,-1
1528276971758860,-1,-1,-2,-2,-1,-1,0,-3
1528276971764585,1,-1,1,-2,-1,0,-1,0
1528276971764585,-1,0,-1,0,-3,-1,-3,-2
1528276971780834,0,0,-1,-1,0,-2,-1,0
1528276971780834,-1,-1,0,-1,0,-1,-2,-1
1528276971782533,-1,-2,-1,-1,-1,-2,0,-1
1528276971782533,-1,0,-1,-1,-1,1,-1,-1
1528276971794501,-1,-1,0,-3,-1,0,0,0
1528276971794501,-1,-1,0,-2,-1,0,-1,-1
1528276971809621,-1,1,-2,-1,-1,-1,-1,-1
1528276971809621,-1,-1,-1,1,-1,-3,-1,-1
1528276971818441,0,-1,-2,-1,-2,0,-1,-1
1528276971818441,-2,-1,-2,1,-1,-2,-1,1
1528276971820682,-1,-1,0,-2,-1,-1,-1,-1
1528276971820682,-2,-1,-2,-1,-1,-1,-1,-1
1528276971841006,-1,0,-2,-1,-2,-2,0,-2
1528276971841006,0,0,-1,-1,-2,0,0,-2
1528276971842642,0,-2,-1,1,-1,-1,0,-1
1528276971842642,0,-1,-1,-1,0,0,-1,-2
1528276971863896,0,-1,-2,0,0,-1,-1,0
1528276971863896,-1,0,-2,-2,-1,1,-3,-1
1528276971864568,-2,0,-1,-2,0,0,-1,-1
1528276971864568,-1,-1,-1,-2,-2,0,0,-2
1528276971877829,-1,-2,-1,0,-2,-1,-2,-1
1528276971877829,-2,-1,-1,-2,-2,-1,-1,0
1528276971884779,-1,-2,-1,-1,0,0,-3,-1
1528276971884779,-1,-1,-1,-2,-2,-1,-1,1
1528276971901516,-1,-1,-1,0,-2,-1,0,1
1528276971901516,0,-1,-1,0,-1,-2,-1,-1
1528276971902467,0,-2,-1,-2,-2,-2,-2,1
1528276971902467,-1,0,-1,-1,-2,-1,-1,-1
1528276971923815,0,-1,0,-2,0,1,0,-2
1528276971923815,0,0,-1,-2,0,-1,-1,0
1528276971925460,1,-1,-1,-3,-1,-2,-1,-2
1528276971925460,0,-1,0,-1,0,-2,1,-1
1528276971938026,-2,0,-2,0,-1,-1,0,-2
1528276971938026,0,0,-1,-1,-1,-3,-1,-1
1528276971944680,-2,-1,-1,-1,-2,-1,-1,-1
1528276971944680,0,-1,1,-1,-1,-1,-2,0
1528276971960630,0,-3,-1,-1,-2,0,-2,-1
1528276971960630,1,0,0,-1,-1,-2,1,-2
1528276971962626,0,-2,-2,1,-1,-1,-2,-1
1528276971962626,-1,-1,-2,0,-1,-1,0,-2
1528276971983905,0,1,-1,-2,0,-3,-1,0
1528276971983905,0,-1,-2,0,-2,0,-2,-1
1528276971989590,-3,-1,-2,0,-2,-2,0,0
1528276971989590,0,2,-1,-1,0,-1,0,-2
1528276971997536,0,-1,0,-1,0,-1,0,-1
1528276971997536,-2,-1,-1,-2,-2,-1,0,-2
1528276972005952,0,1,-1,-2,0,0,0,-2
1528276972005952,-2,-1,-1,-2,-3,-2,-2,-1
1528276972020783,-1,0,0,-1,-2,-1,-1,-2
1528276972020783,0,-2,-1,-2,0,-1,0,-1
1528276972022776,-2,-1,-2,0,0,-1,-1,0
1528276972022776,-2,-1,-2,-1,-1,0,-3,-3
1528276972043774,0,-1,-1,-1,0,-1,-2,-1
1528276972043774,-1,1,-1,0,-1,0,1,0
1528276972044714,0,0,0,-1,-1,-2,-2,-1
1528276972044714,-1,-2,-1,-1,0,-1,-1,0
1528276972056924,-1,-2,-1,-2,-1,-1,-1,0
1528276972056924,-1,-2,-2,1,-1,0,-1,1
1528276972065693,0,1,0,-1,-2,-1,-2,0
1528276972065693,-1,0,0,-1,-1,-3,-1,-1
1528276972081628,-3,-1,-2,1,-1,-1,-2,0
1528276972081628,-2,-1,0,-1,-1,0,-2,0
1528276972082613,-3,-1,-1,-1,0,0,-1,-3
1528276972082613,0,-3,-1,-1,-1,-1,0,0
1528276972111599,-1,0,0,0,1,-1,0,-2
1528276972111599,-3,-1,-1,-1,-2,0,-2,-1
1528276972112541,0,-1,0,0,-1,-1,-1,0
1528276972112541,-1,-1,-2,-1,-1,-2,-2,0
1528276972133910,-1,0,-2,-1,-1,-1,0,0
1528276972133910,-2,-2,-2,-1,-1,-1,0,-2
1528276972135628,0,1,-1,-2,1,-1,-1,0
1528276972135628,-1,-2,-2,-2,0,0,-1,-1
1528276972141535,0,-1,-1,-1,-1,-2,-1,-2
1528276972141535,0,-1,0,-1,-2,-2,-1,-2
1528276972142454,-1,-2,-1,-1,-1,0,1,1
1528276972142454,-1,-1,-1,-1,-2,-2,0,-1
1528276972163642,-1,0,-2,-1,-1,-2,-1,-2
1528276972163642,-1,0,-2,-2,1,-2,-1,-2
1528276972164395,0,-1,0,-2,-1,-2,-2,-2
1528276972164395,-2,-1,-1,-1,-1,-1,0,0
1528276972177639,0,-1,-2,-1,-1,-2,-1,-1
1528276972177639,0,0,0,-2,1,0,-1,-1
1528276972186336,-2,0,-2,-2,-2,-2,-2,-3
1528276972186336,0,0,-1,1,0,-1,-1,-1
1528276972201403,0,-2,-1,-2,-1,-1,0,-1
1528276972201403,-1,-2,-1,-1,-1,0,-1,-2
1528276972202317,1,-2,0,-1,-1,-2,-2,1
1528276972202317,0,-1,0,0,-1,0,0,0
1528276972223504,1,-2,-1,1,0,0,-1,0
1528276972223504,1,-1,-1,0,-2,-1,-1,0
1528276972225232,1,0,-1,-1,-2,-1,-1,-1
1528276972225232,1,-1,-1,0,-1,1,-1,-1
1528276972237203,1,-3,0,-1,-1,0,0,-1
1528276972237203,1,0,0,1,-2,0,-1,0
1528276972246176,-3,0,-1,1,0,-2,-1,-2
1528276972246176,-2,-2,-1,-1,-2,-1,-1,0
1528276972261403,-3,0,-1,-3,-1,-2,0,-3
1528276972261403,-3,-3,-2,-1,-2,0,-2,-2
1528276972262355,-2,-2,-2,-1,-2,0,0,-1
1528276972262355,-2,0,-1,0,-2,0,0,-2
1528276972283081,-2,-1,-1,0,-2,0,0,0
1528276972283081,-1,-2,-1,-2,-1,-2,0,-1
1528276972285072,-3,-2,1,-1,-1,0,-1,-1
1528276972285072,-1,0,0,-2,-1,-2,0,1
1528276972297269,-1,-2,-1,-1,0,-1,-1,0
1528276972297269,-1,0,-1,-1,-1,-2,-2,-2
1528276972306016,-1,-1,-2,-1,0,0,-1,-1
1528276972306016,-1,0,-1,-2,-1,-1,0,-3
1528276972320980,-3,1,-2,-1,-2,1,-2,-1
1528276972320980,-2,-1,-1,1,-1,1,-1,-1
1528276972322989,-1,-1,-2,0,-2,0,0,0
1528276972322989,-1,-1,-1,0,-2,-1,-1,0
1528276972342918,0,-1,1,-1,-1,1,-2,-1
1528276972342918,-1,0,-1,0,0,-1,-2,0
1528276972344912,0,0,0,-2,-1,0,-2,-1
1528276972344912,-2,-2,-2,-2,1,-1,-2,-1
1528276972357101,-2,-1,-1,0,-1,-1,-2,-1
1528276972357101,-2,-2,0,-1,0,0,0,-1
1528276972365856,0,0,-2,0,-2,0,0,-1
1528276972365856,-2,-1,0,-2,-2,-1,-1,-2
1528276972381107,0,-2,-1,-2,-1,-1,0,0
1528276972381107,0,-2,-1,-1,-1,-2,-1,0
1528276972382100,-2,-2,-3,-2,0,-1,-1,0
1528276972382100,-1,-2,-1,0,0,0,0,0
1528276972403076,-1,-1,0,-2,-1,-2,-2,-1
1528276972403076,0,-1,-2,-2,-2,-1,-1,-2
1528276972405040,0,-1,0,0,0,-1,0,-1
1528276972405040,0,-2,-1,-1,1,-3,-2,-1
1528276972417273,-2,-2,-1,-1,0,-2,-1,0
1528276972417273,-1,0,0,-2,-1,-2,0,0
1528276972425984,-1,-1,-2,0,-2,-2,0,0
1528276972425984,-1,0,-2,-1,-2,1,0,0
1528276972441941,-1,-1,-1,-2,-1,-1,-1,-2
1528276972441941,-2,0,-1,-2,-2,0,-1,-1
1528276972447016,0,-1,0,-2,-2,-1,-1,-2
1528276972447016,-1,0,-1,-1,-1,-1,0,0
1528276972463914,-1,-2,-3,-1,-1,-1,-1,0
1528276972463914,-2,0,-2,-1,0,-1,-1,-2
1528276972464879,0,0,-2,-1,-1,-2,-1,-1
1528276972464879,0,-1,0,-2,0,-1,0,-1
1528276972476848,-1,0,-2,-1,-2,1,-1,-1
