timestamp,emg1,emg2,emg3,emg4,emg5,emg6,emg7,emg8
1528276952129532,1,0,0,-1,-1,-2,0,0
1528276952129532,-2,-1,-3,0,-1,-1,-1,0
1528276952130529,0,-1,-2,-2,2,-1,-3,1
1528276952130529,-1,-2,-1,-1,-2,-2,-2,-3
1528276952152507,-1,-3,-2,0,-1,-1,0,-1
1528276952152507,-3,-3,0,-1,-1,-1,0,1
1528276952153466,0,0,0,0,-3,-1,-2,1
1528276952153466,-1,-2,0,0,1,1,-2,0
1528276952167429,-2,-2,-2,-1,-1,-1,-2,-1
1528276952167429,-1,0,0,-1,-1,0,0,-1
1528276952168425,-1,-3,-1,0,0,0,0,-2
1528276952168425,-2,-2,-1,-3,-3,-3,-1,0
1528276952190367,0,0,1,0,-1,-2,-2,0
1528276952190367,1,-1,0,-1,0,0,0,-2
1528276952190367,-2,-2,-2,0,-2,-2,-1,0
1528276952190367,-1,-1,-2,0,-1,-1,0,0
1528276952204386,0,-1,-2,-2,0,0,-1,-3
1528276952204386,0,0,0,-1,-2,-1,-2,-1
1528276952211416,-1,-1,-1,-1,-1,0,-1,0
1528276952211416,0,-1,-1,0,-1,-1,0,-1
1528276952227305,0,-2,-2,0,-2,-2,1,-1
1528276952227305,-1,-1,-1,-2,0,-1,-2,1
1528276952228302,-2,0,-2,-2,-1,-2,0,-2
1528276952228302,0,0,-1,-1,0,-1,-2,-1
1528276952250242,-2,1,0,0,-1,2,-1,0
1528276952250242,0,1,-1,-2,0,-1,0,-1
1528276952251250,0,-1,-1,-1,0,0,0,-1
1528276952251250,-2,0,-1,0,-2,0,-1,-3
1528276952264507,-1,1,0,-4,-1,-1,1,-2
1528276952264507,-1,-1,-3,0,-1,-1,-3,-2
1528276952271487,-1,-1,-1,-1,-2,0,0,0
1528276952271487,-2,-2,-1,-2,0,-1,0,-2
1528276952287444,-2,-1,-1,1,-3,-1,0,0
1528276952287444,-2,0,-1,-3,-1,0,0,-2
1528276952288450,-2,-2,-2,-2,-2,-1,-1,0
1528276952288450,0,0,-1,-1,0,-1,0,0
1528276952310428,-2,-1,-1,-1,0,-1,-1,0
1528276952310428,0,1,-1,0,0,-1,0,1
1528276952310428,0,-2,-2,-1,-1,-1,-3,-2
1528276952310428,0,-2,-1,-1,-1,0,-1,0
1528276952333377,-1,-1,-2,-2,-1,-2,-1,-2
1528276952333377,0,-2,-1,0,-1,-2,0,-3
1528276952334320,-1,-1,0,-3,0,-1,0,-2
1528276952334320,-2,-2,-1,-1,-2,-1,0,-2
1528276952347285,-2,-1,-1,-1,0,-2,0,-1
1528276952347285,-2,-2,-3,-1,-1,-1,-2,-2
1528276952348283,-1,1,0,-2,-1,0,-2,1
1528276952348283,0,0,-1,-2,-1,-1,-1,0
1528276952370223,0,-1,-1,-1,-1,-2,-1,-1
1528276952370223,0,-1,1,-1,-2,-2,-1,-2
1528276952386189,-2,-1,-3,1,-1,-2,1,-2
1528276952386189,-1,-2,-1,-1,0,0,-1,0
1528276952387178,-2,-1,-2,-1,1,-1,-2,-1
1528276952387178,-1,-1,-2,0,-1,-2,0,0
1528276952392219,0,-1,-1,-2,-1,0,-1,-3
1528276952392219,-1,-2,-3,-2,-1,-1,-1,-1
1528276952407180,-1,-1,0,0,-2,-1,-1,-1
1528276952407180,0,-2,-1,0,-2,-1,-2,-1
1528276952408122,-3,-1,0,-1,-1,0,-1,-1
1528276952408122,-2,1,-1,-1,-2,-1,1,-1
1528276952430118,-1,-1,0,-2,-2,0,-1,-1
1528276952430118,-2,0,-1,-2,-1,-1,-1,-1
1528276952431061,-1,-1,-1,-1,-2,-2,-2,0
1528276952431061,-2,-2,-1,-1,-2,0,-3,0
1528276952444037,1,-2,-1,-1,0,-2,-3,-1
1528276952444037,0,-1,-1,-1,-1,0,0,-2
1528276952452004,-1,-1,0,1,-1,-1,0,-1
1528276952452004,-1,-1,-2,-2,-2,-1,-1,-1
1528276952467962,-1,-2,-2,-2,0,-1,-1,-1
1528276952467962,-1,-1,-1,-1,-1,-1,-1,-3
1528276952474943,-2,-2,0,1,-1,-1,-1,-1
1528276952474943,-1,0,-2,0,-1,-2,0,-1
1528276952489913,0,1,-1,0,-2,-2,0,-1
1528276952489913,-1,-1,0,-2,0,-2,0,0
1528276952490900,0,0,0,0,1,-1,-1,-1
1528276952490900,0,0,0,-1,-1,-1,-2,-1
1528276952512853,-1,0,-2,-1,-2,-3,-2,-2
1528276952512853,-1,1,-1,-2,-1,0,-2,0
1528276952513840,0,0,-1,-2,0,-1,-2,-1
1528276952513840,1,0,0,0,0,-2,1,-1
1528276952527803,-1,-1,-1,0,-1,0,-2,-1
1528276952527803,-2,0,0,1,-1,0,0,0
1528276952527803,-2,-2,-1,-1,-2,-1,-1,-2
1528276952527803,-2,-1,-2,0,1,-2,-3,-1
1528276952549744,0,-1,0,-2,0,-1,0,-2
1528276952549744,1,-1,0,0,-1,0,1,1
1528276952550742,-1,-1,-2,-1,-1,0,-2,-1
1528276952550742,-1,-1,0,-2,-1,-1,-1,-1
1528276952572683,0,0,-1,0,-2,-1,0,-1
1528276952572683,-2,0,-2,-4,-1,-1,-1,-1
1528276952573687,-3,0,0,1,0,-1,-2,0
1528276952573687,-2,-2,-2,-2,1,-2,-1,0
1528276952595622,-2,-2,-1,-2,2,-1,-1,-1
1528276952595622,0,-2,0,-2,0,-1,-2,-1
1528276952596619,-2,-2,0,-2,-2,-2,-1,0
1528276952596619,-1,-1,0,-1,-3,0,-1,-1
1528276952609924,0,-1,0,-2,-2,0,-1,-1
1528276952609924,-1,-1,-3,-2,-1,-1,-1,0
1528276952618175,-1,-2,-2,-1,-2,-1,0,-3
1528276952618175,1,-1,-1,0,-1,-2,-1,0
1528276952633445,-2,-1,0,-1,-2,-2,0,0
1528276952633445,1,-1,0,-1,-2,-1,-2,0
1528276952634175,-1,-1,-3,-1,-2,-1,0,-2
1528276952634175,-2,-1,-1,0,-1,0,-1,0
1528276952655118,-1,0,-2,-2,-1,1,-1,-1
1528276952655118,0,-1,-1,0,1,-1,-1,-2
1528276952663096,-1,-1,-2,0,-1,-2,-1,0
1528276952663096,0,-1,0,-1,0,1,0,-3
1528276952669080,-1,-2,-3,0,-1,-2,-2,-1
1528276952669080,-2,-1,-1,-2,0,-1,-1,-2
1528276952678056,0,0,-1,-1,0,2,-3,-2
1528276952678056,-1,-1,-2,0,-2,-2,0,-1
1528276952692267,-3,0,1,-1,-1,1,-1,0
1528276952692267,-2,-2,0,-1,-2,-1,-1,0
1528276952700995,-1,0,-1,-2,-1,-1,-1,0
1528276952700995,-2,0,0,-2,-2,0,-1,0
1528276952716370,-1,-2,-1,0,0,-2,-1,-2
1528276952716370,0,-1,-1,0,0,-1,0,-1
1528276952716954,-1,-1,-1,-1,0,-2,-2,-1
1528276952716954,-1,-2,0,-1,0,0,-1,-1
1528276952728921,-1,0,-2,-2,-1,-1,-2,-2
1528276952728921,-1,-2,-1,0,-3,-2,-1,-1
1528276952738222,-1,-1,0,-1,-1,-1,-1,-1
1528276952738222,-2,-1,-1,-1,-1,-2,0,-2
1528276952751956,-1,-1,0,-2,0,0,0,-1
1528276952751956,0,-1,-1,0,-2,0,-2,-1
1528276952760835,-1,-1,-3,0,-2,-1,-2,1
1528276952760835,0,-2,-2,-1,1,-2,-2,-1
1528276952776115,-3,-1,0,-1,-3,-2,0,-1
1528276952776115,0,0,-1,-3,0,-1,0,-1
1528276952777892,-1,-1,0,0,-2,-2,0,-2
1528276952777892,-1,0,-3,0,-2,-1,-1,-2
1528276952798901,-1,-1,-3,-1,-3,-1,0,-1
1528276952798901,-1,-1,0,0,-1,-3,-2,0
1528276952799731,-2,-1,-3,-2,0,-2,-1,0
1528276952799731,-1,-1,-2,-1,-2,-2,-1,-2
1528276952812697,0,-1,-3,-2,1,-1,-2,1
1528276952812697,-2,-3,-2,-1,-2,-1,-1,0
1528276952819943,0,-1,-1,-1,-2,2,0,0
1528276952819943,0,-2,-1,-1,0,-1,-2,0
1528276952843884,-1,-2,-1,0,0,-2,-2,0
1528276952843884,-2,-1,0,-2,-1,-1,-1,-1
1528276952844611,0,-1,-1,-1,0,-3,-1,-1
1528276952844611,-2,-2,-1,-2,-1,-1,-2,-1
1528276952848937,-1,-1,0,-1,-2,-3,-2,-2
1528276952848937,-1,-2,-2,-1,0,-2,1,-3
1528276952859076,0,-2,-2,-1,0,-1,0,-2
1528276952859076,-1,-1,-3,-2,-2,0,-1,0
1528276952873088,0,-1,-1,-1,-1,0,-3,-1
1528276952873088,-1,-1,-2,-1,-1,-1,-2,0
1528276952878861,-1,-1,-1,-1,-1,0,0,-1
1528276952878861,0,-1,-1,-2,-1,-1,0,0
1528276952895801,-2,-2,-1,0,-1,-1,0,-2
1528276952895801,-2,-1,-1,-1,1,1,-1,-1
1528276952897793,-2,0,0,-2,-1,0,-1,-1
1528276952897793,0,0,0,1,-1,0,-1,-2
1528276952910180,-1,-2,-2,-2,-2,-1,0,1
1528276952910180,-1,1,0,1,-1,-1,-1,-2
1528276952918738,-1,-2,-1,-1,-1,-2,-1,-1
1528276952918738,-3,-1,1,1,-1,-1,-3,-1
1528276952932703,0,-1,1,-2,-1,-2,0,-1
1528276952932703,0,-1,-1,-2,-1,0,-1,-1
1528276952940688,-1,-1,-1,-2,-2,0,-1,-1
1528276952940688,1,-2,-1,-1,-2,-2,-1,-2
1528276952955884,0,1,-1,1,-3,-2,0,-1
1528276952955884,-1,-1,-2,0,-1,-1,0,-1
1528276952957907,-1,-1,0,-1,-1,-2,-3,-2
1528276952957907,-1,-1,-1,-1,0,-1,1,-2
1528276952986012,-1,-2,-2,-2,1,-2,-2,-1
1528276952986012,-1,0,0,-2,-1,-2,-2,-2
1528276952987553,0,0,-2,0,0,-1,-1,-2
1528276952987553,-2,-2,0,-1,-1,0,-1,-2
1528276952992857,-1,-2,-1,-1,1,2,-1,0
1528276952992857,1,-1,-2,0,-2,-2,-1,-1
1528276952999764,0,-2,-1,-2,-1,0,0,-1
1528276952999764,-2,0,-2,-1,0,-1,-1,-3
1528276953016515,0,-1,-1,-2,-1,0,-1,-1
1528276953016515,-1,-2,-2,-1,-2,-3,1,-1
1528276953017473,-3,-1,0,-2,-2,-1,-1,0
1528276953017473,-1,-2,-1,-1,-1,0,-1,1
1528276953038827,0,0,-1,0,-1,-1,1,-1
1528276953038827,-2,-1,-1,-2,0,0,-1,0
1528276953040485,0,-1,-1,0,-2,-1,-1,-1
1528276953040485,-1,0,-1,-2,-1,0,-1,-1
1528276953052846,-2,-1,-2,0,0,0,-1,-3
1528276953052846,0,-1,1,-2,-1,0,-2,-1
1528276953059721,1,-1,-1,-1,0,-1,0,-1
1528276953059721,0,0,-1,-1,-3,-1,-1,-1
1528276953076402,1,-1,0,0,-1,-1,-1,0
1528276953076402,-1,-1,-1,-1,0,-2,-1,0
1528276953077313,0,0,-3,0,-2,-1,0,-1
1528276953077313,0,-2,-1,0,-1,0,-2,-2
1528276953098260,-2,-1,-1,-1,-2,-1,-1,-1
1528276953098260,-1,-1,-1,-1,-1,-1,0,-1
1528276953100264,-1,1,-1,-1,-1,-1,-1,0
1528276953100264,-3,-1,0,-1,1,-2,-1,-1
1528276953112223,-1,-1,0,-1,0,-2,-1,-1
1528276953112223,-2,-1,-2,0,0,0,-1,0
1528276953120930,1,0,-2,-1,-2,0,0,0
1528276953120930,1,0,-1,0,-2,0,-1,-2
1528276953135778,-2,-1,-2,-2,-1,-1,-2,-1
1528276953135778,-1,-2,-2,-2,-1,-2,-1,-2
1528276953137948,-2,0,-1,0,-1,0,0,-1
1528276953137948,-2,-1,-1,-1,1,-1,-1,1
1528276953158858,-2,-1,0,-2,0,-1,-1,-1
1528276953158858,0,-1,-1,-1,0,-1,-2,1
1528276953160627,-2,0,0,-2,-2,-3,-3,-2
1528276953160627,-1,-2,0,-1,-1,-2,-2,-1
1528276953181789,-1,-1,-1,0,-2,0,-1,-2
1528276953181789,0,-1,-3,-1,-1,-1,-1,0
1528276953183552,1,-2,0,-2,-1,-1,-2,0
1528276953183552,0,0,-1,-1,-1,-2,-1,-1
1528276953195785,-1,-2,-1,-2,0,-3,-2,-1
1528276953195785,-1,-1,-1,-1,-2,-1,-2,-1
1528276953197807,-2,-1,-1,-2,0,-1,-2,-1
1528276953197807,-1,-2,-1,-1,0,-1,-1,-1
1528276953218105,1,0,-1,0,-1,-1,0,0
1528276953218105,0,0,-2,-2,-1,-3,-1,-1
1528276953219898,-3,-1,0,-1,0,-1,0,0
1528276953219898,-1,0,-1,-1,-2,-2,0,-1
1528276953232022,-1,0,-2,-1,-2,-1,-1,-1
1528276953232022,1,-1,1,0,-3,1,0,-2
1528276953240906,-1,0,0,-1,1,0,-2,0
1528276953240906,-2,0,-1,-1,-1,-2,-2,-1
1528276953263971,0,0,-1,-1,-1,-1,0,1
1528276953263971,0,0,0,-1,-1,0,0,-1
1528276953264599,0,-2,-1,-1,-1,-1,-1,0
1528276953264599,0,-1,-1,-3,1,0,0,0
1528276953278649,-1,-1,-2,-1,-2,-2,-2,0
1528276953278649,-2,-1,-1,0,-2,-1,-1,-2
1528276953279559,0,-1,-2,-1,-1,-1,-1,-3
1528276953279559,-2,-2,-3,-1,0,-1,0,-1
1528276953292565,0,-1,0,-3,0,-2,-2,-1
1528276953292565,-1,0,0,-2,-2,0,-1,-1
1528276953317811,0,-2,-1,1,-2,-1,-1,-1
1528276953317811,-2,0,-1,0,-2,-1,-2,-1
1528276953319454,0,-1,-1,1,-1,0,0,-1
1528276953319454,0,-1,-2,-2,1,-2,-2,-2
1528276953321860,-1,-2,-1,-2,0,-2,-1,0
1528276953321860,1,-2,-1,-2,-1,-1,-1,-2
1528276953338404,-2,0,-1,-1,-2,-1,-1,-2
1528276953338404,-3,-1,-2,-1,-1,-2,0,-1
1528276953339402,-2,-1,-2,-1,-2,-3,0,0
1528276953339402,0,0,0,-1,-2,-2,-1,-1
1528276953352673,-1,-2,-1,-2,-1,0,-2,-1
1528276953352673,-2,-2,0,-1,0,-1,-1,0
1528276953360651,-1,-1,-1,-2,-1,-2,-2,-1
1528276953360651,1,-1,-1,0,-1,-1,0,-2
1528276953376592,-1,0,-1,0,0,-1,-2,-1
1528276953376592,0,1,-2,-2,-1,-1,-3,0
1528276953377310,-2,-2,-2,-2,0,0,0,-2
1528276953377310,-1,-3,-1,-1,-2,0,0,-1
1528276953398503,0,-2,-1,-1,0,-2,0,-1
1528276953398503,0,1,0,0,-2,0,0,2
1528276953400242,0,-1,-2,0,-2,-2,1,-1
1528276953400242,-1,-1,-1,-3,-1,0,0,-1
1528276953412206,-2,-1,-1,1,0,-2,0,-1
1528276953412206,0,-1,-1,-2,-1,0,-1,-1
1528276953421181,-2,-1,-1,-2,0,-1,-2,-2
1528276953421181,-2,0,-2,-1,0,-1,-2,-1
1528276953436500,0,-1,-1,0,-2,1,-1,0
1528276953436500,-1,-2,-1,1,-3,-1,-1,-2
1528276953437150,0,-1,-1,-1,-1,-1,-1,-1
1528276953437150,-1,-1,-2,0,-1,-1,0,-1
1528276953458484,-1,-3,0,-2,-2,-3,-1,-2
1528276953458484,-1,-1,0,-1,-2,-1,0,-1
1528276953460078,-1,-1,0,-2,-3,0,-2,-1
1528276953460078,-1,-1,0,0,-1,-3,-3,-2
1528276953472155,-2,0,-1,-1,1,0,0,-1
1528276953472155,-2,-4,0,0,0,0,1,-2
1528276953481021,1,0,1,0,-1,0,-2,-1
1528276953481021,-3,0,-1,0,-2,-1,-1,0
1528276953495997,-1,-1,-2,-1,-2,0,0,-1
1528276953495997,-1,0,-1,-1,-1,-3,-2,0
1528276953497976,-1,0,-1,0,0,1,0,0
1528276953497976,-1,-2,-1,-2,0,0,0,0
1528276953518270,0,-1,0,-1,-3,-3,-2,-1
1528276953518270,0,-1,-2,-1,-2,-3,-2,-2
1528276953519936,-1,-1,0,-1,-1,0,-3,0
1528276953519936,0,-1,-2,0,-2,-1,-1,-2
1528276953533130,-2,-2,-2,-2,1,-1,0,-2
1528276953533130,-2,-1,-1,-1,1,0,-2,-1
1528276953540906,-2,-2,-1,-1,-1,-1,1,-3
1528276953540906,-1,-2,-1,-2,1,-1,-1,0
1528276953556169,0,-2,-1,0,-3,-2,-2,-3
1528276953556169,0,0,-2,-1,-1,0,0,-2
1528276953557194,-1,-1,-1,1,-2,0,-2,0
1528276953557194,-1,-1,0,-1,-1,0,0,-2
1528276953586092,1,-1,-1,0,-1,-1,-1,0
1528276953586092,-2,-2,0,-1,1,-2,-1,-1
1528276953587343,-1,-3,0,-1,-3,-2,0,0
1528276953587343,-1,0,-2,0,-1,-2,-1,-1
1528276953592606,0,0,-1,-1,-1,-2,-2,0
1528276953592606,-1,-1,-1,-1,-1,-3,-2,0
1528276953600779,1,-1,0,-1,1,0,-1,0
1528276953600779,-2,-2,0,-1,-1,0,-1,0
1528276953615421,-1,-1,-1,-1,-2,0,0,-1
1528276953615421,-1,-1,-3,0,-1,0,-1,0
1528276953617361,0,0,-2,-4,-2,-1,-2,-1
1528276953617361,0,-2,0,0,-2,-1,0,-1
1528276953638305,-2,0,-2,-1,0,0,0,-1
1528276953638305,1,-1,-1,-3,-3,-3,-2,-2
1528276953639349,-3,0,1,-1,-1,-2,-1,-1
1528276953639349,-2,-2,-1,0,0,0,-2,0
1528276953652268,0,-1,-2,-1,0,-1,0,-1
1528276953652268,-2,0,-2,0,1,-1,-1,-1
1528276953661244,-1,-1,-3,0,0,0,-1,0
1528276953661244,-1,-1,-2,-2,-1,-2,-1,-1
1528276953674264,-1,-1,0,-1,-2,-1,-1,-2
1528276953674264,0,0,2,1,-3,-2,0,-1
1528276953683186,-1,-3,-3,-2,-1,-3,-2,-3
1528276953683186,2,0,-5,-2,-3,-1,-2,0
1528276953698190,-1,0,0,-2,-1,0,-2,-1
1528276953698190,-2,-2,-4,-4,-1,-2,-2,1
1528276953700195,-1,-1,0,6,3,0,0,-1
1528276953700195,-2,-1,0,1,-1,1,-2,-2
1528276953728120,-3,-2,-2,-3,-2,-3,-1,0
1528276953728120,0,0,3,0,0,0,1,1
1528276953730061,-1,0,-1,-4,-1,-2,-3,-5
1528276953730061,0,0,-2,-3,-1,-2,-2,-1
1528276953735101,0,0,0,0,0,-1,-1,0
1528276953735101,-2,-2,-1,0,0,0,-1,-1
1528276953742080,-1,-2,-3,-2,0,-1,0,0
1528276953742080,-4,0,0,-2,-1,-2,0,-2
1528276953773997,-1,-2,-3,-1,0,-3,0,-2
1528276953773997,-2,-2,-3,-2,-2,-2,1,0
1528276953775980,-1,-1,-2,1,-1,-2,0,0
1528276953775980,-3,-1,-2,0,-1,1,0,-3
1528276953775980,-1,0,-2,-1,-1,-1,-1,0
1528276953775980,-1,-4,-3,0,-1,-2,-2,-2
1528276953780924,0,1,1,0,-2,1,-2,1
1528276953780924,0,0,-1,-1,0,-1,-1,0
1528276953794932,-2,0,-3,-1,-2,0,-1,-2
1528276953794932,0,-1,-1,-1,-1,1,-1,-1
1528276953819896,-1,-1,-1,-1,-1,-2,-1,-1
1528276953819896,0,-1,-1,0,-1,-1,-1,-1
1528276953820818,-2,-1,0,-1,0,0,-1,-1
1528276953820818,-2,1,0,0,-2,0,-1,-2
1528276953824859,1,0,-1,-1,-2,-2,0,-1
1528276953824859,-3,-1,-1,-1,-1,-1,-1,-1
1528276953831843,0,-1,-1,1,0,-1,-2,-2
1528276953831843,-1,-1,-1,-2,-2,-2,-2,-1
1528276953840766,-2,0,-1,0,-2,1,-1,-1
1528276953840766,-1,-1,-1,0,-1,-2,-1,-3
1528276953862761,-1,-1,-1,0,-3,0,-2,0
1528276953862761,-1,-1,-2,-1,0,0,-1,-2
1528276953864700,-1,-1,-1,-1,-2,-1,0,1
1528276953864700,0,0,-1,-1,0,-2,-1,-1
1528276953878662,-1,-2,-1,-3,-2,-1,0,0
1528276953878662,-1,-1,-1,-2,-2,-1,0,-1
1528276953879711,-1,-2,-2,-2,0,0,-2,-2
1528276953879711,-2,-2,-2,1,-1,-1,1,1
1528276953891629,-2,-1,-1,-1,-1,-2,0,-1
1528276953891629,-2,0,-2,-1,-2,-2,-1,-1
1528276953908609,-2,0,0,-1,-1,0,-2,-1
1528276953908609,0,-1,-1,-2,-1,1,-3,-1
1528276953914567,0,-1,-2,-1,-1,-1,-2,-1
1528276953914567,0,-2,-1,-2,-2,-1,0,-1
1528276953921548,-2,-2,-3,-2,-2,-2,0,0
1528276953921548,-2,-2,1,-1,0,-1,-1,-2
1528276953938749,-2,-1,0,0,-1,1,-1,-1
1528276953938749,-1,0,0,0,1,-1,0,-1
1528276953939742,-1,-1,-1,-1,-1,0,-1,-1
1528276953939742,0,0,-1,-2,-1,-1,0,-1
1528276953961465,0,-2,-1,-1,0,-2,-1,-2
1528276953961465,-1,-3,-2,-2,-2,-1,-1,-2
1528276953962439,-1,-1,-1,-1,-2,-1,-3,-1
1528276953962439,0,0,-1,-2,-1,-1,0,-1
1528276953975647,0,0,-2,-1,0,0,1,-3
1528276953975647,0,-1,-1,-1,-1,-1,-2,-2
1528276953982565,-2,-1,-2,0,-1,-1,0,-3
1528276953982565,-2,-1,-1,0,-3,-1,-3,0
1528276954005619,-2,-1,-1,0,1,-1,-1,1
1528276954005619,-2,0,0,0,-3,-1,-2,0
1528276954007610,-1,-1,0,-1,-1,-1,0,-1
1528276954007610,-1,-2,-1,0,-3,-2,-3,-1
1528276954021578,0,-2,-2,-2,0,-1,0,-1
1528276954021578,-1,-2,-2,-1,0,-1,0,-4
1528276954022571,-1,0,-2,-1,-2,-1,0,0
1528276954022571,0,-1,-1,1,0,-1,-1,-2
1528276954050807,-2,-2,1,0,0,-1,-2,0
1528276954050807,-1,-1,-1,-2,0,-1,-1,-1
1528276954052801,-1,-1,0,-2,-3,-2,-1,0
1528276954052801,1,-2,-3,-1,0,0,0,-1
1528276954058490,-2,-3,-2,-2,-1,0,-1,-1
1528276954058490,-1,0,-1,0,0,-1,-1,0
1528276954060162,0,1,-2,-3,1,-1,0,-1
1528276954060162,0,-2,-1,-1,-1,-2,0,0
1528276954096088,0,0,0,0,-2,-1,-2,-1
1528276954096088,-1,-1,-1,-2,1,-2,0,-1
1528276954098060,-1,-3,0,0,0,-2,-1,-2
1528276954098060,0,-1,-1,0,0,-2,1,0
1528276954099058,-1,-1,0,-1,-1,-2,-3,0
1528276954099058,-1,-1,0,-1,-1,2,0,-1
1528276954103046,-2,-1,1,-1,-1,0,-2,-2
1528276954103046,-1,0,2,-2,-1,-2,0,-1
1528276954118242,-1,0,-2,-1,-1,-1,-1,-2
1528276954118242,-1,-2,-1,-1,-1,-1,-1,0
1528276954120001,1,-1,-1,-2,-1,-1,0,-1
1528276954120001,-2,-1,-1,-2,-1,0,-2,-2
1528276954141280,0,-1,-1,-1,0,-1,-2,0
1528276954141280,1,-1,-2,0,1,1,-2,-1
1528276954143012,0,-1,0,-2,-1,-1,-1,-2
1528276954143012,-1,-1,-1,0,-1,-1,0,0
1528276954155056,-1,-1,0,-1,-2,-2,-1,-1
1528276954155056,-2,-1,-3,-1,-1,-2,-2,-1
1528276954164143,-1,-1,-1,-1,-1,-1,-1,0
1528276954164143,-1,-1,-2,-2,-1,-2,0,-1
1528276954186471,-3,-1,-1,-1,-2,-2,0,-2
1528276954186471,-2,0,-1,0,0,-2,-1,0
1528276954187127,-1,-2,-1,-1,-1,0,0,0
1528276954187127,-2,-2,0,-2,-1,0,-1,-2
1528276954201338,0,1,-2,-2,0,-1,-1,-2
1528276954201338,-1,-1,-1,-1,-1,0,0,-1
1528276954203079,-2,1,0,1,1,-1,-1,0
1528276954203079,0,0,-2,0,-1,-2,-3,-1
1528276954214304,-2,-2,0,1,-1,-1,0,-2
1528276954214304,1,-1,-1,0,0,-2,0,-2
1528276954231004,-1,-2,-2,0,0,-1,-1,-1
1528276954231004,-1,-1,-2,-2,-1,0,-1,-1
1528276954238279,0,-2,0,-1,-1,0,-1,0
1528276954238279,-2,-1,-1,-2,-1,0,-1,-1
1528276954239981,0,0,-2,-2,-1,-2,-1,-1
1528276954239981,-1,-1,-1,-1,0,0,-2,0
1528276954261240,0,-1,-2,-2,-1,-1,-3,-1
1528276954261240,-1,1,-1,-2,-1,-1,0,-1
1528276954262221,-1,-3,-2,0,-1,-1,0,0
1528276954262221,-1,-1,0,0,-2,-1,-2,-2
1528276954274451,0,1,-2,-1,-2,-1,1,0
1528276954274451,0,-1,-1,-2,-2,-1,-2,1
1528276954283182,-1,-1,-1,-1,-1,-1,-1,-1
1528276954283182,0,0,-2,-3,-1,-1,-1,0
1528276954298392,-2,-2,-1,-1,0,-2,-2,-2
1528276954298392,-2,-1,0,0,-1,-1,-2,-1
1528276954300379,-1,-1,-1,0,-1,-1,-1,-1
1528276954300379,0,-1,0,-1,-2,-2,-2,0
1528276954320333,0,-1,-1,-1,0,-3,-1,-2
1528276954320333,0,0,-1,-1,-2,-1,-1,-1
1528276954322322,1,-2,-1,-2,-2,-2,-2,-1
1528276954322322,-1,-1,0,-1,-1,1,0,-2
1528276954334613,-1,-2,-1,-1,0,-1,-1,0
1528276954334613,-1,-1,-1,-1,0,-2,0,-1
1528276954343690,0,-2,-2,1,0,0,-1,-3
1528276954343690,-1,-1,-1,-1,-1,-2,-1,-1
1528276954358916,0,-1,-2,-2,0,1,-1,0
1528276954358916,-1,-1,-1,-1,-2,0,-1,-2
1528276954360659,0,0,0,-2,-2,-1,-1,1
1528276954360659,-2,-2,1,1,0,0,0,-1
1528276954380591,2,-1,-1,0,0,-1,0,0
1528276954380591,-2,-1,-2,-2,-3,-2,-2,-1
1528276954382586,-3,-1,-3,-3,-2,-2,-1,-2
1528276954382586,-1,1,-1,-1,-3,-3,-1,-4
1528276954394878,-2,-2,-1,0,-1,0,-1,-2
1528276954394878,2,-1,-1,0,0,-1,1,-1
1528276954403531,-1,-3,0,-1,1,-1,0,-1
1528276954403531,-2,-3,-3,-2,-1,-1,1,0
1528276954418652,-1,-1,1,-1,-1,-1,-2,-2
1528276954418652,-1,0,-1,-1,-2,0,0,0
1528276954419773,-2,0,0,-1,-1,-1,-1,0
1528276954419773,-1,-1,-1,-1,1,-2,-1,-3
1528276954441620,-1,-1,-1,0,-2,0,-1,-1
1528276954441620,0,-3,-2,0,-2,-1,-2,-2
1528276954442440,0,1,0,-1,-2,-2,-1,-1
1528276954442440,-1,-1,-1,-1,-2,-1,0,-2
1528276954454743,-2,0,-2,0,-2,0,-2,0
1528276954454743,-2,-1,-2,-1,-1,0,0,-1
1528276954463386,-2,-1,-1,-2,-1,0,-1,-1
1528276954463386,-1,-1,-1,0,0,-1,-2,1
1528276954478330,-1,0,-1,-3,-2,-2,1,-1
1528276954478330,-2,0,0,-1,1,-1,-1,1
1528276954479327,0,0,-1,-1,-2,-2,-1,-1
1528276954479327,-1,-1,0,0,-1,0,-2,0
1528276954501295,-1,0,-2,-1,-2,0,-1,-2
1528276954501295,-1,-2,0,-2,1,0,-1,-1
1528276954502274,-1,-2,-2,0,1,0,-1,-3
1528276954502274,1,-2,-2,-2,-2,-1,-2,-1
1528276954514237,-1,-1,0,-2,-1,-1,-2,-2
1528276954514237,-1,0,-1,-2,-2,-1,0,-1
1528276954523210,-2,0,0,0,0,0,-1,0
1528276954523210,-2,-1,-1,-2,0,-2,-1,-1
1528276954538873,-1,-1,0,0,-1,-2,-2,1
1528276954538873,0,-2,-1,0,0,-1,0,-1
1528276954540677,0,0,-2,-1,-1,-1,0,1
1528276954540677,-1,0,0,-1,-1,-1,-1,0
1528276954561639,-1,0,-2,-1,0,-1,-1,-3
1528276954561639,-1,-1,0,-1,-2,-1,-3,-3
1528276954562620,0,-1,-2,-1,-2,0,-2,-1
1528276954562620,0,-2,-1,-2,0,0,0,-1
1528276954574935,-1,-1,-2,0,-1,-2,-1,-2
1528276954574935,-1,0,0,0,-1,0,0,0
1528276954583565,-3,-1,-1,-1,0,0,1,-1
1528276954583565,-1,-1,-2,-2,-3,0,-3,0
1528276954598528,-2,-1,-3,-1,-2,0,-1,0
1528276954598528,-1,0,-1,-2,-1,-2,0,0
1528276954604511,-2,-1,0,-1,-1,-2,-1,-2
1528276954604511,-1,0,-1,0,0,-2,-1,-2
1528276954620466,-2,-1,0,-1,-2,0,0,-2
1528276954620466,-1,-3,-1,-1,1,-2,-2,-2
1528276954622460,-1,-1,-1,-1,0,0,-1,-2
