timestamp,emg1,emg2,emg3,emg4,emg5,emg6,emg7,emg8
1528452027943960,0,1,-11,-12,-1,-2,-2,0
1528452027943960,-4,-1,14,2,-15,-12,-4,-3
1528452027952936,-3,-3,2,-1,-6,-2,-4,-2
1528452027952936,0,-1,21,-3,3,0,1,-1
1528452027966899,0,3,7,11,13,20,5,2
1528452027966899,2,1,-57,-2,10,-1,4,2
1528452027973881,-1,0,2,-14,-12,-1,-3,-1
1528452027973881,0,0,14,0,13,6,-3,0
1528452027988846,-3,-7,-26,-18,-47,-24,1,-3
1528452027988846,1,1,-2,3,39,48,3,4
1528452027996820,1,10,88,54,15,-25,3,-2
1528452027996820,-5,-10,-73,-9,2,24,-4,-1
1528452028011780,-3,0,30,-22,-32,-47,-8,-5
1528452028011780,-1,4,12,9,-6,18,-5,-5
1528452028018760,3,4,-1,-25,36,52,9,1
1528452028018760,-2,-2,81,61,9,-12,7,0
1528452028026742,-5,-27,2,-11,-16,-15,-5,-4
1528452028026742,-4,-12,-65,-44,-55,8,-17,-7
1528452028033720,-3,22,63,-14,-10,-101,-7,-1
1528452028033720,10,17,11,-6,-46,69,9,3
1528452028050698,-3,-24,90,76,69,16,9,7
1528452028050698,3,-5,-60,-9,19,-5,9,6
1528452028056659,3,17,-1,-2,23,28,-4,-2
1528452028056659,-6,0,-21,-10,-27,-46,-15,-6
1528452028071619,9,24,67,47,-8,7,0,2
1528452028071619,-8,-12,31,-49,-23,-7,-5,-5
1528452028078603,-8,-21,-56,-28,-36,-7,-3,-5
1528452028078603,-10,-34,-107,-51,-18,28,-7,-7
1528452028086580,-2,10,-2,18,-24,-63,-4,0
1528452028086580,7,33,-16,53,59,37,8,1
1528452028095739,-11,-32,-28,-21,27,-4,5,0
1528452028095739,16,22,113,84,50,27,10,10
1528452028108866,-17,-21,-90,-73,47,-11,-10,-10
1528452028108866,7,37,70,47,-84,-92,-10,-1
1528452028116847,6,-14,5,25,17,110,4,7
1528452028116847,-9,-7,-95,-26,4,-54,0,-7
1528452028131806,1,25,108,6,53,63,5,-3
1528452028131806,13,-16,63,6,18,-20,-10,34
1528452028138787,-32,3,-74,-8,-74,-1,-8,-56
1528452028138787,-3,13,119,21,30,-3,-3,-16
1528452028161726,-11,-43,-97,-17,-20,-66,-11,-11
1528452028161726,-16,-18,-111,-78,-102,-45,-14,-13
1528452028168722,4,9,85,63,74,-3,6,4
1528452028168722,-2,17,19,69,39,23,1,22
1528452028176688,-20,-52,-79,-53,17,48,4,-24
1528452028176688,-16,-15,-29,48,8,-1,-3,-15
1528452028183700,-14,-31,-78,-75,-34,-12,-10,-20
1528452028183700,3,18,-26,-43,-30,-14,-5,4
1528452028191685,-13,25,54,69,19,6,1,5
1528452028191685,14,7,52,-50,-45,-42,-14,4
1528452028206605,8,1,-6,29,-19,-11,1,-6
1528452028206605,8,17,14,19,53,32,14,-3
1528452028213614,-17,-64,-63,-74,-27,-7,-3,11
1528452028213614,-9,36,30,65,60,33,9,37
1528452028236526,53,42,13,-44,-22,-13,5,-16
1528452028236526,-4,-23,39,68,-5,-2,5,20
1528452028243510,39,72,43,14,-18,-7,3,7
1528452028243510,-4,-48,-57,8,29,16,4,13
1528452028258519,-35,7,-49,2,1,0,-5,-9
1528452028258519,-18,3,-30,-63,-16,-3,6,-30
1528452028266498,-14,14,7,44,5,6,0,7
1528452028266498,12,16,38,40,13,4,-4,-15
1528452028273479,-1,-20,-89,53,-10,0,-4,29
1528452028273479,-4,-49,17,-57,-23,-19,-14,-38
1528452028289506,-3,-35,-5,-7,-1,3,0,-15
1528452028289506,-39,4,35,39,4,1,6,-36
1528452028296375,-7,3,23,-10,-16,-12,-14,-80
1528452028296375,-47,-12,11,3,15,9,7,2
1528452028311328,8,-9,85,28,-5,2,0,36
1528452028311328,24,3,-40,-12,-8,-9,-2,51
1528452028319329,21,19,21,-41,-3,3,-8,25
1528452028319329,-9,25,-3,-2,-3,-3,-1,-99
1528452028326304,-17,-5,-37,18,5,2,-3,0
1528452028326304,-27,-6,-58,-45,-14,-7,-2,-12
1528452028334304,-12,-7,84,16,15,5,6,18
1528452028334304,40,-41,9,7,6,8,15,21
1528452028350222,-25,49,-16,-24,-8,-4,-2,25
1528452028350222,0,22,-22,33,-3,-12,-12,1
1528452028356242,31,-7,-30,9,-1,-1,4,20
1528452028356242,8,-1,-3,38,10,11,-2,16
1528452028371165,-17,4,75,-54,-12,0,33,-40
1528452028371165,-2,-1,74,-21,-1,-5,-58,-9
1528452028379144,-12,-8,-38,102,1,-5,-1,10
1528452028379144,27,0,3,-68,-5,0,6,40
1528452028386125,7,13,25,27,6,4,-7,-5
1528452028386125,-2,-10,-64,7,-7,-6,14,-21
1528452028394104,9,-19,-55,-15,-6,-3,4,58
1528452028394104,-12,-7,42,38,0,-8,-24,-54
1528452028416046,-6,-2,-86,-39,1,2,-2,-17
1528452028416046,11,-18,-60,-15,2,1,11,6
1528452028424025,9,9,85,14,3,1,1,-4
1528452028424025,-24,7,-57,-31,-3,1,9,12
1528452028438984,1,1,25,33,3,9,-9,-4
1528452028438984,24,11,16,16,-9,-9,-7,11
1528452028446012,-14,-12,14,25,5,0,-3,-16
1528452028446012,-7,-6,40,-47,-11,-5,-10,-1
1528452028453972,7,-11,5,69,-16,-52,-19,4
1528452028453972,6,10,80,-21,-35,20,14,4
1528452028468904,7,36,17,-17,4,18,-13,-4
1528452028468904,-9,-70,-38,-24,-6,-24,6,12
1528452028475886,-16,6,6,-14,-16,-8,-7,-23
1528452028475886,1,0,73,20,-5,-9,-7,5
1528452028491845,9,13,17,-49,-7,-8,-5,4
1528452028491845,-2,-1,-9,-3,-36,-11,7,0
1528452028498825,7,16,61,-19,-11,38,-4,1
1528452028498825,-3,-9,12,35,82,-31,5,5
1528452028506830,-12,-44,-92,-11,-26,15,7,7
1528452028506830,30,25,84,78,27,3,8,2
1528452028513785,-3,36,78,76,-11,-14,-7,-7
1528452028513785,-12,-33,-31,-1,-33,3,-12,-8
1528452028528772,3,-15,61,-13,12,-9,-6,6
1528452028528772,-27,-23,-29,-31,3,-3,-17,-26
1528452028536723,-27,0,0,-6,-12,-21,-1,-14
1528452028536723,14,-12,-30,-39,-20,5,-8,-30
1528452028551714,8,14,-8,28,11,4,-9,16
1528452028551714,22,33,25,-9,6,21,11,22
1528452028558691,-16,-47,-11,-20,-9,-17,6,5
1528452028558691,-14,1,-22,-24,-10,-16,-10,-58
1528452028566669,28,-2,78,64,18,27,10,1
1528452028566669,18,39,-6,-5,28,8,3,9
1528452028573626,-10,-85,-107,-75,-9,-24,-18,-16
1528452028573626,-41,24,-6,34,-19,1,8,33
1528452028588585,-3,9,76,-99,0,9,3,-11
1528452028588585,9,15,3,50,0,-15,-6,-2
1528452028596590,-6,-7,-60,-16,-4,-13,-5,-1
1528452028596590,4,-50,-77,8,-14,10,0,6
1528452028611580,-49,-36,-38,-21,-10,-11,11,-20
1528452028611580,4,11,22,15,21,9,-5,12
1528452028618505,37,60,-35,-12,-5,4,2,21
1528452028618505,16,-63,-62,-35,-13,-9,-15,7
1528452028626484,45,37,71,78,7,-5,2,-13
1528452028626484,-50,-28,40,2,-3,-1,-7,-27
1528452028633466,-30,-5,0,13,-2,-2,-6,-27
1528452028633466,2,54,-24,-76,1,13,19,30
1528452028649471,53,-6,41,5,-8,-13,-12,9
1528452028649471,-15,-38,-45,-28,-13,-4,-10,-30
1528452028656404,13,-12,50,26,8,1,-2,28
1528452028656404,4,36,12,20,-2,-1,-2,-20
1528452028671364,-13,-49,-83,-31,-2,1,3,8
1528452028671364,11,30,-63,14,9,-6,-9,-7
1528452028678385,-33,26,111,6,-6,-4,1,10
1528452028678385,5,-45,-33,-39,-12,-5,-9,30
1528452028686382,-10,15,-27,13,7,2,5,32
1528452028686382,19,-24,-25,-1,-13,-8,-11,-23
1528452028694320,67,86,40,-16,10,5,10,53
1528452028694320,-67,6,27,11,-9,5,7,-57
1528452028709262,-20,6,30,24,7,4,-6,5
1528452028709262,-10,4,2,-17,-7,-1,8,14
1528452028716497,-4,-28,-4,-20,-4,5,-8,-27
1528452028716497,43,11,-18,-28,1,1,-1,20
1528452028731440,8,53,48,38,7,-1,8,24
1528452028731440,-35,-25,31,-48,-2,0,8,-22
1528452028739593,20,-36,-59,16,-14,0,-6,29
1528452028739593,20,23,-18,-40,10,6,1,20
1528452028746480,-18,-17,-24,17,4,-1,7,-32
1528452028746480,48,84,12,-16,-4,-11,-4,41
1528452028754642,-58,-94,-64,-39,-5,7,-1,-39
1528452028754642,-24,-25,-25,23,1,1,0,-14
1528452028769624,-10,-2,68,47,-2,4,3,4
1528452028769624,-21,-65,-39,-64,-30,-4,6,7
1528452028776608,22,86,57,31,27,8,16,-4
1528452028776608,-6,-76,-69,-47,7,19,0,16
1528452028791608,-14,-15,18,18,18,13,-5,-2
1528452028791608,-1,16,72,-32,15,17,-20,-50
1528452028798550,3,3,-48,-9,-20,-35,-1,10
1528452028798550,10,54,18,48,8,35,0,3
1528452028806836,-22,-66,-127,-61,1,-6,3,-14
1528452028806836,11,1,84,-14,-21,-20,-11,22
1528452028813508,7,15,-4,-22,-13,-3,-1,-8
1528452028813508,7,47,108,-26,-16,-54,-1,-8
1528452028828506,-14,-28,-64,9,-48,-50,-12,-18
1528452028828506,9,47,0,73,62,66,32,28
1528452028836449,15,26,42,65,63,34,22,-2
1528452028836449,4,-32,-5,-10,-86,12,-7,3
1528452028851455,0,9,40,-37,49,-53,-10,1
1528452028851455,-11,-13,18,27,-10,-52,0,6
1528452028858390,-1,47,67,28,22,-46,2,-11
1528452028858390,17,32,71,32,31,-74,12,3
1528452028866368,25,37,23,3,-77,-37,-3,5
1528452028866368,-10,-40,-78,19,3,-3,-10,-13
1528452028873362,-19,-30,13,-52,-17,92,1,9
1528452028873362,9,-3,-32,2,-8,114,-21,-1
1528452028889359,-7,12,101,-10,9,100,5,-9
1528452028889359,9,25,14,54,-3,64,13,19
1528452028896342,-11,-32,-30,-10,-9,38,-8,-16
1528452028896342,-14,-4,-12,-3,56,7,5,16
1528452028911248,35,25,2,0,-13,15,5,-12
1528452028911248,-11,1,-16,-20,-14,-56,-65,-26
1528452028919281,-7,-15,-42,-4,5,-76,18,-2
1528452028919281,-15,10,12,24,8,-33,32,-5
1528452028926208,3,-1,-49,-35,15,-31,-8,2
1528452028926208,4,-1,-39,-27,-19,-37,16,4
1528452028934240,9,-8,9,-13,-35,-46,-34,-6
1528452028934240,4,11,45,78,26,9,8,5
1528452028949201,-5,-19,-68,-71,0,13,2,6
1528452028949201,29,59,86,14,-5,0,-1,3
1528452028956183,10,38,90,-4,8,11,7,9
1528452028956183,2,-47,16,15,-3,0,4,8
1528452028971144,-51,-3,-8,-12,6,10,13,-4
1528452028971144,21,-28,-8,-14,-2,10,6,0
1528452028979121,16,68,-45,22,14,15,-6,-16
1528452028979121,-57,-39,71,-11,-13,-14,2,-1
1528452028986102,30,36,-68,-48,-15,-13,-18,21
1528452028986102,-7,-5,3,25,18,23,32,-24
1528452028994027,10,-6,-29,-25,-15,2,-2,-3
1528452028994027,31,45,79,32,14,-1,1,2
1528452029009041,-53,-48,-51,1,3,3,-4,-17
1528452029009041,-19,35,77,20,-6,-13,-6,-13
1528452029016023,3,-29,-40,-45,-17,-4,-12,3
1528452029016023,8,-27,-44,-27,-15,-14,-11,-42
1528452029030983,41,56,-7,6,15,13,1,23
1528452029030983,-6,2,68,39,-19,-13,-10,-15
1528452029038961,-46,-81,36,3,-5,-4,-11,-18
1528452029038961,0,-40,-70,-53,-12,-12,-7,22
1528452029045945,-8,33,101,37,-7,-4,-15,-17
1528452029045945,15,-45,6,3,21,12,2,19
1528452029053924,-92,-68,-54,-12,-22,-17,-17,-5
1528452029053924,11,20,-9,-46,-6,-8,0,7
1528452029068827,8,-26,-47,-21,-4,0,-10,26
1528452029068827,-32,11,56,74,18,34,42,10
1528452029076807,56,46,58,-6,-7,-13,-27,-12
1528452029076807,-9,16,-51,9,6,1,-11,-10
1528452029091766,-9,-5,74,20,3,-1,7,-12
1528452029091766,-22,-66,-128,-30,-18,-10,0,28
1528452029098748,11,0,-83,-20,-2,5,2,-7
1528452029098748,-4,12,19,46,10,8,9,2
1528452029106725,24,86,73,-19,18,12,-9,-17
1528452029106725,-9,-89,-70,-14,-14,-13,-16,3
1528452029113706,10,11,-16,-26,-35,-30,3,3
1528452029113706,-4,45,97,66,29,34,3,-14
1528452029128666,-1,-3,23,88,35,6,10,7
1528452029128666,1,-51,-53,-81,-10,29,0,-3
1528452029136672,3,-12,11,22,53,31,7,3
1528452029136672,1,5,-23,3,-61,-75,-8,0
1528452029151869,3,-19,49,-53,-21,-12,-24,-4
1528452029151869,1,53,-37,-25,-6,-30,-7,-6
1528452029166828,-12,-22,89,43,-16,-6,-10,-9
1528452029166828,17,47,-29,-64,47,32,13,11
1528452029174114,-8,-96,-128,-52,-65,34,-14,-16
1528452029174114,-14,-45,-41,-45,16,-88,2,-9
1528452029189045,-19,-44,-30,35,-3,-79,0,-54
1528452029189045,-5,-17,-68,-87,-34,73,-10,-11
1528452029204323,2,10,15,5,-38,127,-6,-4
1528452029204323,-21,-16,-3,-1,-5,127,-25,-14
1528452029212090,19,22,-3,-30,7,127,27,11
1528452029212090,5,46,55,73,20,87,0,15
1528452029226391,12,-5,-80,-14,11,42,10,-2
1528452029226391,-6,-6,-8,-11,-34,35,-26,-20
1528452029234782,-9,-1,-16,9,-3,22,5,10
1528452029234782,0,25,21,8,-4,-3,0,-9
1528452029249535,0,-4,-34,-1,17,-111,-3,5
1528452029249535,0,36,31,31,27,-79,11,5
1528452029264536,-2,-7,-26,-14,-5,-53,-12,-7
1528452029264536,0,3,-35,-17,-25,-33,-3,-10
1528452029271508,0,10,77,29,0,-29,-3,3
1528452029271508,18,18,-47,8,5,1,-15,14
1528452029286476,-23,0,-58,-29,-8,5,11,-20
1528452029286476,10,-4,-38,-13,-2,16,0,1
1528452029294183,-1,18,10,17,14,14,1,-5
1528452029294183,19,31,98,-16,-17,-15,-12,3
1528452029316155,55,-47,26,-7,9,15,11,74
1528452029316155,-14,25,72,29,2,8,3,-23
1528452029331084,52,61,-27,-17,-6,-1,-2,21
1528452029331084,-13,-9,-15,-71,-7,3,-3,-29
1528452029339063,-66,-33,66,32,2,1,4,-55
1528452029339063,-3,-26,-38,-30,-3,-1,3,9
1528452029354246,-8,-22,17,22,-9,-10,-7,-4
1528452029354246,12,-4,-8,7,8,5,8,14
1528452029362052,5,9,-99,-13,-12,-7,-11,3
1528452029362052,-3,-36,-21,-5,6,5,-1,-5
1528452029369277,-25,79,78,73,-2,-6,-10,-10
1528452029369277,24,-58,-123,-42,-22,-10,-7,13
1528452029384235,-29,-14,44,0,-1,-2,-10,-3
1528452029384235,31,-1,92,40,-9,2,-6,-33
1528452029392089,38,16,-76,-39,7,1,7,12
1528452029392089,-7,34,31,24,2,-6,4,5
1528452029406953,-12,-43,-19,7,-7,-5,-6,1
1528452029406953,29,63,10,-16,-11,-2,-4,32
1528452029414412,-15,12,19,-5,4,4,1,-6
1528452029414412,33,34,66,32,4,-3,-1,7
1528452029429603,13,-21,-73,-55,-6,-5,3,16
1528452029429603,-8,44,-2,17,7,3,3,3
1528452029444289,-21,-66,-35,-86,-22,-7,-5,-23
1528452029444289,-5,-27,50,48,-9,-7,-5,6
1528452029451570,-6,-17,-85,-37,-14,-13,9,-3
1528452029451570,-20,-14,13,37,9,12,0,-16
1528452029466230,11,40,40,-9,5,3,-1,-14
1528452029466230,1,-5,-91,-40,-3,-4,0,10
1528452029474594,-5,-38,-50,-2,-2,-1,0,1
1528452029474594,-10,16,-18,10,-7,-10,-8,-9
1528452029489545,-23,-35,-5,33,4,-4,-9,-20
1528452029489545,2,-6,-48,-25,6,5,5,1
1528452029504550,0,-9,-44,-62,-25,-10,-7,5
1528452029504550,-5,-6,3,-2,-9,-10,-3,-7
1528452029511414,0,7,38,31,9,11,-2,-3
1528452029511414,1,-4,-22,-63,-14,-9,8,11
1528452029526217,22,27,78,22,16,3,2,12
1528452029526217,-19,16,32,86,-5,-6,-12,-22
1528452029534440,-7,-34,29,-20,16,6,-1,-1
1528452029534440,-1,-15,53,49,3,29,-1,3
1528452029549621,3,17,85,42,5,-11,-3,1
1528452029549621,-10,-7,-27,-3,8,8,1,-6
1528452029564194,-1,-1,-13,49,33,24,4,1
1528452029564194,0,-11,-58,-39,-22,-27,-6,4
1528452029572171,-1,1,-15,-43,-23,-6,-3,-2
1528452029572171,-7,-8,7,-20,-14,-17,-6,-5
1528452029587116,2,21,-6,41,-11,3,2,-1
1528452029587116,0,-3,-9,-20,18,2,3,5
1528452029594677,2,0,21,-1,5,9,0,-1
1528452029594677,-1,4,19,5,-8,-14,-4,-3
1528452029609391,1,27,11,-4,-2,-6,-3,0
1528452029609391,-5,-6,-26,-4,-2,-7,-5,-6
1528452029624327,-2,1,-6,5,2,12,3,0
1528452029624327,0,-1,-4,-6,-5,-4,0,1
1528452029631591,0,5,-1,-5,-9,-6,-4,-1
1528452029631591,1,7,11,-7,4,-4,0,1
1528452029646985,1,12,8,20,13,9,3,-1
1528452029646985,1,0,-2,-7,-8,-4,-1,0
1528452029655970,2,5,0,1,0,1,-1,-1
1528452029655970,-8,-15,-37,-8,1,-3,-2,-3
1528452029669704,-3,-4,29,7,0,0,0,-1
1528452029669704,-3,-8,-22,-12,-4,-6,-5,-3
1528452029676569,1,0,-9,-5,-2,4,1,-1
1528452029676569,0,2,13,3,3,0,0,-2
1528452029691821,0,3,20,3,-3,-2,-1,1
1528452029691821,-1,1,10,-2,0,-2,-1,-2
1528452029713998,-1,-3,-7,7,6,2,-1,-2
1528452029713998,-1,-6,1,-4,-4,-2,0,-1
1528452029721731,-1,-5,-11,-5,-5,0,-1,-1
1528452029721731,-1,-4,4,-5,-6,-6,-1,0
1528452029737210,-4,-10,-11,4,-1,1,0,-1
1528452029737210,0,-9,4,-2,2,2,-1,0
1528452029743418,0,-2,-10,3,3,1,1,-1
1528452029743418,-1,-9,1,2,1,0,-2,-2
1528452029751810,2,2,13,6,-2,-1,-2,-2
1528452029751810,-3,-8,14,-1,-3,-3,-1,-3
1528452029766619,0,1,-28,-8,-5,1,-2,-3
1528452029766619,1,1,4,9,-5,-4,-1,-1
1528452029774684,-1,-7,-7,-2,11,4,2,0
1528452029774684,0,-3,-2,-4,5,3,1,1
1528452029789610,0,7,0,12,7,2,1,1
