timestamp,emg1,emg2,emg3,emg4,emg5,emg6,emg7,emg8
1529301427978925,-1,0,-1,-1,0,1,1,-1
1529301427978925,-1,-1,-2,0,0,-2,-1,0
1529301427985935,-1,0,-1,-1,-2,0,0,0
1529301427985935,-1,0,-2,1,0,0,0,0
1529301427993885,0,0,-1,-3,-2,-2,-1,1
1529301427993885,-3,-3,-3,-3,-4,-1,-2,-1
1529301428000867,-6,-1,2,0,-2,0,-1,-3
1529301428000867,5,2,3,2,3,2,-1,0
1529301428015826,4,1,2,2,4,1,2,3
1529301428015826,0,0,-1,-2,-3,1,1,1
1529301428023805,-2,-3,-3,1,2,-3,-2,-2
1529301428023805,-6,-4,-2,-3,-3,-1,0,-3
1529301428038772,-2,-3,-2,-4,-5,-4,-2,-1
1529301428038772,-3,-2,-2,-4,-5,-4,-4,-1
1529301428053725,-4,-3,3,2,1,-4,-4,-2
1529301428053725,-3,-3,-5,-1,-4,-2,-3,-2
1529301428063699,3,0,5,-2,-2,-3,-3,-2
1529301428063699,-5,1,13,12,-1,-3,-2,-3
1529301428077661,-5,-2,-22,-16,-6,-3,-4,-7
1529301428077661,3,-10,-23,-19,1,4,3,0
1529301428083645,4,5,9,4,1,2,3,4
1529301428083645,-2,-5,5,4,0,-3,-1,7
1529301428098609,1,0,-12,-12,-2,2,2,4
1529301428098609,10,9,21,4,3,5,0,4
1529301428113566,1,-6,4,18,4,-2,1,5
1529301428113566,-16,-13,-36,-38,-14,-13,-9,-10
1529301428120549,-11,-9,-3,-1,-4,-6,-7,-11
1529301428120549,6,14,-2,-2,-2,2,-1,-1
1529301428135508,-9,-14,-7,-13,-5,-2,0,-3
1529301428135508,-5,-14,5,8,3,3,4,5
1529301428143486,30,22,4,5,4,7,10,26
1529301428143486,3,2,-5,1,2,-1,-1,-14
1529301428161437,3,-6,6,7,4,3,0,-2
1529301428161437,20,1,3,4,5,6,6,15
1529301428173405,0,-14,-10,-3,-2,0,6,16
1529301428173405,7,7,-2,2,-2,-3,5,19
1529301428188367,-10,11,3,-1,-1,-2,-9,-16
1529301428188367,0,-1,-4,0,-1,1,3,1
1529301428203326,-11,-1,1,7,4,4,-3,-21
1529301428203326,3,-6,-5,-10,-11,-3,-5,2
1529301428211304,-1,-4,5,18,11,-2,-1,0
1529301428211304,-10,-9,-21,-26,-8,0,-2,5
1529301428226265,-15,3,3,18,0,3,8,1
1529301428226265,-1,-6,1,25,18,-4,-1,-6
1529301428241225,-12,-11,-2,-10,15,5,5,-5
1529301428241225,25,9,-2,4,-15,-3,1,15
1529301428263167,-15,0,6,14,26,9,-3,-27
1529301428263167,3,4,8,8,3,4,1,8
1529301428271144,-37,-14,-6,10,5,-5,-10,-30
1529301428271144,0,-10,-19,-25,-10,-8,-3,14
1529301428301065,45,11,-2,-16,-14,-3,1,48
1529301428301065,-59,-12,-4,8,13,-1,-18,-85
1529301428316024,12,8,1,-10,4,5,0,13
1529301428316024,23,2,-2,-5,2,0,16,45
1529301428323005,-34,-8,-11,-19,-24,-7,-17,-49
1529301428323005,25,-1,1,-7,-4,10,11,18
1529301428330986,34,16,14,27,29,12,21,41
1529301428330986,5,-6,-7,-7,-6,-3,0,18
1529301428345946,-60,-13,-14,-7,3,-9,-10,-61
1529301428345946,8,5,-1,-51,-24,-2,18,5
1529301428360905,16,2,-1,2,-5,4,9,9
1529301428360905,-8,-5,1,41,10,0,-4,3
1529301428375864,5,-3,-8,-25,-21,-3,-3,-8
1529301428375864,7,-4,-15,-22,-6,-9,-3,21
1529301428390825,-3,-6,-8,0,7,-5,-2,-15
1529301428390825,-1,-1,15,25,17,8,1,-6
1529301428398804,26,11,18,29,33,13,13,35
1529301428398804,-22,7,13,14,15,9,6,-23
1529301428413778,7,1,-1,15,2,-10,-15,8
1529301428413778,4,14,-2,-4,-11,-6,3,-12
1529301428420746,-15,-29,-19,-39,-41,-14,-15,-4
1529301428420746,26,5,2,5,-5,3,2,19
1529301428435704,-22,1,-2,-3,-6,2,3,-10
1529301428435704,18,-3,-1,-1,22,12,6,6
1529301428443682,45,10,6,6,9,-2,-2,1
1529301428443682,-50,-16,3,27,-2,-5,-8,-5
1529301428458644,-7,7,3,10,-6,-2,0,3
1529301428458644,32,5,-11,-9,-16,-1,4,16
1529301428473603,-9,-3,-4,3,-16,-5,-5,-25
1529301428473603,-4,1,8,4,4,-2,1,0
1529301428480586,-34,-6,13,27,22,2,0,-5
1529301428480586,18,18,16,16,14,-6,-3,-1
1529301428495544,-17,-9,-17,-8,-16,-4,-4,-9
1529301428495544,-11,-5,-6,-18,-17,-2,-2,4
1529301428510522,-8,6,9,11,-5,-2,-1,-2
1529301428510522,14,-4,2,1,-14,-5,-3,-2
1529301428518485,-15,0,6,-1,-14,-4,0,-5
1529301428518485,-5,4,-4,2,17,7,0,4
1529301428533444,12,1,-3,-15,-17,-5,1,11
1529301428533444,-11,-11,-9,-6,-2,6,-3,-6
1529301428540425,-3,1,6,4,16,6,1,3
1529301428540425,33,12,4,6,16,-6,-4,3
1529301428556382,17,-9,-8,7,21,-5,2,13
1529301428556382,-33,1,-5,-13,-29,-3,-1,-12
1529301428563364,5,5,2,0,7,7,-3,-1
1529301428563364,-39,-13,7,6,-8,-5,-5,-14
1529301428578323,5,-5,4,15,5,-11,-1,0
1529301428578323,6,2,10,11,14,2,3,2
1529301428593285,-5,1,-23,-38,-1,1,3,-1
1529301428593285,11,5,6,-4,-6,3,-1,3
1529301428601265,-23,-4,0,2,4,1,-2,-9
1529301428601265,24,0,-9,-5,-6,-3,-1,6
1529301428616230,-28,-11,4,12,10,7,3,-9
1529301428616230,-19,3,9,6,5,0,-5,-12
1529301428623205,23,7,7,-2,-4,-4,-2,0
1529301428623205,5,4,15,13,-5,1,-4,4
1529301428638163,-15,-4,-5,-13,-7,-3,0,-4
1529301428638163,29,-4,-15,-11,-4,-1,21,10
1529301428653274,-33,3,38,36,8,2,-12,-7
1529301428653274,11,7,-21,-30,6,1,1,4
1529301428661253,-3,-13,-21,-13,0,-1,-3,0
1529301428661253,3,0,-9,-19,-6,5,13,-1
1529301428676210,16,3,-3,2,0,-1,-13,3
1529301428676210,-6,1,29,35,5,1,-1,-4
1529301428683191,4,2,-5,-10,-2,4,5,0
1529301428683191,-23,-3,-2,-7,-5,-6,-18,-17
1529301428698517,-12,-5,-19,-29,3,0,1,-2
1529301428698517,-28,-3,3,6,0,1,-16,-2
1529301428713313,13,14,7,3,-8,5,27,7
1529301428713313,10,1,4,6,3,4,14,5
1529301428721364,-7,-2,-6,-9,-16,1,5,-7
1529301428721364,-8,-5,3,-4,-2,-2,-6,-4
1529301428736391,0,-4,-14,-12,2,-1,7,-3
1529301428736391,-8,-6,-6,-19,-29,-19,-11,-5
1529301428743396,2,2,11,18,1,0,4,3
1529301428743396,2,-3,-5,-1,3,4,-2,-1
1529301428758194,7,0,3,2,8,-1,-1,4
1529301428758194,2,1,0,4,-5,-4,-1,-5
1529301428773194,-6,-9,2,5,1,1,-8,0
1529301428773194,-7,2,9,12,4,5,-2,-2
1529301428781186,3,3,-6,-15,-11,-4,-7,2
1529301428781186,3,-4,-4,6,11,-1,7,5
1529301428798088,-1,-6,-16,-13,22,0,-1,-5
1529301428798088,-13,1,4,-8,-19,1,0,-4
1529301428803073,25,2,4,-7,-12,-4,7,4
1529301428803073,21,6,1,-7,1,1,1,10
1529301428818033,-39,5,10,19,6,7,19,-7
1529301428818033,-5,-12,-6,-5,-5,-3,-14,4
1529301428832993,2,5,-1,-1,-8,-12,4,-8
1529301428832993,-2,3,3,-1,1,5,-23,1
1529301428840989,32,6,9,13,3,-11,5,8
1529301428840989,4,7,0,-7,-5,-7,-20,-2
1529301428855932,-8,-10,-4,-4,1,3,-3,2
1529301428855932,7,0,-7,-5,1,1,13,-2
1529301428863993,-7,-6,-5,0,7,5,-15,-2
1529301428863993,14,7,8,6,10,7,12,4
1529301428879039,-2,-3,-5,2,-9,-4,-3,-2
1529301428879039,-3,-4,-6,-4,-1,1,-2,0
1529301428894001,-14,-3,-4,-5,-8,-6,0,-10
1529301428894001,-31,-1,5,5,2,5,13,2
1529301428908991,13,3,1,2,2,6,27,7
1529301428908991,32,2,2,1,2,11,-7,-4
1529301428931062,-5,-8,-7,-11,-24,-14,-1,0
1529301428931062,-14,3,2,1,-7,-7,-5,-12
1529301428938882,15,8,6,7,7,1,3,3
1529301428938882,-16,5,-4,-3,-4,1,4,-4
1529301428953960,-8,-7,-1,-5,-21,-10,-20,1
1529301428953960,-14,-2,2,5,-8,-3,2,-5
1529301428968815,-8,-12,-5,-4,-12,0,-12,-12
1529301428968815,12,2,-1,2,-1,-9,-24,5
1529301428975922,-1,0,3,9,3,3,2,-1
1529301428975922,-3,-10,9,13,4,2,1,1
1529301428983899,1,16,6,6,13,6,-2,4
1529301428983899,-6,-8,-5,-16,-10,-1,10,-1
1529301428998972,-23,-15,8,22,5,1,-6,-13
1529301428998972,-2,-4,14,14,8,2,10,3
1529301429013258,0,-5,-43,-41,-17,-4,-13,0
1529301429013258,3,-6,-8,-25,-12,-1,5,-2
1529301429021238,1,7,6,4,3,-1,-5,0
1529301429021238,-17,-3,-5,-3,1,2,5,4
1529301429036035,3,-3,20,22,1,-2,-4,-4
1529301429036035,-2,-4,-3,7,-1,0,-2,-8
1529301429044052,2,-7,-19,-20,3,3,-5,-2
1529301429044052,-5,7,21,21,12,2,4,0
1529301429072939,12,-10,-44,-53,-4,0,-2,8
1529301429072939,2,1,-10,-5,-6,-1,0,-6
1529301429088894,-11,-13,-10,-20,-8,-1,-3,-9
1529301429088894,19,4,24,28,3,-3,-5,0
1529301429096097,-6,13,25,32,11,4,-2,-2
1529301429096097,-14,-2,-17,-20,-19,-8,2,3
1529301429111382,-51,-10,0,3,0,-1,-4,-7
1529301429111382,39,9,-6,3,9,2,0,6
1529301429126201,-4,-5,-11,-24,-7,-5,-5,1
1529301429126201,6,3,3,3,3,-2,6,-2
1529301429141364,-7,-5,8,16,-1,-1,0,1
1529301429141364,-8,-7,1,1,-7,1,6,-2
1529301429156171,12,11,11,8,9,7,4,0
1529301429156171,31,-1,-19,-17,0,-3,1,13
1529301429163284,-29,-9,4,5,-10,-5,-3,-8
1529301429163284,3,0,0,-1,0,-1,4,-5
1529301429178246,20,4,7,14,1,2,10,-1
1529301429178246,-5,-4,10,21,1,-3,-14,3
1529301429193229,9,-6,-44,-65,-13,-4,-2,1
1529301429193229,-28,-8,-10,-18,-13,0,7,-3
1529301429201513,59,14,4,6,-6,-1,-10,9
1529301429201513,-42,-10,2,0,-15,-3,5,-4
1529301429215711,0,7,17,26,7,1,-4,-11
1529301429215711,-15,-1,2,12,3,2,1,1
1529301429223687,5,1,2,1,8,5,0,5
1529301429223687,17,0,-20,-14,-5,2,2,0
1529301429238518,8,23,30,24,11,4,3,4
1529301429238518,7,0,-24,-35,-6,5,1,0
1529301429253452,-10,-2,-11,9,5,9,3,2
1529301429253452,7,-13,-32,-24,-7,4,-3,-1
1529301429261465,-11,-5,4,8,2,2,-4,-1
1529301429261465,4,5,-17,-21,0,-1,1,-3
1529301429276485,0,-3,2,-2,0,-1,-4,-2
1529301429276485,11,-2,4,12,-11,-4,-4,-1
1529301429283704,-11,6,6,14,4,4,6,0
1529301429283704,-6,-12,5,8,6,0,4,-1
1529301429298832,-4,-5,7,8,15,0,7,5
1529301429298832,4,2,11,7,-4,-4,-20,-7
1529301429305962,-8,0,-5,-8,-12,-6,-12,-4
1529301429305962,11,7,6,1,1,-9,-1,6
1529301429321080,-7,7,4,-3,-12,-1,5,5
1529301429321080,-10,-6,-6,-6,0,4,6,-5
1529301429336402,3,4,4,4,-6,-14,-5,-3
1529301429336402,3,5,2,0,6,-4,6,4
1529301429343274,6,-2,-8,-3,-1,0,-2,1
1529301429343274,14,-12,-5,0,1,-1,3,-3
1529301429359184,-21,-1,2,-1,3,2,11,-4
1529301429359184,-9,-14,3,4,0,4,26,-7
1529301429366166,37,4,8,3,-9,-10,-62,10
1529301429366166,10,7,1,2,6,2,38,3
1529301429381166,-22,-12,-3,-5,-9,-2,-9,-7
1529301429381166,27,1,-10,-4,1,0,14,7
1529301429396088,15,6,4,2,-3,3,-1,4
1529301429396088,-5,4,0,0,-2,1,-6,4
1529301429403120,-7,-5,-7,-3,1,4,12,-7
1529301429403120,9,1,-1,1,8,3,-11,-10
1529301429418084,28,4,5,2,-2,-1,11,22
1529301429418084,-14,-3,0,-1,-7,0,4,-1
1529301429426060,3,6,-2,-2,-7,-1,-7,-2
1529301429426060,-13,-9,0,0,4,4,8,2
1529301429441020,6,9,1,1,1,5,-1,-6
1529301429441020,-14,-14,-5,-5,-10,2,22,13
1529301429457949,-17,-2,1,1,-5,-6,-12,1
1529301429457949,15,4,-1,0,2,1,3,4
1529301429463961,-7,-1,0,-1,14,8,24,0
1529301429463961,-8,0,-2,-3,2,4,-17,-4
1529301429478920,10,2,2,0,-6,6,18,-2
1529301429478920,27,9,1,1,6,-4,-16,5
1529301429485898,-41,-15,-5,-2,5,-6,-6,-21
1529301429485898,30,11,0,1,32,2,-4,-7
1529301429500862,-24,-12,-4,-3,32,1,20,4
1529301429500862,4,9,2,2,35,2,-14,3
1529301429515821,-1,-3,-1,1,23,7,-22,-10
1529301429515821,-6,-2,-5,-1,11,-17,-15,-6
1529301429523799,3,-1,-2,-1,-4,-7,1,0
1529301429523799,-27,-14,-7,-5,-28,-9,6,-7
1529301429538730,19,4,3,0,-15,1,-3,2
1529301429538730,0,6,8,4,-8,6,-4,-2
1529301429545740,15,3,3,1,-6,2,4,3
1529301429545740,-10,-2,-2,0,-14,-2,7,4
1529301429560698,-1,-5,-6,-4,-13,0,-6,-4
1529301429560698,-4,1,-2,-3,-21,-2,-11,-8
1529301429575664,5,-1,-1,0,4,-5,-10,-3
1529301429575664,-13,-5,-3,-1,8,-4,-2,-6
1529301429583637,11,1,0,-1,13,0,7,4
1529301429583637,0,-1,1,0,8,-5,-6,3
1529301429598545,2,3,2,0,4,-7,-6,-5
1529301429598545,3,0,1,-1,11,1,5,2
1529301429605527,1,3,0,1,13,0,-1,0
1529301429605527,-1,-3,-7,-4,-1,-5,-6,-1
1529301429620487,-3,1,2,0,0,-2,6,-4
1529301429620487,0,0,-3,3,-1,-3,-32,-3
1529301429635499,-27,-11,-4,-6,-23,1,10,-3
1529301429635499,51,8,-5,30,-10,-1,3,2
1529301429643477,-8,-1,-3,-31,-48,-11,1,-5
1529301429643477,-6,-8,-13,-75,-44,-10,-9,-6
1529301429658423,30,21,28,37,-10,-4,22,6
1529301429658423,-46,-10,4,-10,0,7,-2,3
1529301429666363,34,-3,-14,9,-3,-4,-8,-7
1529301429666363,12,6,6,26,2,2,9,5
1529301429681531,-33,-22,-23,-21,-17,-6,-4,-1
1529301429681531,44,22,14,10,-12,-6,13,-6
1529301429695509,8,0,-3,-4,-9,-3,-5,1
1529301429695509,-15,-7,-4,-1,-10,-3,0,1
1529301429703492,-8,-2,-1,-3,-3,3,1,3
1529301429703492,11,3,1,7,-3,2,16,3
1529301429718554,5,3,-2,0,-4,-10,-25,-4
1529301429718554,-12,-3,-4,-8,3,0,2,-6
1529301429726478,0,-2,0,-8,-10,-1,14,1
1529301429726478,-8,0,0,10,2,-5,-33,-8
1529301429741488,12,7,1,-4,4,8,15,1
1529301429741488,-9,-11,-4,-4,-1,-6,-14,2
1529301429756049,2,-1,-1,-4,5,2,-13,-3
1529301429756049,-12,-8,-8,-24,-14,-4,0,-11
1529301429763393,-3,-4,-3,1,-2,1,1,1
1529301429763393,-1,4,4,7,-1,-1,-3,0
1529301429778391,12,9,9,4,2,0,-6,0
1529301429778391,-5,1,3,6,5,4,8,6
1529301429793393,-3,-2,0,-1,9,-2,-7,-4
1529301429793393,-5,-6,-8,-3,-2,-1,3,-1
1529301429808476,0,-4,-6,-7,-1,-3,7,0
1529301429808476,-4,-3,-2,1,1,1,-3,-3
1529301429816439,-4,0,1,0,5,2,0,0
1529301429816439,7,6,7,2,1,0,-7,-3
1529301429823571,7,5,4,6,3,6,6,5
1529301429823571,-6,-5,-6,-7,-4,1,5,1
1529301429830913,-5,-3,-1,-1,-2,-11,-8,-5
1529301429830913,2,-4,-1,1,2,6,22,3
1529301429845846,1,0,-1,0,0,-2,-2,0
1529301429845846,2,2,1,3,4,8,8,8
1529301429860801,-1,-2,-4,-3,-6,-13,-12,-6
1529301429860801,-9,-3,-1,-7,-1,0,-20,-11
1529301429868777,3,1,3,1,2,3,1,3
1529301429868777,-5,0,-2,0,-2,3,-8,-8
1529301429875758,-1,-3,-2,0,-3,2,6,4
1529301429875758,3,0,0,1,-5,-1,14,7
1529301429883737,3,2,1,2,1,4,0,4
1529301429883737,12,4,-1,-2,1,0,6,22
1529301429898704,-20,-6,-2,0,0,-4,-15,-26
1529301429898704,-10,-3,-2,0,-3,-4,0,-20
1529301429905716,1,3,0,-2,2,2,-4,0
1529301429905716,-1,-4,-2,-1,-1,1,1,-5
1529301429921266,10,4,1,2,1,-3,6,17
1529301429921266,7,2,1,-1,0,2,-5,7
1529301429928297,-5,-1,-2,1,1,-2,-10,-8
1529301429928297,-2,-2,0,0,-3,-1,-2,2
1529301429936446,1,0,0,2,3,3,7,0
1529301429936446,-2,0,1,1,4,6,21,3
1529301429943433,5,-3,-1,-1,-4,-7,1,6
1529301429943433,10,3,2,10,7,9,23,17
1529301429958637,20,2,-1,-15,-3,-5,-35,22
1529301429958637,-18,-7,-3,-5,-6,-5,-14,-11
1529301429966489,-22,-7,-3,-3,-3,3,12,-41
1529301429966489,29,8,5,5,4,-2,-5,36
1529301429981510,1,-1,-1,7,5,13,41,14
1529301429981510,-29,-6,-2,1,-3,-10,-37,-66
1529301429988395,-7,0,-1,-2,0,4,-14,-4
1529301429988395,-1,-3,-3,-4,-5,-13,-14,-16
1529301429995589,16,9,6,7,4,10,20,32
1529301429995589,19,4,-2,-7,-1,4,12,43
1529301430003704,-20,-5,-3,-4,-7,-13,-12,-35
1529301430003704,1,-2,1,0,3,3,9,6
1529301430018542,-7,0,1,3,3,3,5,-8
1529301430018542,3,0,-3,-3,0,9,10,10
1529301430025509,7,2,0,0,-1,-8,-10,8
1529301430025509,-7,-2,-4,-5,-4,-10,-12,-1
1529301430041505,-9,-5,-3,4,0,-6,-6,-24
1529301430041505,-3,0,1,1,3,5,6,-4
1529301430048447,19,2,-2,-1,1,-3,-11,22
1529301430048447,-15,-3,-2,-2,0,-1,-9,-17
1529301430055429,-11,-6,-4,-2,0,-1,3,-15
1529301430055429,12,2,2,2,0,0,1,9
1529301430063407,6,2,1,0,2,7,15,14
1529301430063407,-10,-5,-3,-3,-4,-2,-5,-14
1529301430078368,-4,-3,-3,-3,-3,-5,-12,-11
1529301430078368,9,3,2,2,0,-3,6,13
1529301430086477,0,-1,0,0,1,-4,-1,3
1529301430086477,-12,-3,-1,-2,-5,-5,-15,-17
1529301430101344,6,-1,-1,-4,-2,1,5,5
1529301430101344,-2,1,-1,2,0,-1,0,-4
1529301430108287,0,0,-1,0,2,6,7,4
1529301430108287,-3,-1,-3,-3,-3,0,-2,-4
1529301430116266,-4,-1,-1,-3,-2,-2,1,-2
1529301430116266,2,0,-1,0,-1,-3,1,4
1529301430123248,2,0,1,1,0,0,-1,3
1529301430123248,4,0,-1,-1,0,0,3,9
1529301430138225,-9,-2,-2,-2,0,0,1,-11
1529301430138225,-5,-1,1,-1,1,-3,-13,-12
1529301430146184,1,-1,-1,0,0,4,3,4
1529301430146184,-3,-2,0,-1,1,-2,-5,-6
1529301430161145,1,0,0,0,0,1,2,6
1529301430161145,3,0,0,-1,0,-1,3,7
1529301430168127,-2,-1,-2,0,0,0,2,0
1529301430168127,-2,-1,-1,-2,-2,0,0,-2
1529301430176107,-3,-1,-1,0,-1,-1,-5,-5
1529301430176107,4,0,0,0,0,0,2,7
1529301430183087,-2,-1,0,0,0,-1,-1,-2
1529301430183087,-2,-1,-1,-1,-1,0,-1,-6
1529301430198054,1,0,0,-1,-1,-1,-1,-1
1529301430198054,0,0,0,0,-2,0,-1,0
1529301430206031,3,-1,1,0,-1,0,0,3
1529301430206031,-5,-1,0,-1,-1,0,-2,-1
1529301430221037,-4,-4,0,-1,-2,-2,-3,-8
1529301430221037,1,-1,-2,0,-1,0,1,3
1529301430228965,-1,-1,-1,-1,-1,0,-1,-1
1529301430228965,0,-1,-1,0,0,-1,1,-2
1529301430236154,2,0,0,1,1,0,-2,1
1529301430236154,-2,-1,-1,0,0,0,5,2
1529301430251259,2,0,-1,0,0,1,2,2
1529301430251259,-1,-2,-1,-2,1,-1,0,-2
1529301430266438,-1,-1,-2,0,1,4,11,1
1529301430266438,0,-1,-3,-2,-1,-4,-14,-2
1529301430273631,0,0,-1,-1,0,-1,1,1
1529301430273631,-3,-1,-1,0,-2,-1,-2,0
1529301430288585,-1,-1,0,-2,0,4,14,-4
1529301430288585,2,-1,1,-1,-1,-1,-3,1
1529301430296101,1,0,-1,-1,-1,-2,3,1
1529301430296101,-3,-2,1,-1,-3,-1,0,-1
1529301430303227,0,-2,0,1,2,-3,-8,0
1529301430303227,-2,0,-1,0,-1,0,4,-1
1529301430318203,12,0,-2,-5,-2,-4,-4,17
1529301430318203,-6,0,0,1,1,1,4,-10
1529301430326024,1,1,0,-2,-4,-2,-3,-3
1529301430326024,-8,-3,-3,-2,-2,-1,-3,5
1529301430341179,-10,-4,0,6,-1,-4,-14,-28
1529301430341179,16,6,3,5,5,2,2,27
1529301430348529,-11,-2,-3,-3,-3,2,18,-15
1529301430348529,13,4,1,1,3,-1,-6,11
1529301430355556,1,1,1,2,-1,-1,-6,8
1529301430355556,-6,-2,-1,3,3,5,19,-1
1529301430363894,8,1,0,-6,-3,-9,-24,12
1529301430363894,-4,-2,-2,-3,0,-1,-4,-7
1529301430378960,-5,-1,0,-2,-2,-2,-1,-3
1529301430378960,-1,0,1,1,1,2,-1,-4
1529301430386248,-3,-2,-2,-5,3,0,1,-1
1529301430386248,-4,0,-2,0,-1,-1,3,-7
1529301430401045,0,1,-2,-5,-5,1,1,-2
1529301430401045,2,0,-1,-4,-2,-6,-12,1
1529301430408027,0,0,1,3,4,4,8,0
1529301430408027,-5,-1,-2,0,-1,0,-2,-7
1529301430416041,5,3,-2,-3,-1,0,3,2
1529301430416041,-3,-2,-2,-4,-2,-1,-4,-3
1529301430424013,-1,-2,0,2,1,-1,-1,-3
1529301430424013,0,-1,-1,0,0,2,3,0
1529301430437956,-1,-1,-2,-1,-1,-2,1,1
1529301430437956,-1,0,-1,1,-2,-3,-1,-4
1529301430445924,-2,-4,-2,-4,-4,0,-4,1
1529301430445924,1,1,-1,0,-2,-1,1,0
1529301430461020,-2,1,1,1,3,0,-2,0
1529301430461020,-2,-2,-1,-1,-3,-4,-4,-3
1529301430468984,1,1,2,2,1,2,4,3
1529301430468984,0,-2,2,-1,0,-4,-5,-5
1529301430476001,-2,-3,-2,-2,-1,-2,-2,-1
1529301430476001,-2,0,-1,-2,-2,-1,1,-2
1529301430483342,0,1,0,0,0,1,0,1
1529301430483342,-1,-1,-1,-2,-3,-2,-1,-3
1529301430498307,-1,0,-1,-1,-1,0,2,0
1529301430498307,0,-1,-2,-2,2,6,19,3
1529301430506523,-1,-1,0,1,-2,-11,-22,-5
1529301430506523,-1,-1,-2,0,-1,-1,0,-2
1529301430520443,1,0,0,1,0,-1,-2,0
1529301430520443,-2,0,-4,-4,-2,0,-1,-1
1529301430528419,0,-2,-1,0,1,6,20,1
1529301430528419,0,-5,0,0,1,-3,-8,-2
1529301430543515,-1,1,-1,-1,-1,-1,-3,-1
1529301430543515,-1,0,1,0,-4,-8,-8,-2
1529301430558481,0,1,-1,1,1,2,10,1
1529301430558481,3,0,-1,-2,-1,0,-3,3
1529301430573455,3,-1,0,1,0,2,16,2
1529301430573455,-10,-1,-1,-2,2,-1,1,-7
1529301430581280,1,1,-1,1,0,1,1,-1
1529301430581280,-7,-2,-2,-2,-3,-8,-8,-13
1529301430596514,13,2,0,0,-1,2,7,24
1529301430596514,1,0,0,-1,1,3,7,-1
1529301430603625,-15,-5,0,-2,0,2,-4,-10
1529301430603625,2,-1,0,0,-3,-7,-17,-6
1529301430618741,3,0,-2,-2,-2,-2,3,6
1529301430618741,4,-1,1,-2,0,5,10,5
