timestamp,emg1,emg2,emg3,emg4,emg5,emg6,emg7,emg8
1528441959576876,-1,-3,0,-1,0,0,0,-1
1528441959576876,-2,-2,0,-1,-1,-1,0,-1
1528441959577873,-1,-1,-4,-1,0,0,1,-1
1528441959577873,0,2,-2,0,0,0,0,-1
1528441959578871,-2,-1,0,-2,0,-2,0,0
1528441959578871,0,-1,-1,0,0,0,0,0
1528441959579868,0,-3,-2,-3,-1,-1,1,-1
1528441959579868,-1,0,0,-1,-1,-2,0,-2
1528441959586849,0,2,-2,0,-2,-1,-1,-2
1528441959586849,1,-1,-1,-1,-1,0,-2,-1
1528441959593831,0,0,-1,-1,-1,0,-1,0
1528441959593831,-1,-1,0,-1,0,-1,-1,0
1528441959602806,-1,-1,-1,-1,0,0,-1,0
1528441959602806,-2,-3,-2,-1,0,0,0,0
1528441959616768,0,1,1,-1,-1,0,0,0
1528441959616768,0,-3,-1,-2,-1,-1,0,0
1528441959632726,-2,-1,1,-1,1,1,-1,0
1528441959632726,0,-2,-1,0,0,1,-1,-1
1528441959632726,-1,-1,0,0,1,-1,-2,-2
1528441959632726,-1,0,-1,1,-1,-1,-2,1
1528441959645692,-1,0,-1,0,-3,-1,0,0
1528441959645692,-1,0,0,-1,-3,-2,0,-1
1528441959654667,-1,-1,-2,0,-1,-1,-1,-2
1528441959654667,0,-1,-1,-1,-1,0,-1,-2
1528441959660653,2,-2,0,0,-1,0,-2,-1
1528441959660653,0,1,-1,0,-2,-2,-3,0
1528441959709522,-1,-1,0,-3,0,-1,-1,1
1528441959709522,0,0,0,0,-1,-1,-2,1
1528441959710520,-1,-1,-2,-1,-1,0,-1,0
1528441959710520,-2,0,-1,-1,-1,-1,-1,0
1528441959711517,-1,-1,0,0,-2,-2,-2,-1
1528441959711517,1,-1,-2,-1,0,-2,-1,-1
1528441959713514,0,-1,0,-1,0,-1,-2,-2
1528441959713514,-1,-1,-1,0,0,-2,0,-2
1528441959720493,0,1,-2,-1,0,-2,1,-3
1528441959720493,0,2,-2,-1,0,-2,1,-4
1528441959729468,0,0,1,-1,1,-1,2,-2
1528441959729468,0,0,-1,-1,-1,-1,2,-4
1528441959737449,-2,0,0,-1,1,0,2,-2
1528441959737449,0,-3,-1,-1,0,0,4,-2
1528441959750413,-1,-2,0,1,-1,-1,1,-2
1528441959750413,0,0,-1,-1,-1,-1,0,0
1528441959759399,1,1,0,-1,-2,1,-1,-2
1528441959759399,1,0,2,1,-2,2,-1,0
1528441959767368,-1,2,0,0,-1,-1,0,-1
1528441959767368,-1,-2,-2,0,2,0,0,-1
1528441959788312,-1,0,0,1,-1,1,-1,-1
1528441959788312,-1,0,0,-1,0,-1,-2,-2
1528441959789308,1,-1,-1,0,-1,-1,-1,0
1528441959789308,1,0,1,-1,-1,1,-2,-1
1528441959797289,1,-3,0,1,-1,-1,-2,2
1528441959797289,-2,-1,0,-1,-1,0,-1,-1
1528441959810253,-1,0,-1,-1,0,0,-1,-1
1528441959810253,0,0,0,-3,0,-1,-2,-2
1528441959819229,0,-1,0,1,0,-1,0,0
1528441959819229,2,-2,0,-1,-1,0,-1,1
1528441959825213,0,0,-2,-2,-1,-2,0,-1
1528441959825213,1,-1,0,1,-1,-1,0,1
1528441959840181,-1,0,-1,0,-1,-2,-2,1
1528441959840181,-2,0,-2,1,0,1,-1,-1
1528441959848150,-3,-1,-1,-1,0,0,0,0
1528441959848150,0,0,-1,-1,1,1,-1,0
1528441959857134,-1,-2,-1,0,0,0,0,-1
1528441959857134,-3,0,0,1,-1,-2,1,0
1528441959870093,0,-2,1,0,-1,0,-1,0
1528441959870093,-1,-2,0,-1,-2,-1,-1,0
1528441959879069,-1,-1,-1,-1,0,-1,1,-1
1528441959879069,0,0,0,-1,1,-2,-3,-2
1528441959886050,0,0,-1,0,-1,1,-1,0
1528441959886050,0,-2,-1,-1,-2,-1,-1,0
1528441959900013,0,-3,-1,0,-1,0,-1,-1
1528441959900013,-2,0,0,0,-1,0,-1,-1
1528441959908029,-1,1,1,-1,-2,-1,-1,0
1528441959908029,-2,2,-1,1,0,0,0,0
1528441959916985,-1,0,-2,-1,-1,1,0,-1
1528441959916985,1,0,0,-2,-1,0,0,-1
1528441959930931,0,-1,0,1,-1,0,-1,0
1528441959930931,-1,0,-2,-1,0,0,0,0
1528441959939907,0,0,-2,0,1,0,0,-1
1528441959939907,0,0,-2,-1,1,-2,0,1
1528441959945898,0,-1,-1,-1,-1,-1,0,-2
1528441959945898,-1,-1,-1,-1,-1,0,1,-1
1528441959960850,-2,0,2,-1,0,-1,0,-1
1528441959960850,-2,-1,-1,-1,-2,0,-1,-1
1528441959967832,1,0,-1,0,0,0,-1,0
1528441959967832,-1,-2,1,-1,-1,0,1,-2
1528441959976815,1,0,1,-1,0,0,1,0
1528441959976815,-2,-2,-2,-1,-1,-1,-1,0
1528441959990769,-1,0,-1,0,-2,-1,-1,-1
1528441959990769,0,0,1,0,0,-1,-3,1
1528441959999747,-2,-1,0,-1,-1,-1,-2,0
1528441959999747,0,1,-1,0,1,0,1,0
1528441960005731,-1,-1,0,-1,0,-2,-1,-2
1528441960005731,0,-1,-1,0,-1,-1,0,0
1528441960020691,-1,-2,-1,0,-2,0,1,0
1528441960020691,-1,0,-1,1,-1,1,-1,1
1528441960028684,0,-1,-2,-2,-1,0,2,-2
1528441960028684,1,-1,1,0,0,-1,-2,2
1528441960036648,0,-1,1,-2,0,0,-3,0
1528441960036648,1,-1,-1,-1,-2,-1,-1,0
1528441960050610,-1,-2,-1,-1,1,-1,0,2
1528441960050610,0,0,-2,-3,-1,-2,-1,-2
1528441960059587,0,-1,-1,-1,1,-1,0,-1
1528441960059587,1,0,0,0,0,0,-1,1
1528441960065571,0,-1,0,-1,1,0,-1,0
1528441960065571,-1,0,0,0,0,0,-2,-1
1528441960080529,-1,0,-1,-2,-2,-1,0,-1
1528441960080529,0,0,-1,0,-1,-1,-2,-3
1528441960088509,-2,-2,-1,0,-2,-1,-1,0
1528441960088509,-1,-2,0,1,-1,0,0,-1
1528441960097485,-1,2,-2,0,-1,-1,0,-2
1528441960097485,0,-2,-1,-1,1,0,-1,-1
1528441960110453,-2,-1,-2,-1,-1,1,0,1
1528441960110453,0,-1,0,1,0,0,-1,0
1528441960119425,-2,-1,-1,0,-1,1,0,-1
1528441960119425,-1,-1,0,-1,0,-2,1,0
1528441960125409,1,1,-1,-1,-1,0,-1,-1
1528441960125409,-1,-1,1,-1,-1,0,0,-2
1528441960140625,1,-1,0,0,-1,-2,-1,-1
1528441960140625,-1,0,0,-1,0,0,0,-2
1528441960148391,0,-1,0,0,-1,-2,-1,-1
1528441960148391,-1,-1,-1,0,-1,1,-1,1
1528441960157325,-1,0,0,-1,0,-2,0,0
1528441960157325,0,0,0,0,-2,-1,-1,0
1528441960170321,-1,1,-1,1,2,-1,-1,-1
1528441960170321,0,1,-1,-1,0,-1,0,-2
1528441960180271,0,0,0,0,2,-2,1,0
1528441960180271,0,0,-2,-2,-2,-2,0,-2
1528441960185288,-1,-1,0,0,0,0,0,-2
1528441960185288,-1,0,-1,0,0,-1,-1,0
1528441960200241,-1,0,-2,0,-1,0,-1,0
1528441960200241,-1,0,1,0,-1,1,-1,-1
1528441960208226,0,-1,-1,-2,-1,-1,-2,-2
1528441960208226,1,-1,-1,-1,0,0,1,-2
1528441960217202,1,-2,-1,0,0,0,0,-1
1528441960217202,0,-1,0,-1,1,0,-1,1
1528441960230130,-1,-1,-1,0,0,-1,1,-1
1528441960230130,0,-1,-1,0,0,0,-1,0
1528441960239107,0,0,0,0,0,1,0,-1
1528441960239107,-1,-1,-1,0,0,-1,0,-1
1528441960245089,-1,-1,-1,-2,0,-2,-1,-1
1528441960245089,0,1,0,0,0,-2,1,-1
1528441960260051,0,-1,-1,0,-2,0,-2,-1
1528441960260051,-2,-3,0,-1,0,-2,-1,-1
1528441960268028,-2,-1,0,0,-4,0,0,-1
1528441960268028,-1,-2,-2,0,-1,-1,0,-2
1528441960277005,-1,-1,-2,-1,-1,-1,-2,-2
1528441960277005,0,0,0,0,-1,0,-2,0
1528441960290968,1,-1,-1,0,-2,-1,-1,0
1528441960290968,0,-1,-1,-1,-1,-2,-2,0
1528441960299945,0,0,0,1,-1,0,-1,-1
1528441960299945,-2,0,-3,0,0,0,0,-1
1528441960313957,-1,1,0,-1,-2,0,-2,-1
1528441960313957,0,0,0,0,0,0,-2,0
1528441960320939,-1,-1,-1,-1,0,0,0,0
1528441960320939,0,-1,0,1,0,-1,1,0
1528441960327924,0,1,0,-1,-1,0,-2,0
1528441960327924,-1,0,-1,-2,-2,-1,0,0
1528441960342880,0,0,-1,-2,-1,0,-2,0
1528441960342880,-1,-1,1,-2,0,0,0,-1
1528441960350865,0,0,-1,0,0,0,1,-2
1528441960350865,-1,-2,-1,1,-1,-2,-1,-1
1528441960359835,0,0,-1,-1,0,-1,0,1
1528441960359835,0,1,-2,-2,-1,-1,-2,0
1528441960373804,0,-2,-2,0,-1,0,-2,-1
1528441960373804,1,-1,1,-1,-1,1,0,0
1528441960380729,-1,-1,0,1,-1,-1,0,-1
1528441960380729,0,0,-1,1,-1,-1,0,-3
1528441960387760,0,-2,0,-2,1,-1,0,0
1528441960387760,0,0,1,-1,-1,0,-3,-1
1528441960396684,0,-2,0,-2,0,2,0,-1
1528441960396684,0,-1,-1,0,0,-1,-2,-2
1528441960410709,0,-1,0,0,0,-1,-1,-2
1528441960410709,0,0,-2,0,-1,0,-1,0
1528441960419624,0,0,-2,-1,-1,-1,-1,-1
1528441960419624,0,3,2,0,1,-1,0,1
1528441960433638,-2,-2,-1,-2,-1,-2,0,0
1528441960433638,-2,-1,-2,-2,-1,0,-2,-1
1528441960440612,-1,-1,-2,-3,-2,-1,-2,0
1528441960440612,1,-1,-2,-2,-2,0,-2,-1
1528441960448562,1,0,1,-1,-2,-2,0,0
1528441960448562,0,1,0,1,0,-1,0,0
1528441960457521,-1,-2,-1,0,0,-2,-1,-1
1528441960457521,0,-2,-1,-1,-2,0,-1,1
1528441960470539,0,0,-1,-1,1,0,0,0
1528441960470539,0,0,-1,-1,-1,-1,-1,-1
1528441960479465,1,-1,-1,1,0,-2,1,-2
1528441960479465,-1,-1,0,-2,-1,-1,0,0
1528441960493477,-2,-1,-1,0,-1,0,0,0
1528441960493477,-1,-2,0,-2,0,-1,0,-2
1528441960500460,1,0,-1,0,-1,-1,0,0
1528441960500460,-2,0,-2,0,0,-1,0,0
1528441960508440,0,0,-1,0,0,0,-2,-1
1528441960508440,-1,0,-1,-1,-1,-1,-3,-1
1528441960517418,-1,-2,0,-1,0,1,-3,0
1528441960517418,-1,-2,-1,0,-1,-2,0,-2
1528441960530328,-1,0,0,0,-1,0,0,1
1528441960530328,-1,0,0,-1,0,0,0,1
1528441960539304,1,0,-1,-1,0,-1,-1,1
1528441960539304,0,0,0,1,0,1,0,0
1528441960553304,1,-1,-1,-1,0,0,-1,0
1528441960553304,1,-2,-1,0,0,0,1,-2
1528441960560286,-1,1,1,-2,-3,0,1,0
1528441960560286,-1,0,-1,-2,1,0,1,0
1528441960568595,-1,-1,-1,0,1,0,0,-1
1528441960568595,0,-2,0,0,-1,-1,-1,0
1528441960583855,0,0,0,1,0,0,0,1
1528441960583855,2,-2,-1,0,-1,0,0,0
1528441960591104,0,-1,0,-1,-1,2,0,-1
1528441960591104,-1,0,-1,-1,0,0,-1,1
1528441960600152,-2,-1,1,-1,0,0,-1,-1
1528441960600152,-1,0,-1,0,-1,1,-1,0
1528441960622096,1,1,0,-1,-1,0,2,-1
1528441960622096,0,-2,-1,-1,-1,-1,0,-2
1528441960624265,0,0,-1,0,2,-1,-1,-1
1528441960624265,1,-2,1,0,-1,1,-1,0
1528441960628347,-1,-3,-1,0,-1,-2,-2,0
1528441960628347,-3,-1,-2,-1,0,0,-1,2
1528441960643302,0,0,0,-1,-2,0,-2,-1
1528441960643302,0,-1,-1,0,-1,-1,0,0
1528441960651290,-1,1,-1,-1,-1,-1,0,0
1528441960651290,0,1,-1,0,-1,-1,0,0
1528441960660275,1,-1,-1,0,0,-1,-1,-2
1528441960660275,-2,-1,0,-1,-1,-1,-1,-2
1528441960673958,0,-1,0,0,-1,-3,0,0
1528441960673958,-1,0,-1,1,-1,-1,0,-1
1528441960681936,0,-1,0,1,-2,-1,-1,0
1528441960681936,0,0,-1,-1,0,0,-1,0
1528441960695899,0,-1,0,-1,0,1,1,0
1528441960695899,-1,1,-1,0,-2,-1,-1,-1
1528441960711419,0,0,-1,-1,-1,0,0,-1
1528441960711419,0,0,-1,-2,0,-1,0,-1
1528441960712159,-1,-1,-2,0,-2,1,1,-1
1528441960712159,1,0,-2,-1,1,-1,0,-1
1528441960719430,-2,-2,-1,-1,0,0,1,-1
1528441960719430,0,0,0,1,-1,-1,-1,-2
1528441960733396,-1,-1,0,-2,1,0,0,0
1528441960733396,-2,-1,0,-2,-1,-1,-2,-1
1528441960740376,1,-1,-2,-2,0,-1,0,-1
1528441960740376,-1,0,-2,-3,-2,-1,-1,-1
1528441960756337,0,-2,-1,-1,-1,0,-2,-1
1528441960756337,-2,-1,0,1,-2,-1,-1,-1
1528441960763569,-1,0,-2,-1,-1,-2,-2,-1
1528441960763569,-1,-1,0,-1,-1,-1,-1,-1
1528441960770564,-1,0,-2,0,-1,0,-2,-1
1528441960770564,0,0,0,0,-1,0,0,-2
1528441960779271,0,-1,0,0,-1,-1,0,0
1528441960779271,-1,-1,-1,-1,0,1,1,0
1528441960794079,0,-1,0,-2,-1,1,0,-1
1528441960794079,-1,-1,0,-1,-1,0,0,0
1528441960800948,-2,0,0,-1,0,1,0,1
1528441960800948,0,0,0,-1,-1,-2,1,0
1528441960817014,0,-1,-2,1,1,0,-1,-2
1528441960817014,1,-1,-2,-2,0,-1,0,-1
1528441960823935,0,0,-1,-1,-3,1,1,-2
1528441960823935,-3,-1,-1,-1,0,-1,-2,-2
1528441960840166,-1,0,1,-1,0,-5,-2,0
1528441960840166,0,-1,-1,0,0,-2,0,-1
1528441960841040,-1,-1,-1,-1,1,-1,-1,-2
1528441960841040,-1,-2,0,-2,-2,1,-1,1
1528441960853475,0,0,0,1,0,-1,-1,-1
1528441960853475,-1,1,-1,1,-3,0,0,-1
1528441960862454,-1,-1,-2,-1,-1,-1,1,-1
1528441960862454,0,-1,0,-1,-1,-2,1,-1
1528441960876782,-1,0,1,-2,-1,1,-1,-1
1528441960876782,-1,-1,-1,0,0,0,-1,0
1528441960883837,-1,0,-1,-1,1,-1,0,-1
1528441960883837,-1,0,-2,0,-1,-1,-3,1
1528441960900609,-1,-1,-1,0,-1,-2,0,-1
1528441960900609,0,-2,0,-2,-1,-1,-2,1
1528441960901506,-1,-1,1,-1,-1,1,-2,-1
1528441960901506,1,-2,-1,0,1,0,-2,-1
1528441960912661,-1,-1,-1,-2,1,-1,0,0
1528441960912661,-1,-1,-2,1,0,0,-1,1
1528441960922597,0,-2,0,0,0,-1,-1,-1
1528441960922597,-1,0,-2,-1,-1,0,0,1
1528441960936558,-1,-1,-1,0,0,0,-1,-1
1528441960936558,1,-1,-1,-1,0,-1,-2,-2
1528441960943090,0,-1,-2,1,0,-1,-2,1
1528441960943090,-1,1,0,-1,0,-1,-1,-1
1528441960960032,0,-4,-3,0,-1,0,-1,0
1528441960960032,-2,1,0,-1,1,0,-2,-1
1528441960960982,-1,-1,-2,1,-1,-1,-1,-2
1528441960960982,-1,-1,-1,1,-1,0,0,-1
1528441960974086,-1,0,-1,1,-2,1,-1,-1
1528441960974086,-2,-2,0,-1,0,0,-2,0
1528441960981031,-1,1,2,-3,-2,-1,-1,-2
1528441960981031,-1,0,-2,1,-2,-1,-1,-1
1528441960997124,-1,-2,0,-1,-1,1,0,1
1528441960997124,0,-2,0,-2,-1,-1,1,-1
1528441961003415,1,0,0,-1,1,-1,-1,0
1528441961003415,-1,-2,-2,-1,0,0,0,-1
1528441961019852,1,1,0,-3,-1,-2,0,0
1528441961019852,0,-2,0,0,-1,-1,-1,-1
1528441961021525,-1,0,-1,-1,-2,0,-1,-1
1528441961021525,0,1,1,0,-1,0,1,-1
1528441961034651,-1,-1,-1,-1,0,-1,-2,0
1528441961034651,-1,0,0,-2,0,-2,0,-1
1528441961041035,0,-1,0,1,0,-2,0,-1
1528441961041035,1,-1,-1,1,-1,0,0,-1
1528441961056947,-1,-2,-2,0,0,-1,0,-1
1528441961056947,-1,0,-1,0,0,0,0,0
1528441961063877,-1,-2,0,-1,-2,0,1,-2
1528441961063877,-1,0,-1,-1,0,-1,-1,0
1528441961079761,-1,0,-1,0,0,-2,0,-1
1528441961079761,0,-1,-1,0,-1,0,-2,0
1528441961081772,0,0,0,-1,-2,0,-1,-1
1528441961081772,1,-3,0,0,-1,-1,-1,-1
1528441961093463,-1,0,1,0,0,0,1,0
1528441961093463,-1,-2,-1,-1,0,-1,0,1
1528441961100690,0,-2,-1,-1,0,-2,-1,-2
1528441961100690,-1,-2,0,-1,0,-1,-1,-1
1528441961116432,1,0,-1,-1,0,-1,-1,0
1528441961116432,0,0,-1,0,0,0,0,0
1528441961123629,-2,0,-1,0,0,0,-1,0
1528441961123629,1,-1,-4,-2,0,0,0,-1
1528441961139604,-1,-1,0,-1,-1,0,-1,-2
1528441961139604,-1,-2,1,0,-1,-1,-1,-2
1528441961141607,-1,-2,-2,-2,-1,-2,-1,0
1528441961141607,-1,-1,-2,0,2,-1,-1,-1
1528441961153562,0,-1,-1,0,-2,1,0,0
1528441961153562,1,-1,-1,-1,-1,0,-2,0
1528441961161933,0,-1,-1,0,0,0,0,-1
1528441961161933,0,-2,-2,-1,-1,-1,-1,-1
1528441961176527,1,0,-1,-1,0,0,1,-1
1528441961176527,-2,-1,1,0,-2,-1,1,-1
1528441961183574,-1,-2,-1,-1,-2,-2,-2,-1
1528441961183574,1,1,0,0,0,-1,0,0
1528441961200257,0,-2,0,-1,-1,-1,-2,-2
1528441961200257,-1,1,-2,0,-1,-1,-2,-3
1528441961201143,-2,0,0,1,-1,0,0,-1
1528441961201143,0,-1,-1,-1,-1,0,0,-1
1528441961213549,-1,-1,1,1,-1,-1,0,0
1528441961213549,-1,-1,-1,-1,-1,-1,1,1
1528441961222085,-1,-3,-1,-1,0,0,-2,-1
1528441961222085,-1,-2,0,0,-1,0,-1,0
1528441961236486,0,0,-2,0,-1,-1,-1,0
1528441961236486,0,0,-1,-1,-2,0,-1,-1
1528441961243029,-1,0,-1,0,-1,0,-2,-1
1528441961243029,-2,0,0,0,-1,-1,-1,0
1528441961267262,-1,0,0,-1,0,-1,-1,-1
1528441961267262,1,-1,0,0,-1,-1,-1,-1
1528441961268263,-1,0,0,-2,-1,-1,-1,-1
1528441961268263,-1,2,-1,-1,0,-1,-2,-2
1528441961273569,0,-2,-1,-1,0,0,-1,-1
1528441961273569,0,-1,-1,-1,-1,-2,-1,0
1528441961282306,-1,0,-2,2,-1,-1,0,-1
1528441961282306,-2,-1,-1,0,0,0,1,1
1528441961296728,-2,0,-2,0,0,0,1,0
1528441961296728,0,0,-1,-2,-1,-1,0,-2
1528441961304707,3,-1,0,-1,-2,1,2,0
1528441961304707,0,-1,-1,0,-1,-1,1,-2
1528441961319715,0,0,-2,0,-2,-2,-1,0
1528441961319715,-2,0,-2,0,0,0,-2,0
1528441961321778,-1,-1,-1,-1,0,0,-1,-1
1528441961321778,0,-2,-1,-1,-2,0,-1,-1
1528441961333852,-1,0,-1,-1,-1,-2,0,-1
1528441961333852,-2,-2,0,0,-1,-1,0,0
1528441961342849,-1,0,-1,0,-1,-1,0,0
1528441961342849,-1,-1,1,0,-2,-1,-2,-1
1528441961356618,-2,0,0,0,0,1,-1,-2
1528441961356618,0,-1,-1,-1,0,1,-1,0
1528441961363802,0,2,-2,-2,-2,-1,1,-1
1528441961363802,-1,-2,0,-2,-1,-1,-2,1
1528441961379507,0,0,-1,0,-1,-2,-1,-1
1528441961379507,1,0,0,1,0,-1,0,-1
1528441961381770,1,-1,1,1,0,-1,0,0
1528441961381770,-1,1,-1,0,1,-2,-1,-1
1528441961393470,-1,-2,2,-1,-1,-2,-1,-1
1528441961393470,-2,-2,-1,-2,-1,-2,1,-1
1528441961402446,0,-1,0,-1,-3,0,-2,-1
1528441961402446,-3,0,0,0,-1,-1,-2,-1
1528441961416412,-1,-2,0,-1,0,1,-1,1
1528441961416412,-1,0,-1,0,-2,-1,1,-2
1528441961423655,-2,0,0,0,2,-1,-1,-1
1528441961423655,-2,0,1,-2,0,-1,1,-1
1528441961439351,0,1,-2,-2,-1,-1,-1,-1
1528441961439351,-2,1,-2,1,0,-1,0,2
1528441961441352,-1,-1,-1,0,-1,-1,0,-1
1528441961441352,2,-1,-1,0,-1,0,1,-1
1528441961453572,0,0,-1,-1,-1,-2,-2,-1
1528441961453572,0,1,-1,-2,-1,0,0,0
1528441961462288,-1,-1,1,0,-1,-1,0,0
1528441961462288,-1,-1,-1,-2,0,0,-1,0
1528441961484227,0,-1,0,-1,-2,-1,-1,-1
1528441961484227,0,-1,1,1,0,0,-2,-1
1528441961486222,-1,-1,-1,1,-3,-2,-1,-1
1528441961486222,-2,1,-1,-1,-2,0,1,-1
1528441961499194,-3,-1,-1,-1,0,0,1,-2
1528441961499194,0,-1,1,0,-1,-2,0,0
1528441961501182,1,-2,1,-1,2,1,1,-1
1528441961501182,-1,-1,-1,-1,0,-2,0,-1
1528441961513150,-2,-1,-3,2,0,1,1,1
1528441961513150,-1,1,0,-1,0,-2,-1,-2
1528441961522126,-1,-1,-2,-1,-2,-1,0,0
1528441961522126,0,0,-1,1,-2,-1,0,0
1528441961544067,-1,-1,-1,0,0,-1,-2,0
1528441961544067,0,0,-2,-1,0,0,-1,-2
1528441961546066,0,-1,0,-1,0,-1,-2,0
1528441961546066,0,0,-1,-1,1,1,-2,-2
1528441961559031,-2,-1,-1,-1,0,-3,-1,-1
1528441961559031,1,-2,0,-1,-1,-1,0,2
1528441961566013,-1,0,-1,0,0,0,0,0
1528441961566013,1,-2,-2,1,-3,0,-1,0
1528441961572994,0,1,0,0,1,1,1,0
1528441961572994,0,-1,0,0,0,0,-2,-1
1528441961581966,-1,0,-3,-1,-2,1,-2,0
1528441961581966,0,-1,0,-2,0,-2,-1,-1
1528441961596927,0,-3,-1,-1,-1,-1,-1,-1
1528441961596927,-2,-1,0,-1,-1,0,1,0
1528441961602925,-1,-1,-1,-1,1,-2,-1,1
1528441961602925,-2,0,-1,1,-1,0,0,0
1528441961618868,0,-1,0,-1,-1,0,1,-1
1528441961618868,-1,-2,-2,1,0,-3,0,-2
1528441961625894,-1,-2,2,-2,-2,0,1,0
1528441961625894,1,0,-1,-1,-1,-1,-2,0
1528441961632882,0,-1,0,0,-1,-1,-2,0
1528441961632882,-1,-1,-1,-1,-1,1,-1,0
1528441961641840,-1,0,-1,-1,0,0,0,-1
1528441961641840,0,-1,-1,0,-1,0,0,1
1528441961655823,-2,-1,0,-1,-1,-3,0,-2
1528441961655823,-1,0,-1,1,-2,-2,0,0
1528441961662806,-2,0,-1,-1,-2,-3,-1,-3
1528441961662806,-1,0,0,-1,1,-1,-1,-1
1528441961678709,2,-1,-2,-1,-1,1,-3,0
1528441961678709,0,-1,-1,-1,-1,-1,-2,0
1528441961685743,-1,0,-1,0,-1,-1,-1,-1
1528441961685743,-2,-1,0,-2,-1,-2,-2,-1
1528441961693669,0,-1,0,0,0,0,-1,-1
1528441961693669,0,-1,0,0,-1,-1,-1,0
1528441961707675,-1,-1,-3,-1,0,-2,-1,1
1528441961707675,-1,0,0,0,0,-2,0,-2
1528441961716606,-1,0,-1,-1,-1,-1,0,-1
1528441961716606,-1,-1,-1,-1,0,1,1,-1
1528441961723587,0,-3,0,-2,0,0,0,-1
1528441961723587,0,-1,-1,0,0,-1,0,-1
1528441961738600,-2,1,-3,-1,-1,-2,0,0
1528441961738600,-1,0,-2,-1,-2,0,-1,-1
1528441961745542,0,1,0,1,-1,0,-1,0
1528441961745542,0,-1,-1,-1,-2,-1,-1,0
1528441961762504,-1,-1,0,-1,-2,-1,-1,0
1528441961762504,-1,-1,-1,-2,0,0,0,-1
1528441961763481,1,-2,1,1,-1,0,0,-1
1528441961763481,0,0,0,-1,-2,0,1,-1
1528441961777463,0,0,-1,1,0,-1,0,0
1528441961777463,0,-1,-1,0,0,-1,0,1
1528441961783466,-1,-1,0,1,1,0,-1,-2
1528441961783466,-2,-1,-2,-1,-1,-1,0,-1
1528441961799384,-1,-2,1,-1,-1,1,-1,0
1528441961799384,-2,-1,-1,0,-2,-1,-1,-2
1528441961805414,-1,0,0,0,-1,-1,0,-1
1528441961805414,0,-2,-2,-1,0,0,-1,-2
1528441961821372,0,-1,-2,-3,0,-1,-1,-1
1528441961821372,-1,-1,1,0,0,-1,-2,-1
1528441961822368,-1,-1,-1,0,0,-2,-2,-1
1528441961822368,-3,-2,-2,1,0,0,0,0
1528441961837284,1,0,0,0,-2,0,0,1
1528441961837284,0,0,-2,0,-1,-1,0,0
1528441961843289,0,2,0,-1,-1,-1,-1,-1
1528441961843289,0,-1,-1,0,0,0,-1,-1
1528441961859225,0,-1,-1,1,0,2,1,-2
1528441961859225,0,-1,-1,-1,0,-1,-1,-2
1528441961865262,-2,-3,-1,-1,-2,-2,0,1
1528441961865262,0,0,-1,-2,-1,-1,-2,0
1528441961881219,-1,1,-1,-1,0,-3,-1,0
1528441961881219,-2,-2,0,1,-1,-2,0,0
1528441961882164,-1,-1,-1,0,0,0,-1,0
1528441961882164,0,0,0,-2,-1,0,-2,-1
1528441961897125,-1,-1,0,0,-2,1,-1,0
1528441961897125,0,0,0,0,1,0,0,-2
1528441961903143,-1,1,0,-1,0,-2,-2,0
1528441961903143,-2,-1,0,0,-3,-1,-1,-2
1528441961918080,-1,0,1,-1,0,-1,0,0
1528441961918080,1,-1,-1,-2,0,1,1,0
1528441961926236,1,-1,-2,-3,0,1,0,1
1528441961926236,0,1,-2,0,-1,0,-1,0
1528441961941011,-1,-2,-1,0,-2,-2,-3,-1
1528441961941011,0,-1,1,0,0,-1,-1,-2
1528441961942003,-1,1,0,0,0,-2,1,-3
1528441961942003,-1,0,0,1,0,-1,-2,-2
1528441961957048,-1,-1,-2,1,0,-1,-2,-1
1528441961957048,-1,-1,-1,0,0,-1,-2,-1
1528441961963534,0,1,-1,0,0,0,-2,-1
1528441961963534,-2,0,0,-2,0,-1,-2,-1
1528441961978292,0,0,0,-1,-3,-1,0,0
1528441961978292,0,0,0,-3,-2,0,-1,0
1528441961985455,1,-2,-2,-2,0,0,1,2
1528441961985455,0,-1,-1,-1,-1,-1,0,-1
1528441962001194,-2,0,1,0,1,-1,-1,1
1528441962001194,0,0,0,2,0,-2,-1,1
1528441962002200,-2,-2,-1,0,0,-1,0,0
1528441962002200,-1,-1,-1,0,-1,0,0,1
1528441962017144,0,-2,-1,0,0,-1,-1,-1
1528441962017144,-2,0,-2,-1,-2,1,0,-1
1528441962023373,0,0,-1,-1,0,-1,-3,-2
1528441962023373,-1,-1,0,1,-1,-2,1,0
1528441962038837,-2,-1,-1,-1,-1,0,1,-3
1528441962038837,0,-1,-2,-1,0,-1,-2,-1
1528441962045784,0,-1,-1,1,-1,-1,-1,-2
1528441962045784,0,0,0,-2,-1,-2,1,-1
1528441962060986,-1,0,-2,0,0,-1,0,0
1528441962060986,-1,0,-1,-1,-1,0,1,0
1528441962061741,-1,1,-1,0,-1,0,-1,-1
1528441962061741,1,-1,-1,1,-1,0,0,-1
1528441962077918,1,-1,0,-1,1,-2,-2,0
1528441962077918,-1,0,0,1,-2,-3,-2,0
1528441962083853,-1,0,-1,-2,1,-2,-1,-1
1528441962083853,-1,-1,-1,-1,0,-1,0,-1
1528441962106882,0,0,-2,0,-1,1,-1,-1
1528441962106882,-1,-1,0,-2,-1,-1,-2,0
1528441962106882,-1,-1,-1,0,-2,-1,0,0
1528441962106882,0,-1,0,0,0,-1,1,-1
1528441962128562,-2,-1,-2,-1,-2,-2,-1,0
1528441962128562,1,-1,0,-1,-1,0,-1,-1
1528441962129571,0,0,-2,-1,-1,0,-1,0
1528441962129571,-1,0,0,-1,-2,0,-2,-2
1528441962137538,1,0,-1,0,-1,0,0,-1
1528441962137538,-2,0,0,-1,1,0,1,0
1528441962143565,-1,-1,1,-1,0,-1,-2,-1
1528441962143565,0,-1,-1,-1,1,-1,0,0
1528441962158727,-2,-2,1,-1,0,0,0,-1
1528441962158727,1,-1,0,-1,-2,-1,1,-1
1528441962165708,1,-1,1,1,-1,0,0,0
1528441962165708,0,-1,-1,-1,-1,-1,-1,-1
1528441962182428,-2,-2,0,0,-2,-2,-1,-2
1528441962182428,0,0,-2,-1,0,-1,-1,0
1528441962183415,-1,-1,-1,0,0,-2,-2,0
1528441962183415,-1,0,-2,1,-1,0,-1,0
1528441962197379,0,0,2,0,-1,-1,-2,0
1528441962197379,-1,-2,1,0,-1,0,0,-3
1528441962203649,1,-1,-1,0,0,0,0,-1
1528441962203649,-1,-1,-1,-1,0,0,-2,1
1528441962218025,-1,-2,-1,0,0,-1,0,-2
1528441962218025,-1,-1,0,-1,-2,-2,-1,0
1528441962225887,-1,-1,-2,-2,-2,-1,-2,0
1528441962225887,-1,-1,0,-1,1,0,-1,1
1528441962241085,-1,-1,-1,0,0,-2,-1,-1
1528441962241085,-1,1,0,-1,1,0,-2,0
1528441962241850,0,-2,1,-1,0,-2,0,-1
1528441962241850,-1,-1,0,0,-2,0,0,0
1528441962257006,-1,0,1,-2,-1,2,0,-1
1528441962257006,-3,-1,-2,1,-1,-2,0,-1
1528441962263849,-2,1,0,0,-2,0,0,0
1528441962263849,-2,0,0,0,-1,-1,0,-1
1528441962277990,0,1,-1,0,-1,-1,0,-1
1528441962277990,0,0,1,-1,0,0,-1,-2
1528441962285730,0,-1,-1,1,-2,1,-1,-1
1528441962285730,1,0,0,0,-1,0,-1,-1
1528441962301929,0,1,0,-2,0,0,-2,0
1528441962301929,-2,0,0,-1,-1,0,1,2
1528441962302936,-1,-1,-1,-1,0,0,-2,0
1528441962302936,-1,-1,-1,-1,-1,-1,-1,-4
1528441962317652,0,0,-1,-2,-1,-1,-1,-1
1528441962317652,0,-1,-1,-1,-1,-1,-1,-1
1528441962323132,0,-1,1,-1,1,1,1,-1
1528441962323132,0,1,1,-1,-2,0,-1,0
1528441962338595,1,-2,-2,-1,-1,0,-1,0
1528441962338595,-3,-1,-3,-2,2,-1,-1,0
1528441962345580,0,0,-3,0,0,-1,0,1
1528441962345580,-1,-1,-2,0,1,0,0,0
1528441962361669,0,-1,-1,1,-1,0,0,0
1528441962361669,1,-1,1,-1,-3,0,-2,-1
1528441962362535,0,0,0,-1,-1,-2,0,0
1528441962362535,-1,-1,-1,0,1,0,-1,-2
1528441962377763,0,0,0,1,0,0,-1,-1
1528441962377763,0,1,-1,0,0,1,-1,1
1528441962383741,-1,-1,-1,-2,-1,-1,0,-1
1528441962383741,-1,-1,0,-1,-1,-1,0,0
