timestamp,emg1,emg2,emg3,emg4,emg5,emg6,emg7,emg8
1529298795099976,-4,-2,-1,0,-3,-2,-5,0
1529298795099976,-4,-3,-3,-12,-8,-4,-4,-5
1529298795107953,-6,-3,-1,4,-4,-6,-2,-5
1529298795107953,-1,-4,-9,-12,-2,-3,-3,-2
1529298795115933,-3,-1,1,5,0,0,1,3
1529298795115933,-2,0,2,5,4,3,2,-6
1529298795122914,1,-1,-1,-6,-3,1,-2,2
1529298795122914,-4,-2,0,2,-3,-2,-2,0
1529298795137874,0,0,1,2,-1,-1,-1,0
1529298795137874,1,0,2,0,-3,-1,-2,-1
1529298795152832,1,-1,0,-3,-2,0,-1,-2
1529298795152832,-2,-3,2,1,-2,-2,0,2
1529298795159813,0,1,-1,5,3,1,0,1
1529298795159813,-4,-2,-6,-6,0,3,2,-3
1529298795177765,-5,-2,1,-1,-4,-3,-2,-1
1529298795177765,-3,-3,-1,1,0,-1,-3,-5
1529298795190730,1,0,1,12,3,-1,1,0
1529298795190730,0,-3,-11,-30,-5,-1,0,2
1529298795198709,1,-1,-1,2,-3,-3,0,-3
1529298795198709,-12,-5,0,6,-3,0,-1,-1
1529298795212673,12,1,4,6,-6,-4,-6,-2
1529298795212673,-3,2,0,6,3,-2,4,-2
1529298795221652,4,3,5,7,10,10,12,11
1529298795221652,-1,-2,-5,-12,-1,-3,-3,-1
1529298795235611,-2,-4,-5,-5,4,-1,0,-4
1529298795235611,4,2,0,4,17,14,8,4
1529298795250599,2,0,-1,-4,-3,-1,-3,-2
1529298795250599,1,-1,-1,-4,-19,-7,3,2
1529298795259547,-2,5,8,12,11,0,2,-1
1529298795259547,1,-5,-13,-21,11,9,0,0
1529298795272557,-6,-5,-9,-22,-6,-2,-5,-3
1529298795272557,0,-1,-1,-7,-2,-8,-2,3
1529298795280502,-3,-5,-6,-9,-17,-5,-3,-5
1529298795280502,2,4,6,15,-5,-6,0,0
1529298795295454,0,-1,1,3,-8,-1,1,0
1529298795295454,-3,-5,-4,7,16,0,-3,-7
1529298795304428,3,5,1,-8,7,11,2,1
1529298795304428,0,-1,0,-1,-4,-3,-5,-2
1529298795325372,0,2,2,11,12,4,15,6
1529298795325372,-2,-1,-5,1,6,7,5,8
1529298795332353,3,2,1,16,13,13,2,-3
1529298795332353,-1,0,1,-4,14,18,3,1
1529298795347340,-3,0,3,3,-14,-5,-10,-1
1529298795347340,1,-5,-6,-9,-18,-19,-5,-9
1529298795355331,-2,-2,1,2,-9,-14,0,-3
1529298795355331,1,0,-4,-1,2,-9,-3,1
1529298795362312,-3,-4,-3,5,13,6,4,2
1529298795362312,5,4,1,-9,7,5,-4,-5
1529298795377233,4,5,5,8,1,10,5,1
1529298795377233,-1,-2,1,0,-14,-15,-14,-3
1529298795393193,-7,-8,-1,1,-15,-11,9,-1
1529298795393193,4,-1,-3,-3,7,-4,-4,-2
1529298795400172,0,-1,-6,-11,-4,3,5,2
1529298795400172,-2,-1,4,15,6,1,6,2
1529298795415184,4,4,-4,-10,5,5,-2,1
1529298795415184,-4,-5,1,13,-9,-10,-5,-6
1529298795423166,-6,-8,-9,-22,-17,-19,-10,-6
1529298795423166,-2,1,1,5,2,7,6,3
1529298795438115,-1,-1,-5,-16,8,12,1,-2
1529298795438115,-1,-1,-5,1,5,5,-2,-1
1529298795453060,0,-1,-1,10,-14,-20,-9,-1
1529298795453060,-2,0,2,6,-7,-3,2,-1
1529298795460059,-1,-1,-1,-8,-12,-11,-7,-2
1529298795460059,1,0,0,2,17,10,2,0
1529298795474973,-2,-1,1,5,5,12,-3,2
1529298795474973,-2,1,-3,-7,-11,-1,2,2
1529298795482950,-4,-4,-1,-1,-2,-10,-4,-2
1529298795482950,-1,-4,-10,-21,-7,0,3,-2
1529298795497910,3,0,3,7,-7,-10,-8,-1
1529298795497910,-1,1,6,-2,18,8,1,-1
1529298795504891,-2,2,17,52,13,15,6,3
1529298795504891,-5,-15,-44,-55,-23,-12,-12,-7
1529298795519852,-5,-3,13,27,-11,-15,0,-3
1529298795519852,2,-1,2,-10,0,-3,3,-2
1529298795534813,0,1,9,14,-5,4,-1,-5
1529298795534813,-5,-5,-1,-9,-20,-12,-2,-2
1529298795542817,3,-2,1,7,-10,-8,-7,-6
1529298795542817,-5,3,-3,-12,2,6,2,-3
1529298795557752,7,0,-7,-2,3,-4,2,4
1529298795557752,2,9,38,37,13,12,4,4
1529298795564756,2,14,29,56,18,10,1,-2
1529298795564756,-21,-38,-88,-79,-54,-25,-14,-4
1529298795580689,1,5,28,37,13,-6,-31,0
1529298795580689,-3,-1,7,41,-2,1,2,-10
1529298795595667,-3,-2,-1,15,18,11,12,9
1529298795595667,6,6,2,-4,2,6,2,-11
1529298795602631,2,7,-8,1,-17,-11,-21,2
1529298795602631,4,12,38,40,15,6,-1,8
1529298795617590,-6,1,-13,-33,9,18,31,2
1529298795617590,9,-6,-1,0,10,-1,-14,22
1529298795625582,-41,-48,21,-14,-7,-8,-3,-53
1529298795625582,48,12,15,16,-3,-6,-6,11
1529298795640529,-47,-12,-12,-3,-16,-12,-1,-25
1529298795640529,8,13,-25,-21,-5,-4,6,11
1529298795655503,1,-18,-7,-12,6,0,0,-3
1529298795655503,-25,-49,-7,-13,-3,5,4,-6
1529298795662470,27,51,-16,-7,-8,-5,0,14
1529298795662470,-6,11,17,-2,8,5,-5,-15
1529298795677430,9,12,-16,-4,-10,-5,-12,4
1529298795677430,-6,13,11,-13,-13,-13,-7,-2
1529298795685409,13,5,-1,-8,2,1,2,5
1529298795685409,-4,7,31,24,17,11,3,-3
1529298795700369,7,12,-2,7,1,6,5,5
1529298795700369,0,7,-55,-23,-5,-4,-9,-4
1529298795715329,-2,-38,12,-22,-12,-10,-10,-3
1529298795715329,-2,-19,10,2,9,10,9,-4
1529298795722310,-1,-10,2,6,9,14,10,12
1529298795722310,-14,2,-24,11,-2,2,-1,-6
1529298795737269,14,18,-1,12,-1,-3,-4,0
1529298795737269,1,2,2,2,-8,-14,-5,-5
1529298795745248,-9,13,1,-2,-7,-6,-2,2
1529298795745248,-3,10,22,-17,-2,-1,2,-2
1529298795760211,3,20,9,24,19,14,8,5
1529298795760211,5,11,-2,-8,-3,2,-4,1
1529298795775174,-14,-17,1,43,-11,-14,-9,-5
1529298795775174,0,-3,1,-31,-8,-9,-10,1
1529298795783147,0,-11,-29,-21,4,2,-10,-13
1529298795783147,3,-4,23,52,20,20,21,24
1529298795798107,8,-18,-22,-50,-17,-4,-21,-2
1529298795798107,-4,1,4,20,0,-2,15,-3
1529298795805088,-2,11,-5,-28,-13,-14,-2,-1
1529298795805088,-1,22,20,37,9,0,-1,-10
1529298795822078,-10,7,-22,-68,-9,3,19,1
1529298795822078,-1,-4,2,33,3,-5,-4,4
1529298795842988,-8,2,-18,-16,-6,-5,1,-3
1529298795842988,-1,2,4,-8,-2,-1,1,5
1529298795849995,1,-5,-3,7,4,1,-3,0
1529298795849995,-2,-5,-3,4,2,-1,-5,-15
1529298795864964,0,0,7,-1,-4,-6,-5,-15
1529298795864964,0,-9,-8,-10,-10,-5,-6,-7
1529298795872961,1,-7,-3,8,4,4,4,10
1529298795872961,-1,3,0,-4,4,0,-3,2
1529298795887869,2,-8,-5,13,5,-2,0,7
1529298795887869,-5,0,29,31,-2,-2,-3,-5
1529298795894906,16,26,11,60,9,2,-4,0
1529298795894906,-9,-12,-28,-42,-2,8,6,1
1529298795902836,-2,-10,13,24,0,-12,-3,-1
1529298795902836,-4,-16,8,-2,-2,1,-2,4
1529298795917800,7,12,14,-1,7,2,0,0
1529298795917800,3,8,-8,30,-3,1,-3,0
1529298795924778,-10,-22,1,-19,0,2,2,3
1529298795924778,5,13,6,1,3,-1,-1,-2
1529298795940765,9,39,7,6,-2,1,0,-2
1529298795940765,-1,-10,12,4,1,1,-3,-2
1529298795955742,-18,-28,-7,-27,-11,-6,-4,4
1529298795955742,-7,-12,-13,3,5,4,3,-4
1529298795962703,4,17,-26,27,-7,0,0,-4
1529298795962703,2,-7,20,35,8,5,2,-1
1529298795977680,-8,-14,-28,-47,-19,-8,-7,-7
1529298795977680,2,4,-6,1,-1,-4,-6,-2
1529298795985606,-4,-7,25,6,2,-3,-2,2
1529298795985606,-5,1,-3,2,-1,-2,-3,-3
1529298796000620,10,7,-15,-3,2,3,6,9
1529298796000620,-7,-15,-3,8,-1,-2,-13,-3
1529298796015581,21,2,-7,6,6,2,7,15
1529298796015581,-12,7,-16,-11,0,-3,-5,-12
1529298796022508,-7,-44,24,8,-1,-8,-3,6
1529298796022508,-5,-8,-68,-33,-12,-10,-7,-7
1529298796038510,-3,-9,1,19,8,10,2,-2
1529298796038510,4,7,-1,-29,-10,-6,-3,0
1529298796045691,5,17,-12,8,-3,-6,-4,-6
1529298796045691,2,10,2,-3,9,12,6,-1
1529298796060966,-1,4,24,-1,-1,1,-4,-2
1529298796060966,5,13,45,43,8,-1,2,-2
1529298796074989,-9,-2,32,6,8,0,8,-8
1529298796074989,5,-4,-6,-5,3,2,11,1
1529298796083232,-3,-5,-38,-35,-8,2,9,0
1529298796083232,8,8,14,15,3,-3,-1,0
1529298796098191,-12,-9,-4,-6,-1,0,-23,-6
1529298796098191,-5,6,-5,25,0,-5,-3,0
1529298796105983,5,-4,-6,-40,-5,0,8,8
1529298796105983,12,1,-5,-20,-1,3,4,9
1529298796120438,-17,-16,6,15,-2,-4,2,4
1529298796120438,17,4,-1,-8,-2,-1,8,-15
1529298796135134,8,10,-10,-4,-5,-5,0,3
1529298796135134,-8,-10,-12,-6,-3,0,1,4
1529298796143477,-6,-11,9,11,4,-1,1,-3
1529298796143477,-5,0,16,5,-1,1,-3,-6
1529298796157363,3,0,-11,-13,-6,-6,-4,-4
1529298796157363,-1,3,-2,-38,-5,-4,-2,6
1529298796165343,-2,7,11,21,1,-1,-2,-10
1529298796165343,-9,-1,10,4,-3,-7,-12,-6
1529298796180306,4,-5,-3,-1,4,3,4,6
1529298796180306,6,-2,-2,-21,-4,3,-2,6
1529298796195598,-2,0,3,-4,-1,1,0,-6
1529298796195598,-9,-6,-11,-7,-5,-2,-5,-2
1529298796203464,6,8,8,18,4,3,2,2
1529298796203464,-2,0,-2,-4,-2,3,3,-2
1529298796218376,0,2,2,-2,-2,-5,-1,-3
1529298796218376,1,-4,-3,4,1,2,-1,3
1529298796225692,-4,-3,-9,-12,-5,-5,-5,-6
1529298796225692,-1,-3,10,20,4,-2,-4,0
1529298796240867,-5,-12,-10,-12,-9,-9,-1,0
1529298796240867,-2,3,4,-2,-1,0,1,1
1529298796255625,2,0,5,12,3,1,0,1
1529298796255625,-2,1,-5,-6,-3,-1,-3,0
1529298796262593,0,-2,0,-3,-6,-4,-1,0
1529298796262593,0,-2,-5,-9,0,0,-3,4
1529298796277553,-3,-2,-2,-4,-4,-1,-1,-4
1529298796277553,1,2,4,16,3,1,1,-1
1529298796285531,-2,-1,5,-12,0,-2,-1,0
1529298796285531,1,-2,-9,-4,-1,0,-2,-2
1529298796292525,-1,3,3,10,3,-2,-1,-2
1529298796292525,1,3,6,-2,-2,4,1,0
1529298796307518,-4,-5,-5,-11,0,-2,0,0
1529298796307518,0,-7,1,-2,-1,-2,-3,-2
1529298796323486,-1,-1,2,-1,-2,-1,0,-2
1529298796323486,-1,0,1,4,5,1,-2,0
1529298796337697,0,2,3,11,1,3,1,0
1529298796337697,0,-2,-19,-10,-2,-1,-2,-2
1529298796345938,-3,-3,6,-1,-3,-1,-1,-3
1529298796345938,2,11,-12,-4,-2,-3,-3,-2
1529298796360919,1,3,4,-1,-1,1,1,-2
1529298796360919,0,4,-11,-5,-2,-3,-1,-1
1529298796374885,-1,-4,-10,-1,0,-1,-1,-1
1529298796374885,-4,-16,1,-3,-3,-1,-1,0
1529298796389847,2,1,7,7,3,-1,-1,0
1529298796389847,-1,-6,-7,-7,-2,-2,0,-2
1529298796397826,-2,2,1,-2,1,1,0,-2
1529298796397826,-3,-1,1,0,-2,-5,-3,1
1529298796412819,-1,-7,-8,2,2,2,2,2
1529298796412819,1,1,7,0,0,2,1,1
1529298796419800,0,3,0,-1,0,1,0,1
1529298796419800,-3,-1,1,-3,-2,-3,-2,3
1529298796435729,-1,2,-3,3,1,0,-1,5
1529298796435729,-11,-2,5,0,-1,2,-2,-9
1529298796450840,6,-1,-10,-6,-5,-5,-5,-7
1529298796450840,-2,-3,2,1,1,-1,-3,-12
1529298796459671,0,-6,-2,-2,0,1,1,-11
1529298796459671,2,-8,-2,-2,-3,-3,-2,-9
1529298796472852,-3,-6,-1,0,-2,-3,-3,-7
1529298796472852,-1,-3,0,3,3,4,1,-1
1529298796480843,0,4,-4,-1,-3,-5,-2,0
1529298796480843,3,6,0,1,-1,-5,-4,0
1529298796495801,4,-4,1,-1,3,3,1,0
1529298796495801,-10,-20,9,0,0,0,1,5
1529298796510784,-2,-3,0,-2,-2,-3,0,3
1529298796510784,2,-1,0,-2,-1,0,-1,6
1529298796518511,-6,-10,-1,-1,0,3,0,3
1529298796518511,0,3,-6,-5,-4,-3,-2,1
1529298796532726,4,19,-16,-4,1,-2,-1,-2
1529298796532726,-5,-27,-2,0,1,1,-1,-4
1529298796540442,3,-11,-8,-5,-5,-6,-4,-2
1529298796540442,2,-9,-2,-5,-5,-6,-2,-3
1529298796555633,-2,-2,5,4,0,-3,-2,-4
1529298796555633,2,11,-6,-1,-1,2,0,-1
1529298796570597,-2,-5,3,-1,-3,-6,-4,-4
1529298796570597,-6,2,3,0,-3,-1,1,-2
1529298796578343,-2,6,-5,-1,-2,6,1,3
1529298796578343,2,15,19,4,3,2,4,3
1529298796593507,-3,4,0,-2,-2,-1,-2,-1
1529298796593507,3,8,3,-4,-7,-10,-7,-1
1529298796600850,-1,4,-4,-2,-1,-2,1,-3
1529298796600850,-5,-3,-11,5,5,6,2,2
1529298796615936,-3,-1,-7,-4,-4,-5,-1,-1
1529298796615936,-1,-5,-10,-4,-1,-5,1,-4
1529298796630639,-4,-6,-3,1,7,6,8,-1
1529298796630639,-4,-4,-2,1,1,3,3,-5
1529298796638554,-3,2,7,-1,-2,-3,-5,4
1529298796638554,13,21,-9,-1,-3,-2,-2,4
1529298796653598,-8,9,-15,-18,-10,-10,-6,-1
1529298796653598,-5,-9,2,-1,1,3,1,-2
1529298796660770,5,3,-2,2,5,5,3,1
1529298796660770,-1,-2,1,-1,-3,-1,-3,-1
1529298796675422,8,3,-1,-3,-3,-1,1,-1
1529298796675422,-2,-5,-5,-3,0,-3,0,-4
1529298796690577,-2,-7,4,2,0,2,1,2
1529298796690577,-1,1,-1,0,-3,-3,-1,-3
1529298796698458,-2,-5,4,-2,0,-3,-3,-6
1529298796698458,-8,-7,5,1,-1,2,-2,1
1529298796713040,0,-6,4,1,1,2,0,2
1529298796713040,5,2,-1,3,-2,-3,-3,1
1529298796720981,4,0,-1,3,0,-1,-3,-4
1529298796720981,-6,-8,-3,-4,-1,-1,-3,-1
1529298796735960,-4,-2,-11,0,0,-1,-3,-1
1529298796735960,-1,-3,-2,-2,-2,-1,-6,-3
1529298796750893,-5,-3,-2,1,-2,-3,-3,-3
1529298796750893,4,-2,-3,-4,-4,-1,-1,4
1529298796757655,-5,-3,10,2,-1,-2,-2,-8
1529298796757655,1,-1,-6,-13,0,-1,4,0
1529298796772861,1,-1,3,4,0,-1,-3,-2
1529298796772861,-3,-1,-5,-1,-2,0,-1,-1
1529298796780594,-2,-2,-7,-2,-5,-3,-3,2
1529298796780594,-3,-3,-4,7,-1,-2,1,-2
1529298796795814,-3,-1,2,2,-1,-5,6,0
1529298796795814,-1,-4,-1,1,0,-2,2,0
1529298796810757,-4,-2,-5,0,-2,2,7,-1
1529298796810757,1,-1,-2,-4,-2,2,7,-10
1529298796817739,-2,-1,-4,-13,-1,3,5,-10
1529298796817739,-1,-1,3,8,-4,-5,-5,-9
1529298796833486,1,2,-1,2,-2,-7,-3,7
1529298796833486,-1,-1,3,-2,1,-11,-4,11
1529298796840693,-3,-4,9,-9,0,0,-1,11
1529298796840693,1,-4,0,-11,-3,3,-7,5
1529298796854959,-2,0,-2,2,-1,-7,-1,-1
1529298796854959,2,1,7,2,0,-2,1,-1
1529298796870946,-1,-3,-2,-4,-3,-3,-28,-3
1529298796870946,-3,0,-7,5,-2,5,1,0
1529298796878139,-8,-5,-9,-15,-2,5,-21,-2
1529298796878139,11,4,-1,-4,1,1,-15,1
1529298796893099,-4,4,-2,2,1,0,8,0
1529298796893099,-1,1,-7,-1,-3,2,51,0
1529298796900342,-2,-2,-8,5,-2,3,-1,-3
1529298796900342,-2,-1,-11,3,1,2,4,2
1529298796915548,0,-2,-3,3,-1,-4,20,-1
1529298796915548,-3,-1,1,-2,-1,-4,7,-2
1529298796930529,-2,-2,12,2,3,-2,8,-1
1529298796930529,2,-1,6,-1,0,-3,-6,-7
1529298796938462,-3,-5,-2,10,-4,-3,1,0
1529298796938462,-6,-4,-4,-14,-1,2,1,-2
1529298796953454,5,0,5,0,-5,-4,-2,-3
1529298796953454,-5,-4,-1,0,-1,-1,-8,4
1529298796960184,-1,1,4,8,0,1,-10,-6
1529298796960184,0,-6,-6,-16,-4,-1,3,-1
1529298796975172,0,-3,3,-2,-3,-4,1,-2
1529298796975172,-4,0,1,3,-1,-1,-13,-1
1529298796983217,2,4,-2,-8,-1,0,-3,2
1529298796983217,-11,3,3,10,0,0,1,-4
1529298796998129,-1,1,1,-2,1,-1,0,-2
1529298796998129,-3,-1,-2,5,1,-1,0,0
1529298797013494,-6,0,-3,-2,-1,-1,-2,0
1529298797013494,1,2,-2,1,-5,-3,-6,-1
1529298797020584,2,-1,-6,-4,-2,-2,-1,0
1529298797020584,-2,-5,2,1,-1,0,-2,1
1529298797035320,3,4,4,-1,-1,-2,-4,-9
1529298797035320,-3,0,2,-1,-4,-5,-5,0
1529298797050286,-4,-2,0,3,0,-2,1,-2
1529298797050286,-2,0,1,2,-2,-1,-2,-3
1529298797058260,-1,-3,1,0,-1,2,0,7
1529298797058260,5,0,-1,0,-1,-1,-1,0
1529298797072222,-17,-5,-5,-2,-1,1,1,-8
1529298797072222,19,2,-3,-8,-1,-2,-2,3
1529298797080200,-3,-3,0,2,-1,1,-3,-1
1529298797080200,1,0,2,2,0,-1,2,-1
1529298797095215,-5,-4,3,-4,-1,0,0,-1
1529298797095215,-10,-4,0,1,0,-2,-4,-4
1529298797103194,0,-4,-9,-8,-3,-2,3,-1
1529298797103194,5,0,0,-4,0,-1,-1,0
1529298797118155,-12,-6,-1,5,0,-2,0,1
1529298797118155,0,-1,-2,8,1,0,0,-3
1529298797133112,5,0,-2,-4,-3,-1,-3,-1
1529298797133112,-3,-2,1,-4,-1,2,0,-3
1529298797140095,0,-2,-3,-3,-1,0,1,-1
1529298797140095,-5,-3,0,11,-4,-3,-1,2
1529298797155057,8,0,-3,-1,-1,-2,-3,-8
1529298797155057,-2,-1,0,-2,-2,-2,-1,-2
1529298797163035,0,3,2,0,-1,-2,0,1
1529298797163035,-14,-5,5,-5,0,-2,1,-6
1529298797177992,2,0,-2,-1,1,0,-2,-1
1529298797177992,-2,1,-7,1,-4,0,-1,-2
1529298797192943,-8,-4,-5,2,1,1,0,2
1529298797192943,-6,2,1,-7,-2,-1,0,-11
1529298797199933,3,0,-1,0,-2,-1,2,0
1529298797199933,1,-1,-3,-3,0,-1,0,2
1529298797214895,-3,1,0,-1,1,-1,0,1
1529298797214895,3,7,1,-3,1,0,0,2
1529298797229801,-9,-3,-2,5,0,-1,-1,-2
1529298797229801,-1,-5,-4,-2,0,-2,-2,1
1529298797237832,-7,-3,-1,0,0,-1,0,-4
1529298797237832,16,0,-8,-7,-2,-1,-1,4
1529298797252794,-5,-2,-5,6,0,-2,-1,-2
1529298797252794,-7,-6,-7,-9,-3,0,2,-2
1529298797260717,-10,-5,-1,-4,-3,-1,-3,-2
1529298797260717,-5,0,3,-2,-2,2,-1,-12
1529298797275703,-5,0,1,2,1,0,-1,1
1529298797275703,-2,0,1,3,0,-1,0,-1
1529298797282660,1,-2,0,0,-5,0,-3,4
1529298797282660,-4,-3,-4,-4,-1,-2,-1,-3
1529298797297672,4,0,4,7,2,0,0,9
1529298797297672,2,-3,-11,-21,-4,-3,-2,-10
1529298797312635,-2,0,2,-9,-4,-1,-1,-1
1529298797312635,7,0,-3,-1,-1,-1,-4,0
1529298797320613,0,-2,1,1,-2,-1,0,-3
1529298797320613,-3,-1,5,9,2,0,1,2
1529298797335570,-2,0,1,-1,-2,0,-1,-1
1529298797335570,0,-2,-2,-5,1,-2,-2,-4
1529298797342554,1,-3,-2,0,0,0,-1,-1
1529298797342554,-10,-7,-4,1,-4,-2,-1,-1
1529298797357460,3,0,-2,-1,-4,-3,-2,-6
1529298797357460,-1,-2,-2,6,1,-2,-1,2
1529298797372419,0,-1,2,1,-1,1,0,1
1529298797372419,-2,-1,-2,2,-3,1,-1,-1
1529298797380925,-1,2,-1,0,0,-2,-1,0
1529298797380925,-2,-2,1,-3,-2,-1,-1,2
1529298797395594,-1,-5,-5,-7,0,0,-3,-6
1529298797395594,-2,-1,2,5,0,-1,-1,1
1529298797410652,-2,-1,-2,1,0,-2,0,-1
1529298797410652,1,-1,-2,-1,-2,-1,-1,-2
1529298797418523,-1,2,-1,-2,-2,-2,0,1
1529298797418523,-1,-1,0,-2,0,0,-1,-2
1529298797433516,-4,-3,-2,0,-1,-2,0,-2
1529298797433516,0,1,-2,-4,-3,-2,-2,1
1529298797440712,-2,0,6,9,1,-1,-1,0
1529298797440712,2,-3,-6,-4,-4,-3,-1,-4
1529298797455651,1,-2,-3,4,-1,-3,-2,0
1529298797455651,-2,-1,3,9,1,0,-1,2
