timestamp,emg1,emg2,emg3,emg4,emg5,emg6,emg7,emg8
1529298811282535,-1,-1,-3,-8,-5,-1,-2,-1
1529298811282535,1,0,0,-1,-1,1,0,0
1529298811283530,-2,-1,0,4,7,2,0,-1
1529298811283530,-2,0,0,-1,-1,0,0,0
1529298811283530,0,-1,-1,1,0,0,-1,0
1529298811283530,0,-1,-1,-4,0,0,-1,-2
1529298811285525,-2,0,-1,0,1,0,-1,-1
1529298811285525,-2,-3,-3,-4,-6,-5,-3,-3
1529298811295499,0,-2,-2,3,2,1,0,0
1529298811295499,2,3,2,3,-1,2,1,4
1529298811306468,-3,-7,-2,-3,-8,-2,-1,-2
1529298811306468,0,0,-1,1,0,-2,-2,-1
1529298811310459,0,0,-1,-3,-2,-3,-1,-2
1529298811310459,-2,-3,-2,0,-1,-2,1,-3
1529298811326418,2,-1,3,0,-2,-2,1,0
1529298811326418,0,2,2,-1,3,0,-1,0
1529298811336389,1,0,1,1,-1,1,-1,-1
1529298811336389,-3,-2,0,0,-1,0,-1,0
1529298811340379,1,0,-3,-1,4,0,-2,0
1529298811340379,0,-2,-1,0,0,-2,0,-2
1529298811355343,1,1,0,0,-4,0,-2,0
1529298811355343,0,-1,0,-2,-1,1,-2,-1
1529298811364314,1,1,-1,-1,-3,0,1,-3
1529298811364314,0,-2,-3,2,-2,1,0,2
1529298811404209,-1,1,-1,0,-9,0,-1,0
1529298811404209,-1,0,-5,1,-3,1,-1,-2
1529298811405207,-3,-1,2,4,5,2,9,1
1529298811405207,1,0,2,-19,0,-5,-8,-2
1529298811406203,5,5,1,3,-6,3,5,4
1529298811406203,-1,1,-1,4,2,1,-1,1
1529298811408197,-6,-9,-6,-9,-4,-4,-1,-4
1529298811408197,1,2,0,6,-11,-2,3,2
1529298811415209,-5,-1,1,-8,11,-1,0,-2
1529298811415209,-1,-1,-1,-3,-2,1,1,-1
1529298811423163,2,0,4,1,0,1,-2,1
1529298811423163,-1,-3,-1,7,6,-1,-4,-2
1529298811431137,1,1,-1,-6,-8,-2,-4,-1
1529298811431137,-2,0,-4,-2,-6,-4,-2,-3
1529298811446096,1,-3,0,8,0,1,-1,1
1529298811446096,-3,-1,0,-3,7,8,3,2
1529298811453077,3,6,2,3,-25,-5,1,3
1529298811453077,-2,-4,-5,-8,11,-8,-3,-2
1529298811460058,-1,3,3,1,2,-5,-2,-3
1529298811460058,1,3,-5,4,-7,-1,1,2
1529298811476015,2,1,5,5,6,4,0,1
1529298811476015,1,0,-4,-1,-1,3,0,0
1529298811483007,-5,-9,-10,-15,-17,1,-6,-3
1529298811483007,-4,-5,-6,-7,-25,3,0,-4
1529298811489979,-1,-2,-2,5,24,7,0,-2
1529298811489979,-3,-4,-3,-15,-29,-19,-8,-3
1529298811505935,-2,-1,4,7,14,2,1,1
1529298811505935,-3,-4,-4,2,7,1,-2,-2
1529298811512953,0,6,3,0,-2,-4,0,2
1529298811512953,3,3,-1,0,4,0,-3,-2
1529298811519944,-1,1,-4,0,-1,7,0,0
1529298811519944,-3,-16,-3,-10,-4,-1,0,0
1529298811534866,2,9,-3,3,-15,-3,0,-1
1529298811534866,-2,-10,6,10,18,10,8,4
1529298811543885,9,12,0,-6,-9,-6,-3,2
1529298811543885,-4,-3,0,10,2,2,3,-2
1529298811549870,-9,-15,-11,-13,5,-7,-6,-7
1529298811549870,1,9,0,-1,-6,1,-1,2
1529298811565811,3,11,7,11,15,5,0,-3
1529298811565811,4,1,4,1,-17,0,6,8
1529298811572758,-6,-8,-11,-7,-15,-5,-5,-6
1529298811572758,-2,-12,0,2,-9,-1,2,0
1529298811579739,2,3,-3,-12,-2,-6,-4,2
1529298811579739,0,5,2,1,10,-1,-3,-4
1529298811595703,4,-4,0,6,8,4,1,6
1529298811595703,-5,-1,3,1,6,-7,3,-3
1529298811603728,-1,-4,-1,5,-5,-3,-2,-1
1529298811603728,-1,9,-4,-13,6,-7,-3,-1
1529298811610657,3,1,6,-1,-18,2,2,2
1529298811610657,6,6,4,9,8,6,1,4
1529298811625616,-1,-3,-4,2,-4,2,0,1
1529298811625616,-3,-1,0,2,14,-1,-2,-6
1529298811632632,-3,1,-2,1,6,4,4,1
1529298811632632,3,0,2,-7,-27,-9,-13,-4
1529298811640575,-5,-4,-8,-6,-10,-14,-7,-3
1529298811640575,-3,-2,1,7,9,1,4,-2
1529298811655535,9,8,-1,0,0,2,2,3
1529298811655535,-6,-6,-5,-8,4,-4,-3,-6
1529298811663532,-5,-12,-6,3,4,-3,-2,-2
1529298811663532,4,0,0,1,-7,-4,-4,-2
1529298811670495,-1,5,4,-2,-1,3,1,0
1529298811670495,2,6,0,2,2,10,9,4
1529298811685457,-7,-6,-2,3,-18,-4,-2,-5
1529298811685457,-2,-1,-5,-11,-8,-5,-4,-2
1529298811692476,-2,-3,7,9,4,4,-2,-3
1529298811692476,8,9,3,3,4,6,-2,6
1529298811700416,-4,3,-6,-15,-16,-10,-3,-2
1529298811700416,-2,-1,4,15,-15,1,6,2
1529298811715374,-2,-8,-10,-12,0,-6,-2,-4
1529298811715374,2,0,15,28,24,7,0,0
1529298811723354,3,-2,-6,-7,-13,-6,-3,0
1529298811723354,-22,-9,-9,-5,9,4,-4,-4
1529298811730335,-14,6,-1,2,-11,4,0,-1
1529298811730335,-4,2,-3,-11,-1,-6,-1,3
1529298811746294,11,2,11,23,16,8,5,1
1529298811746294,23,7,6,11,0,-15,-4,5
1529298811752278,1,-14,-13,-14,-4,-8,-3,-6
1529298811752278,-2,-2,-4,-15,-13,9,1,-1
1529298811760255,-2,-8,-7,-16,-6,3,5,-2
1529298811760255,7,3,-4,-5,-8,0,-3,-2
1529298811775215,5,12,7,-3,2,6,3,4
1529298811775215,-4,-12,-6,-6,-19,-10,0,-2
1529298811783222,-7,-2,7,12,20,-2,1,-3
1529298811783222,-2,-1,-16,-40,-6,-3,-2,-1
1529298811790177,4,4,3,14,3,-6,-2,2
1529298811790177,-5,0,-12,-4,-7,2,1,-5
1529298811806155,-12,-14,0,-13,1,3,-4,-4
1529298811806155,10,12,8,19,1,6,1,4
1529298811813116,1,10,-2,-21,-21,-4,-4,-1
1529298811813116,-4,-10,-16,-7,-4,-12,-5,-2
1529298811828074,11,8,8,21,10,7,1,3
1529298811828074,-11,-16,0,21,-3,-10,-9,-7
1529298811835057,-15,-43,-38,-12,-11,2,3,-5
1529298811835057,2,-7,11,-11,6,2,0,-3
1529298811843035,18,72,34,3,-32,-10,-2,6
1529298811843035,5,11,1,0,7,15,16,8
1529298811852010,-4,-19,-10,9,-12,-1,-16,-10
1529298811852010,-14,-42,-49,-10,3,-5,0,-5
1529298811865985,-6,-13,-5,-43,-66,15,-6,-6
1529298811865985,18,46,25,29,-16,-7,2,10
1529298811872954,-10,-15,-17,-14,-17,-11,-7,-10
1529298811872954,8,0,-5,-9,-6,11,6,6
1529298811887943,14,14,27,33,15,14,5,6
1529298811887943,0,6,-1,7,-16,-3,-6,-4
1529298811894934,-6,-28,-34,10,-9,-3,1,-3
1529298811894934,-7,-17,16,21,53,8,1,-8
1529298811902876,21,55,38,3,9,-8,8,9
1529298811902876,-6,-7,-13,-75,-33,-30,-44,-23
1529298811911851,-5,-9,6,9,-19,-25,8,3
1529298811911851,-2,2,0,1,-17,7,7,2
1529298811933818,-18,-42,-43,-16,19,-19,-39,-12
1529298811933818,0,-6,9,29,-11,-3,18,11
1529298811935813,-7,-1,-1,7,44,-2,-5,-1
1529298811935813,14,27,18,-6,-4,-28,-12,9
1529298811948751,-1,-8,-9,16,-2,-1,12,2
1529298811948751,-6,-10,-9,27,1,-13,-5,0
1529298811954735,-3,-9,-10,1,24,-4,-6,-2
1529298811954735,7,25,29,-6,0,-2,18,10
1529298811970692,8,6,2,-7,8,-3,0,6
1529298811970692,-7,-22,-8,10,1,8,-2,-4
1529298811971690,3,4,11,-18,14,9,11,7
1529298811971690,0,8,4,-36,10,79,-4,-6
1529298811986650,-9,-21,-21,-9,-17,-51,0,-3
1529298811986650,-4,-5,-2,13,13,-72,5,2
1529298811992634,10,22,16,26,-11,-32,1,4
1529298811992634,-5,2,-10,29,-11,-7,-12,-6
1529298812009642,-9,-20,-15,-12,-3,39,0,-4
1529298812009642,-1,-4,-2,-27,0,56,9,5
1529298812015593,9,15,2,-24,12,6,-13,-3
1529298812015593,0,0,0,23,-9,1,-2,1
1529298812030737,0,-5,-4,5,1,19,5,-1
1529298812030737,-5,-11,-1,-24,11,4,0,-3
1529298812031701,2,5,11,-42,6,21,12,2
1529298812031701,-3,-3,-8,-2,-17,-18,-20,-4
1529298812046655,-2,-8,-6,43,-1,0,3,-2
1529298812046655,2,2,-5,30,-8,9,-5,-2
1529298812052639,1,9,15,45,-6,7,5,2
1529298812052639,-3,-2,-6,6,-2,-12,0,-3
1529298812069643,-10,-12,-8,-5,9,5,5,-1
1529298812069643,4,6,-2,-25,8,-2,3,3
1529298812075578,-2,-2,5,16,-9,-15,-5,-4
1529298812075578,4,11,4,6,-7,-28,2,2
1529298812090538,2,-3,-4,-30,3,-9,-2,0
1529298812090538,-5,-11,-4,-2,-14,-9,4,-2
1529298812097556,-1,1,-2,7,-3,-21,-1,0
1529298812097556,3,6,9,10,2,-43,-5,1
1529298812106495,0,6,0,-7,-2,33,4,-1
1529298812106495,0,-7,-8,11,-13,30,-2,1
1529298812112480,-2,2,12,-5,0,38,7,-2
1529298812112480,0,2,-6,-23,-3,27,3,-4
1529298812129433,-1,-5,-1,2,-12,-9,-2,2
1529298812129433,-3,-2,-4,-17,11,-4,1,-4
1529298812135417,6,5,7,12,3,-1,-2,0
1529298812135417,-8,-11,-8,-14,-3,2,-1,-5
1529298812150378,5,5,12,-4,5,-15,-7,3
1529298812150378,-5,-9,-4,25,9,20,-1,-3
1529298812157361,10,11,8,-3,-16,13,-1,5
1529298812157361,1,1,-3,-1,-6,-4,2,0
1529298812166335,-4,-3,-1,21,23,9,1,-1
1529298812166335,2,0,1,-28,-14,-10,1,2
1529298812180350,-1,1,-6,-5,3,-1,-8,-4
1529298812180350,-5,-7,0,22,4,-3,0,-1
1529298812189277,1,-5,-7,-6,-17,-15,0,0
1529298812189277,0,-1,-2,-9,7,-6,-5,-2
1529298812195313,-7,-6,-8,-23,2,-7,-3,1
1529298812195313,6,18,13,-5,-23,-3,4,3
1529298812219248,-2,-2,-11,9,6,-5,2,-1
1529298812219248,-3,-9,1,12,-1,-10,2,-2
1529298812226175,1,2,1,-4,2,1,-2,1
1529298812226175,-6,-13,-10,2,-7,-6,-4,-5
1529298812228173,0,2,0,1,-10,-12,4,-3
1529298812228173,9,12,7,-20,-3,0,3,6
1529298812233196,3,2,1,33,-13,-4,-6,-3
1529298812233196,1,-2,2,4,-3,-9,4,-1
1529298812257092,-3,-3,-6,6,-1,1,0,-2
1529298812257092,-2,-2,0,7,-4,2,-1,-4
1529298812258096,-1,1,-2,-15,-14,-2,4,2
1529298812258096,4,3,-3,-5,-10,7,0,2
1529298812270097,-5,-15,-10,15,-6,-14,-10,-3
1529298812270097,-3,-1,-2,5,8,4,-4,-3
1529298812278037,-5,-5,-2,13,-4,0,0,-1
1529298812278037,-5,-8,-4,2,6,0,-1,-4
1529298812287057,1,2,-2,-17,-13,-6,-2,1
1529298812287057,-2,-2,-3,-12,20,9,0,-1
1529298812293038,-3,-4,-3,-13,3,-5,-2,-1
1529298812293038,-8,-12,-6,20,11,1,-3,-4
1529298812308955,3,5,-2,-12,10,7,-2,0
1529298812308955,-6,-7,-7,-22,1,-1,-1,0
1529298812314993,5,9,-1,-16,6,7,3,3
1529298812314993,2,2,7,1,28,-3,-7,-3
1529298812329949,-5,-8,-7,-19,4,1,0,-1
1529298812329949,1,6,6,2,7,1,2,-4
1529298812337929,-3,-2,-6,-4,0,-3,-17,-2
1529298812337929,4,3,-4,-7,-4,6,6,2
1529298812346854,11,24,16,-15,-7,2,3,6
1529298812346854,0,3,-3,-7,12,-1,1,-3
1529298812352891,-5,-9,-2,14,3,0,-1,-3
1529298812352891,-3,-6,-6,4,7,-2,-5,-4
1529298812368849,-1,-5,-4,18,5,0,1,1
1529298812368849,6,14,12,11,1,-4,-1,2
1529298812374837,-1,-4,6,-3,12,-3,5,-3
1529298812374837,0,1,-4,-8,-3,2,-1,2
1529298812390778,-4,-4,1,5,9,4,0,-1
1529298812390778,0,-2,-3,0,-3,-16,0,1
1529298812397717,-4,-2,0,6,7,-1,2,-3
1529298812397717,5,9,2,-39,-10,-8,0,3
1529298812413907,-5,-8,-13,16,5,1,-2,-3
1529298812413907,-2,-5,-3,-16,-10,-1,-8,-2
1529298812414844,3,2,-1,12,8,-1,-5,1
1529298812414844,-3,-6,-5,-6,1,1,2,0
1529298812429966,3,4,6,-4,-6,1,1,-1
1529298812429966,-4,-6,-1,18,-6,1,-1,-1
1529298812435266,1,0,-6,-18,-11,-6,-3,-3
1529298812435266,0,1,3,6,-18,-3,-17,-5
1529298812449957,-7,-6,-5,-21,8,1,2,-3
1529298812449957,6,0,5,26,-10,-6,-2,-3
1529298812457987,0,1,0,-1,-7,1,4,2
1529298812457987,0,5,5,24,1,3,6,0
1529298812473899,-1,-7,-8,0,5,-3,-6,-4
1529298812473899,-3,4,1,-32,-15,-5,-2,-2
1529298812473899,-1,-1,1,3,7,1,4,1
1529298812473899,2,-1,0,12,9,5,3,4
1529298812488940,-1,-2,-4,-7,-19,2,3,-1
1529298812488940,-4,-8,-4,13,11,6,4,1
1529298812495617,7,15,11,7,-1,-2,0,4
1529298812495617,-12,-12,-13,-16,-5,-3,3,-2
1529298812510559,3,3,-2,-28,0,-3,1,2
1529298812510559,-3,-4,-3,-2,-4,1,-1,-1
1529298812518568,-1,-4,0,-1,-6,-3,-2,-1
1529298812518568,1,2,0,5,-7,-2,1,2
1529298812533127,1,4,0,0,-9,-2,-1,1
1529298812533127,-5,-5,-8,-8,3,-3,-2,-4
1529298812534122,-1,-3,3,16,8,3,2,-4
1529298812534122,2,5,-5,-13,-3,1,0,-3
1529298812549455,-1,-4,7,13,-5,-2,0,-1
1529298812549455,2,1,-2,-7,0,-1,0,2
1529298812555440,-2,-6,-7,-8,-9,1,4,-1
1529298812555440,-2,-2,-3,-3,-1,-6,-15,-4
1529298812570730,-2,-2,4,3,3,1,-2,-1
1529298812570730,2,2,-7,11,-10,-1,1,2
1529298812577658,-3,-2,-4,-6,-6,-1,-2,-1
1529298812577658,0,-1,8,19,-5,-1,-7,-1
1529298812593855,1,-4,-4,-6,-4,1,0,-2
1529298812593855,0,3,2,6,-14,-4,0,0
1529298812594465,0,-2,-1,0,5,1,1,0
1529298812594465,1,-3,-1,-2,-3,-2,4,0
1529298812609211,-1,-2,0,10,-3,-2,-3,-2
1529298812609211,2,3,-6,-28,-2,7,1,-1
1529298812616005,-2,-3,3,26,-10,-4,-5,-4
1529298812616005,0,-1,-12,-38,-7,-2,2,1
1529298812630993,-4,-1,-2,1,5,1,-1,0
1529298812630993,-2,-2,-1,0,1,0,4,2
1529298812638072,-1,0,-2,-3,-12,-7,-2,-1
1529298812638072,-2,-4,-4,0,9,-6,2,-2
1529298812653950,4,4,2,1,-11,-8,2,2
1529298812653950,-1,-2,1,5,14,-2,-2,1
1529298812654834,-1,-1,-5,-5,-5,2,-4,-1
1529298812654834,0,-1,5,12,-4,5,4,0
1529298812669668,-2,-1,-3,-3,1,-2,-1,-1
1529298812669668,0,-1,4,7,5,6,6,0
1529298812675653,1,2,1,-3,9,-4,-4,1
1529298812675653,-1,-2,-4,0,-1,1,2,1
1529298812690614,-2,-2,-1,6,3,2,1,1
1529298812690614,1,1,3,0,15,1,1,1
1529298812697898,0,-1,-5,-19,8,1,2,-2
1529298812697898,0,2,0,10,7,-3,-1,2
1529298812713552,0,1,-3,-3,0,-1,1,1
1529298812713552,-3,-2,4,16,4,-2,-4,-2
1529298812714779,-1,1,-2,-12,-8,0,0,0
1529298812714779,-1,-1,-1,-7,5,-1,0,0
1529298812729561,-1,-1,-2,-5,1,0,-11,-6
1529298812729561,0,-1,0,4,-1,3,2,3
1529298812735845,-2,-2,0,-1,18,1,-2,-2
1529298812735845,-2,2,5,2,6,6,4,2
1529298812750837,-3,-3,0,-1,6,-3,-2,-4
1529298812750837,0,0,-1,-3,3,3,-2,-1
1529298812758176,-3,-1,1,0,9,1,-1,-3
1529298812758176,4,5,0,-2,-15,-1,1,5
1529298812773460,-4,-2,2,1,5,1,1,-6
1529298812773460,0,-2,-5,-5,-12,-6,-3,0
1529298812774431,0,-3,-5,-4,-20,0,7,3
1529298812774431,-2,-4,-5,-4,-10,-21,-16,-2
1529298812788924,0,-2,-1,2,-6,-21,-3,0
1529298812788924,-3,-4,-5,-4,-5,1,-5,-1
1529298812795331,-2,2,1,6,8,9,9,2
1529298812795331,0,0,-2,-2,4,9,1,-1
1529298812810945,2,1,0,-2,2,5,-1,1
1529298812810945,-11,-5,-3,-1,4,-16,-6,-7
1529298812818107,-2,1,1,2,-9,-12,-9,1
1529298812818107,5,-2,-3,-9,-14,-2,-2,-1
1529298812834073,-2,-8,-1,4,11,3,-3,-4
1529298812834073,-6,4,1,-5,-18,4,4,3
1529298812834968,-4,2,-2,-7,-8,2,-2,0
1529298812834968,4,1,2,10,1,8,5,-3
1529298812849023,0,-5,-3,-4,-11,9,0,1
1529298812849023,16,0,-4,1,3,7,-2,1
1529298812855035,2,-2,1,3,7,-1,-2,-2
1529298812855035,0,-3,-2,-2,0,0,3,-1
1529298812870317,-5,-2,-3,-7,-1,-2,-9,-2
1529298812870317,3,2,3,2,12,4,10,8
1529298812878439,-18,-5,-2,-3,-2,-1,-9,-15
1529298812878439,11,-3,-1,-2,0,3,2,0
1529298812893254,15,7,1,-2,-6,-3,3,1
1529298812893254,12,1,0,5,-4,-4,1,3
1529298812894259,5,-3,-7,-3,-7,-4,2,2
1529298812894259,-13,-4,-1,1,-2,2,2,-2
1529298812909212,-4,4,2,1,-11,1,7,4
1529298812909212,-2,1,-1,0,-15,1,-2,-3
1529298812915766,5,-1,-5,-4,-6,-3,2,3
1529298812915766,-9,-4,-2,-3,-1,-4,-4,-4
1529298812930740,1,0,0,2,4,1,6,5
1529298812930740,-6,0,2,1,-1,-6,4,-2
1529298812937756,-1,2,1,9,6,-2,-2,2
1529298812937756,0,1,0,-14,3,-5,-9,-3
1529298812953487,-2,1,1,3,2,4,0,0
1529298812953487,-4,-5,-4,-4,0,4,-3,-10
1529298812954487,6,4,4,1,-3,2,-6,1
1529298812954487,-5,0,0,0,-1,-3,-2,-2
1529298812969410,-3,0,-3,-3,-2,-2,6,2
1529298812969410,-4,-2,-3,-2,-4,-6,-9,-4
1529298812975395,-1,-3,-5,0,-5,-3,5,0
1529298812975395,2,1,0,1,1,1,0,-1
1529298812990371,-2,-1,-3,-3,-2,3,-2,-1
1529298812990371,-3,-3,-1,7,3,3,0,-1
1529298812997337,3,-2,-4,-4,-5,-1,-1,0
1529298812997337,-1,-1,-1,4,-8,-1,4,1
1529298813013681,-2,1,-1,6,-7,-7,-5,-1
1529298813013681,0,-2,1,1,6,-5,-3,1
1529298813014849,1,0,0,-2,3,2,1,1
1529298813014849,0,-1,-3,-2,1,-5,-3,0
1529298813029637,1,0,-1,1,-8,-4,0,-3
1529298813029637,-1,2,0,-1,-12,-3,-2,-2
1529298813035890,1,1,1,-3,-15,-5,0,4
1529298813035890,-1,1,0,3,-4,1,3,1
1529298813050841,-1,-1,0,-1,-1,-1,-4,-2
1529298813050841,-5,-1,-3,1,12,-9,0,-1
1529298813057825,-1,-5,-1,-1,11,-2,0,-1
1529298813057825,-1,1,-2,4,-8,0,0,1
1529298813072523,0,0,0,1,-2,-5,0,0
1529298813072523,-2,-2,1,2,-26,-6,-2,1
1529298813080505,-9,0,1,0,-1,-9,-1,0
1529298813080505,0,-1,-1,-3,8,-6,0,0
1529298813088773,5,1,1,-8,6,3,-1,-1
1529298813088773,7,0,-2,-7,12,12,-2,2
1529298813095050,3,1,-2,-3,15,6,0,0
1529298813095050,-2,-1,1,0,17,5,1,0
1529298813110257,-4,-2,-4,-4,-3,9,-3,-1
1529298813110257,2,-2,0,-3,-19,4,-2,-2
1529298813118590,-1,-1,-2,-1,-2,0,0,0
1529298813118590,-3,-1,-1,1,-5,0,-1,-1
1529298813133449,-4,-1,-1,-3,6,-6,0,-2
1529298813133449,-1,1,-4,-1,-1,-8,-3,-2
1529298813140223,3,-2,-1,-3,-4,-6,1,0
1529298813140223,3,1,2,0,21,1,0,-1
1529298813149194,0,-2,-3,1,10,-4,0,-1
1529298813149194,-1,-3,-4,0,-3,-15,-2,0
1529298813155363,6,0,-2,2,-8,-13,0,-3
1529298813155363,8,-1,-3,2,-18,-3,-1,-1
1529298813170443,0,0,-2,-3,-20,16,-3,-2
1529298813170443,-4,-1,-5,-2,-8,12,0,-2
1529298813177458,-5,-2,-2,-3,-3,4,-1,0
1529298813177458,-2,-3,-1,0,-1,-1,1,2
1529298813193463,-3,-3,-1,3,0,-3,0,1
1529298813193463,-2,0,-3,-1,-6,1,1,0
1529298813200660,-2,-2,-1,-1,-11,3,0,-1
1529298813200660,-3,-1,-1,1,-5,-1,0,-1
1529298813209170,-2,-1,0,1,-4,-6,2,1
1529298813209170,-1,0,-1,0,3,0,0,-1
1529298813215954,-1,-2,2,1,3,3,2,0
1529298813215954,-3,1,-1,0,-1,1,-1,2
1529298813229883,-2,0,-1,0,1,-4,-1,-1
1529298813229883,2,4,0,3,4,1,0,-1
1529298813238263,1,-2,-3,-1,-1,3,-1,-2
1529298813238263,-1,-1,2,0,-5,-1,-2,-2
1529298813253220,3,2,0,-1,1,-3,-1,0
1529298813253220,-1,-1,0,1,0,-1,0,-2
1529298813261083,1,-2,-3,0,1,-1,-2,1
1529298813261083,-1,1,-1,-3,1,-2,-1,-2
1529298813275779,-1,-2,-1,-2,1,-3,-1,-1
1529298813275779,-3,-2,-3,-1,2,-3,-1,0
1529298813276758,0,2,1,-2,-6,-1,-1,-2
1529298813276758,1,-2,-2,-1,-5,-3,-1,-4
1529298813290723,1,-1,-2,-1,-7,2,-1,0
1529298813290723,4,-4,2,-1,-4,1,0,0
1529298813297740,-1,-3,0,1,-5,2,-2,-1
1529298813297740,1,0,0,-1,-3,1,0,1
1529298813313120,-1,-1,-1,1,0,-1,0,-1
1529298813313120,0,1,-2,-4,1,3,1,0
1529298813320549,0,-1,1,3,-1,1,0,-2
1529298813320549,0,2,-2,-1,2,1,-2,0
1529298813336324,-1,-1,0,-2,-1,0,-2,0
1529298813336324,-2,-1,1,1,3,1,1,-3
1529298813337336,-3,0,0,-1,0,1,-2,0
1529298813337336,-2,-1,0,0,-1,-1,0,2
1529298813350094,1,-1,-2,-3,-4,-4,-1,-1
1529298813350094,-1,-2,1,-1,0,-5,-3,-1
1529298813358578,-1,0,-2,-1,-2,0,0,-1
1529298813358578,1,-2,-2,0,-3,1,0,-2
1529298813372275,0,-1,-1,-2,-2,1,-1,0
1529298813372275,-1,-1,-1,1,0,1,2,1
1529298813380490,1,0,-1,-1,0,-1,-1,1
1529298813380490,0,-3,-3,-2,-4,-3,-1,-1
1529298813396487,-1,-2,-1,0,-1,1,-1,0
1529298813396487,-1,0,1,-1,-1,-2,-4,-1
1529298813396487,-1,0,0,0,1,0,0,-1
1529298813396487,-1,-1,-2,-2,-2,-1,0,-1
1529298813410427,-1,2,-2,0,1,-2,1,-3
1529298813410427,-1,-1,-1,0,-1,-2,1,1
1529298813417409,0,-1,0,-2,-4,-4,0,0
1529298813417409,-1,-3,2,-1,-3,1,-2,1
1529298813432409,-2,0,-2,-1,2,-1,1,0
1529298813432409,0,1,-1,0,-2,-1,-1,0
1529298813440346,-1,-1,0,0,-2,3,0,-3
1529298813440346,-1,1,1,3,3,2,-1,0
1529298813456303,-1,-2,-1,0,-3,-2,-2,0
1529298813456303,-2,-2,0,-1,0,0,1,0
1529298813456303,-1,1,0,0,-4,0,0,0
1529298813456303,1,0,2,0,0,0,-2,-1
1529298813470265,0,-3,1,0,1,3,-2,-1
1529298813470265,-1,1,-1,-3,-1,3,-2,-1
1529298813477247,-1,-3,-2,-1,1,0,0,0
1529298813477247,0,1,-2,0,-4,-6,-1,-1
1529298813493204,-1,2,1,2,2,-4,-1,0
1529298813493204,-1,-2,-2,1,1,-3,0,0
1529298813500188,-1,0,-1,0,-1,-3,2,-1
1529298813500188,-1,-1,-1,0,-2,-1,0,-1
1529298813516194,1,1,-1,0,-3,1,-3,1
1529298813516194,1,0,-3,-2,-4,1,-2,-1
1529298813517170,0,-2,0,1,2,1,-2,2
1529298813517170,0,-1,-2,-2,-4,-1,-2,-1
1529298813530158,0,-2,-2,1,-1,-2,1,-1
1529298813530158,-1,1,1,-1,0,2,-1,0
1529298813538137,-1,0,-2,0,-4,0,-3,-3
1529298813538137,-1,1,-2,-1,-5,-1,2,-1
1529298813553098,1,-1,1,0,-1,1,-2,1
1529298813553098,1,-2,-3,0,-5,-3,0,-2
1529298813560080,-1,0,-1,-2,-2,-1,-2,1
1529298813560080,-1,-1,-3,1,1,2,-1,1
1529298813576038,-1,0,-1,-3,-2,-2,1,-1
1529298813576038,0,-2,-1,2,1,-3,0,-1
1529298813577036,3,0,-2,-1,-1,1,-1,-2
1529298813577036,-1,-2,-2,0,-1,1,0,-1
1529298813589998,-2,-2,-2,0,-3,-2,1,-1
1529298813589998,0,-1,-1,0,1,1,0,-1
1529298813597977,1,-1,-1,-2,0,-1,0,-1
1529298813597977,0,0,0,0,1,-2,-2,0
1529298813612939,1,0,1,-2,-2,0,0,-1
1529298813612939,-3,-1,-2,-1,-3,-1,-1,0
1529298813619921,0,0,-3,0,-4,0,-2,1
1529298813619921,0,-1,-2,-1,-3,0,0,0
1529298813635877,0,-2,-1,-1,-2,-1,-1,-1
1529298813635877,-1,-1,2,-1,2,1,-2,0
1529298813636821,-1,-2,-1,-1,-3,0,-2,-2
1529298813636821,-1,-1,-1,0,1,1,0,-1
1529298813649843,0,-1,-3,-1,-2,-1,1,0
1529298813649843,1,1,0,-1,-3,0,1,-1
1529298813657822,-1,-1,-2,-1,2,0,0,0
1529298813657822,-2,-2,0,-1,-5,-2,-2,-1
1529298813672753,-1,-1,-1,-1,-3,2,-2,0
1529298813672753,-1,-2,-1,-1,-1,0,-2,0
1529298813680703,1,0,-2,-1,-1,-2,-1,-1
1529298813680703,1,0,-2,-3,-4,1,1,0
1529298813695722,1,-1,-2,0,-2,0,0,-1
1529298813695722,-1,-2,-1,-1,-1,-2,-2,0
1529298813696661,0,1,-1,-2,-5,-4,-2,0
1529298813696661,-2,0,-4,-1,-2,-3,-2,-1
1529298813710660,-1,0,-1,1,-3,-1,-1,0
1529298813710660,0,0,0,1,-1,0,-1,0
1529298813717606,1,-1,0,-1,1,1,-1,0
1529298813717606,0,-2,-1,0,1,0,0,-1
1529298813732819,1,-1,-1,1,-1,-1,-3,-3
1529298813732819,-1,-1,-2,-1,0,0,1,-1
1529298813740815,-1,0,0,0,-2,-3,-1,0
1529298813740815,2,-1,-2,-1,-5,1,0,-1
1529298813755672,-1,1,-2,0,1,-1,-3,-2
1529298813755672,1,0,-1,-2,-3,1,-1,0
1529298813756654,-2,-2,-1,-1,-3,2,-2,-1
1529298813756654,-2,-1,1,-1,1,-2,1,0
1529298813770177,-2,-2,0,1,0,-3,-1,1
1529298813770177,2,-1,-2,1,-1,-1,0,0
1529298813778163,-2,-2,0,1,1,-2,0,-1
1529298813778163,-1,-2,-1,0,-1,-1,-2,-1
1529298813792860,-2,-1,0,-1,0,-1,1,-1
1529298813792860,-1,-1,-1,-4,-2,-2,-1,0
1529298813800879,0,0,-4,0,-3,-2,0,-1
1529298813800879,1,-2,2,1,3,0,0,0
1529298813815799,-2,-1,-1,-1,2,0,0,0
1529298813815799,-2,-1,1,2,-2,-1,-1,-1
1529298813816796,0,0,3,-2,2,0,1,-1
1529298813816796,-1,-1,-1,-1,-1,-1,1,1
1529298813830806,-1,1,-4,0,-3,-1,1,0
1529298813830806,0,-1,0,-1,2,0,-2,-1
1529298813837978,-1,-3,-2,-2,2,-1,-1,0
1529298813837978,0,-1,3,0,1,-1,-1,1
1529298813852938,-2,-1,0,-1,0,-1,-2,-2
1529298813852938,-1,1,-3,2,-3,-1,0,-2
1529298813860917,-2,0,-3,2,1,1,1,0
1529298813860917,-2,1,-3,-1,0,0,1,1
1529298813875900,0,0,1,1,-1,-2,0,-1
1529298813875900,0,-2,-2,-2,0,-3,0,0
1529298813876642,-1,0,0,2,1,-2,-2,-1
1529298813876642,2,0,-3,-2,-3,-2,-2,-1
1529298813890599,-1,1,-1,-2,0,0,-1,-2
1529298813890599,0,2,1,0,-1,-1,0,0
1529298813897606,0,-2,-1,-1,0,-1,0,0
1529298813897606,-3,-2,0,1,0,-2,0,-1
1529298813912777,-2,0,-1,1,5,-2,-1,2
1529298813912777,1,-1,0,-2,1,0,1,0
1529298813920555,1,0,-2,-1,-1,-1,-1,-2
