timestamp,emg1,emg2,emg3,emg4,emg5,emg6,emg7,emg8
1528875902706689,0,0,-2,-2,-2,0,-1,-1
1528875902706689,-2,0,-1,-2,-3,0,-1,-1
1528875902712672,-1,-1,0,-1,-1,-1,-1,0
1528875902712672,-1,-1,1,-1,-2,-3,0,-2
1528875902721650,0,-1,0,-1,-1,0,-1,-2
1528875902721650,0,-2,-1,-1,0,-1,-2,-1
1528875902723644,-1,0,-1,-1,1,-1,-1,0
1528875902723644,-1,-1,-1,-1,-1,0,-1,-2
1528875902728629,-2,-2,0,0,-1,-1,0,-1
1528875902728629,-2,0,-1,-1,-1,-1,-1,-1
1528875902736607,-1,-2,-2,0,0,-2,-1,-2
1528875902736607,0,1,-1,-1,-1,-2,-1,-1
1528875902750570,-1,-1,-1,0,0,-1,-2,-1
1528875902750570,-1,-1,-3,-1,-3,1,-3,-2
1528875902758550,2,-2,0,-1,-1,0,-2,-3
1528875902758550,-1,-3,-2,-1,-1,-2,0,-1
1528875902765531,-1,-2,0,-2,0,0,-2,-1
1528875902765531,0,1,2,0,1,-2,-14,-6
1528875902779494,-3,0,-1,-1,-1,-1,2,-6
1528875902779494,0,0,-2,-2,0,3,15,11
1528875902790464,-1,-2,0,-1,-1,-2,3,-3
1528875902790464,-4,-2,-3,-1,-3,-4,-37,-19
1528875902803429,2,0,-3,-2,-3,-3,11,13
1528875902803429,1,-1,0,1,-1,0,2,0
1528875902806421,-3,-2,-2,0,0,0,6,3
1528875902806421,-2,-1,0,0,2,-1,0,-11
1528875902824375,-3,-2,-3,-1,-3,-1,-10,-9
1528875902824375,-3,-3,-2,-3,-4,0,-9,-1
1528875902865264,1,0,2,0,1,1,4,1
1528875902865264,-2,-1,-1,-2,-2,0,0,-2
1528875902866261,-2,-2,-1,-4,-5,-4,-1,0
1528875902866261,-1,-1,-2,-2,-3,-3,-1,-5
1528875902867258,-2,-1,-1,0,2,1,-1,-1
1528875902867258,-1,0,-1,-2,-4,-3,-1,-2
1528875902870251,0,0,-1,-1,-5,-4,0,-1
1528875902870251,-2,-1,-3,-4,2,5,-1,1
1528875902872245,-1,-1,0,0,-4,-9,-3,1
1528875902872245,0,1,1,3,2,-5,-3,-1
1528875902885212,1,1,0,1,-1,4,0,-1
1528875902885212,-1,-5,-4,-2,4,1,-2,-2
1528875902892193,0,-2,-2,-1,-4,1,-3,-4
1528875902892193,-3,-3,-4,-4,3,0,-3,-5
1528875902899174,1,0,3,4,-16,-16,-2,11
1528875902899174,-1,-1,-2,-2,-4,-2,-3,-3
1528875902922122,3,2,0,-2,17,26,5,1
1528875902922122,-2,0,-2,2,23,10,6,0
1528875902929130,-1,-1,-2,-3,0,5,0,-17
1528875902929130,-1,-3,-2,0,-12,-17,3,19
1528875902938070,-6,-2,-4,-5,-19,-20,-16,-8
1528875902938070,1,2,3,4,16,16,11,6
1528875902953047,-1,1,1,3,1,6,6,-5
1528875902953047,4,1,-1,-1,-25,-3,-3,11
1528875902955026,-3,-7,-5,-6,8,-4,-10,-7
1528875902955026,0,1,-2,-4,-16,-8,-6,-5
1528875902975969,-1,0,-2,0,8,3,4,-2
1528875902975969,-3,2,2,-2,8,17,-3,-6
1528875902976980,0,0,-1,4,-11,-30,32,16
1528875902976980,-2,-5,-2,-1,3,-3,-31,-14
1528875902989931,-1,0,1,-2,-4,2,6,9
1528875902989931,0,-1,-5,-6,-2,-4,5,-7
1528875902997910,2,3,3,4,-22,13,-12,5
1528875902997910,-5,-4,-5,-3,16,-5,6,-12
1528875903012895,-1,1,6,-4,-17,-19,-42,-9
1528875903012895,-1,-2,3,3,6,18,24,2
1528875903014865,-1,-4,-9,-3,3,-7,-1,-5
1528875903014865,1,4,3,-4,-28,-8,-26,8
1528875903035824,-4,-6,-11,-2,24,7,21,-3
1528875903035824,-2,0,1,5,-7,-21,-23,-6
1528875903036832,-2,0,1,-6,-16,3,-26,-11
1528875903036832,1,-3,1,6,16,9,41,13
1528875903048775,-1,0,-1,-4,-5,0,3,7
1528875903048775,-1,-3,-1,0,0,1,-4,-7
1528875903073706,-1,1,4,4,-16,1,13,5
1528875903073706,-2,-2,-2,1,18,0,-19,-5
1528875903074704,-1,-4,-5,-5,6,2,4,-6
1528875903074704,-3,-5,-5,0,5,-12,0,-5
1528875903076699,0,2,1,-4,-11,-12,-14,-4
1528875903076699,1,0,3,4,-21,1,14,5
1528875903095648,-1,-1,1,3,5,-3,-4,3
1528875903095648,2,7,7,1,21,22,9,4
1528875903097643,-1,-3,-7,-1,15,4,-15,-2
1528875903097643,-1,-3,-5,-10,-26,-4,48,5
1528875903109613,-2,-1,-1,5,11,3,-14,-5
1528875903109613,0,1,2,-1,-17,-16,-27,-7
1528875903118586,-2,2,4,-5,16,4,23,5
1528875903118586,2,-1,-2,5,-9,-9,1,5
1528875903133548,-2,0,2,-2,-10,-9,-6,-2
1528875903133548,-2,-1,0,5,-16,-3,4,0
1528875903134545,0,-1,-10,-15,31,16,1,-4
1528875903134545,-1,-2,-8,-12,-27,-4,-11,0
1528875903155490,0,1,7,4,23,11,5,-1
1528875903155490,0,-1,0,-8,-34,-10,-6,0
1528875903157484,-1,-2,3,11,6,-8,-3,0
1528875903157484,-1,4,3,-9,-8,-7,-13,-3
1528875903169451,-4,-8,-5,9,0,-7,-3,-3
1528875903169451,1,1,-12,-14,-5,-7,5,0
1528875903178429,0,0,11,1,9,8,4,0
1528875903178429,-3,-8,-30,-13,-1,5,-6,-3
1528875903193387,0,5,19,6,-8,-1,-1,0
1528875903193387,-5,-7,-3,6,7,-2,-1,-3
1528875903194384,-5,-4,-7,-17,-10,-10,-2,-5
1528875903194384,0,1,10,-1,7,-4,-17,-3
1528875903215328,1,-1,-11,-19,-1,-5,7,3
1528875903215328,-2,-7,-10,-16,-3,4,2,3
1528875903217323,-3,-2,-17,-3,-5,3,-5,1
1528875903217323,-4,-7,15,17,-10,-9,-5,-4
1528875903229291,1,4,10,12,-2,1,-12,-1
1528875903229291,2,5,7,-3,15,-2,-12,-4
1528875903238267,-2,-8,6,32,13,10,19,1
1528875903238267,3,1,-28,-33,-1,4,5,4
1528875903253258,-3,-5,-7,-8,-4,-1,1,0
1528875903253258,-2,0,2,16,-3,-5,1,-3
1528875903255232,0,5,6,-8,12,4,-10,-4
1528875903255232,1,-4,0,21,7,9,12,-1
1528875903275180,0,-4,-12,-7,-5,2,6,3
1528875903275180,1,0,-12,-12,-7,8,13,3
1528875903277163,0,4,19,12,-5,-9,-11,-3
1528875903277163,-4,1,10,13,-1,-6,1,-4
1528875903289142,-4,-1,-2,-9,-10,-9,6,-2
1528875903289142,-5,-5,-15,-17,-19,-13,-23,-6
1528875903298144,0,-4,11,6,-10,0,13,3
1528875903298144,-6,-12,-32,-13,17,13,25,0
1528875903313105,0,1,7,10,5,-3,-3,-4
1528875903313105,0,4,12,5,9,-2,-14,-5
1528875903315104,-3,-5,-12,-22,-32,-10,20,3
1528875903315104,2,7,22,14,14,3,-36,-8
1528875903342988,5,2,-8,-13,-4,2,6,11
1528875903342988,-4,-6,-4,8,13,-2,-10,-11
1528875903344983,-2,-5,-15,-1,4,-11,-3,-7
1528875903344983,-1,4,10,0,0,-8,1,-3
1528875903348971,0,9,20,-13,-29,0,2,3
1528875903348971,-1,-11,-41,-5,5,10,-11,2
1528875903357973,2,7,3,15,1,-5,-9,-1
1528875903357973,3,3,7,-14,-4,-3,-9,2
1528875903372951,-3,-2,-3,19,18,0,-7,-4
1528875903372951,1,4,13,-12,-7,2,13,6
1528875903374901,1,2,11,30,12,18,20,3
1528875903374901,0,2,-7,-11,6,1,-4,-1
1528875903395846,-4,-5,-17,-6,-9,-8,-4,-6
1528875903395846,3,5,31,16,9,-3,-10,0
1528875903396889,-3,-12,-49,-28,1,-3,-12,0
1528875903396889,-3,6,27,18,-20,-14,-24,-7
1528875903408811,0,-5,-27,-25,-8,9,4,2
1528875903408811,-1,3,4,20,18,6,19,0
1528875903418784,0,1,10,-20,4,0,-5,1
1528875903418784,-5,-9,-11,-2,-17,-13,-15,-3
1528875903432179,1,2,13,25,9,-1,-1,-2
1528875903432179,0,7,9,-3,-5,-6,-50,-3
1528875903439160,3,3,4,-13,-12,12,53,5
1528875903439160,2,-3,-24,-12,13,7,19,15
1528875903456120,-2,1,20,30,-3,1,4,-9
1528875903456120,-1,-2,8,-14,12,-2,-32,-4
1528875903457114,-2,-5,0,9,-1,-2,6,-3
1528875903457114,2,8,24,9,-1,1,15,2
1528875903469081,-4,-6,-38,-29,-15,3,-7,-1
1528875903469081,1,4,-1,13,9,6,23,4
1528875903478105,-1,6,12,-9,-11,-9,-30,-10
1528875903478105,-3,-9,-12,-38,2,-5,0,-3
1528875903493020,-3,2,21,67,-1,-12,-23,-2
1528875903493020,-4,-6,1,-11,-4,-5,3,-12
1528875903499003,-2,-2,-19,4,-7,1,3,6
1528875903499003,2,8,25,25,15,9,5,-1
1528875903515965,-4,-4,-9,-37,-1,-12,-18,0
1528875903515965,-3,-1,-3,5,-13,1,19,3
1528875903516954,2,1,5,-3,1,-2,-37,-5
1528875903516954,-2,-1,2,9,4,4,6,-4
1528875903528923,-2,-8,-11,-30,0,0,33,4
1528875903528923,0,0,-2,20,8,3,8,1
1528875903537899,-4,-8,-4,-6,-2,-11,-44,-3
1528875903537899,-5,-7,-8,13,-10,-2,27,-6
1528875903552858,3,3,0,-14,7,12,18,7
1528875903552858,-1,5,-4,-2,2,-2,3,-2
1528875903566822,1,-4,18,-17,1,0,0,-3
1528875903566822,-1,0,11,29,-2,-3,-17,1
1528875903582780,-3,-4,-41,-22,0,-1,-3,-6
1528875903582780,-1,-2,11,1,-5,-3,19,5
1528875903584774,-4,-2,-12,10,-4,-6,-17,-6
1528875903584774,-1,-3,-17,-34,-4,-9,-24,-5
1528875903589760,2,3,5,-15,-11,13,31,5
1528875903589760,-2,-5,28,25,3,2,0,-2
1528875903598748,2,1,-32,-18,7,-3,12,5
1528875903598748,-1,-2,5,-6,-2,1,-6,-1
1528875903612698,-1,0,3,-15,-2,-5,-5,-2
1528875903612698,1,-1,1,8,-3,1,-3,4
1528875903619680,-1,3,17,9,2,1,10,0
1528875903619680,-1,0,2,3,-11,0,-3,-1
1528875903635637,1,1,15,20,6,-2,-18,-3
1528875903635637,-3,-3,-16,-34,-4,-3,-1,-5
1528875903637632,-2,0,17,20,-3,-5,-1,-2
1528875903637632,0,1,-41,-9,5,6,12,2
1528875903658576,-4,-3,26,19,0,-1,-4,2
1528875903658576,0,0,-3,5,5,2,7,1
1528875903659578,-1,-2,-4,6,1,3,0,2
1528875903659578,1,1,-2,-19,-2,-6,-1,-3
1528875903672538,3,1,6,44,10,1,0,-1
1528875903672538,1,-2,-25,-27,-1,1,1,-1
1528875903686501,-3,-2,1,-1,-14,-6,-7,-6
1528875903686501,2,-2,2,-9,-2,2,5,6
1528875903695477,1,-2,6,9,4,-3,-6,-2
1528875903695477,1,7,6,39,-1,-5,0,-1
1528875903697471,-1,-4,-27,-51,-10,-2,1,-1
1528875903697471,1,-3,19,15,5,0,-2,1
1528875903718471,-8,-5,-2,-9,2,-3,-14,-13
1528875903718471,-2,-4,-6,-20,-3,2,3,0
1528875903719429,-4,-4,-3,-11,1,-2,2,-4
1528875903719429,-3,-2,0,40,-2,-1,-8,-4
1528875903731435,0,-2,-30,-48,-11,-3,-14,0
1528875903731435,-3,-4,16,26,-1,-4,16,-3
1528875903739414,1,1,-5,-10,5,3,-5,2
1528875903739414,-2,5,36,28,-4,-6,-11,-6
1528875903756328,-1,-11,-23,-39,-3,2,10,3
1528875903756328,-3,-9,-30,-34,-8,-2,-10,-2
1528875903757325,-1,1,-4,51,7,4,15,2
1528875903757325,-2,1,-1,-29,-16,-5,-1,-2
1528875903778278,3,11,37,51,9,1,-2,3
1528875903778278,-2,-3,-33,-29,0,3,1,-1
1528875903778278,1,1,32,-6,-3,1,1,-1
1528875903778278,-7,-1,4,-23,-4,-7,-6,-5
1528875903800198,-3,-6,-27,-33,-16,-6,-5,-3
1528875903800198,1,1,14,14,6,-1,3,4
1528875903801473,3,12,3,5,1,-1,-21,-4
1528875903801473,-2,-9,-6,-34,1,5,31,3
1528875903815415,0,-6,-18,5,-17,-14,-14,-4
1528875903815415,-4,-6,-12,-21,4,4,-9,-4
1528875903816154,0,-2,-12,1,1,1,11,6
1528875903816154,-1,-1,-19,6,24,10,-5,-2
1528875903838101,1,4,29,-14,-5,-1,-3,-1
1528875903838101,1,10,-14,1,-5,-7,-8,-1
1528875903838101,0,-3,3,20,-1,0,20,5
1528875903838101,2,9,9,43,0,0,-5,-1
1528875903860295,0,6,5,27,5,8,9,-1
1528875903860295,-15,-24,-24,-76,-18,-15,-18,-18
1528875903861290,-2,7,-5,-20,-4,-5,-12,-8
1528875903861290,-2,-9,2,63,4,-2,9,3
1528875903882976,1,1,-8,-12,-3,0,-20,-4
1528875903882976,4,9,42,75,17,7,28,6
1528875903882976,-5,-13,-56,-45,-22,-4,7,-5
1528875903882976,-2,8,20,-29,-15,-10,-15,-3
1528875903898192,0,2,30,23,7,2,-3,-5
1528875903898192,4,7,-3,17,3,0,0,9
1528875903898192,-8,-21,-36,-10,1,-4,-22,-12
1528875903898192,2,4,19,30,4,2,-16,-4
1528875903920154,-7,-19,-51,-12,-7,-1,31,-4
1528875903920154,6,17,83,83,7,0,-5,1
1528875903921385,-10,-20,-73,-70,-23,-4,-2,-5
1528875903921385,1,-5,-12,12,5,0,-21,-2
1528875903943180,-2,9,-21,20,6,-4,-8,2
1528875903943180,2,-10,-1,14,-1,-1,15,7
1528875903943180,-1,1,31,22,3,-1,-11,-3
1528875903943180,-1,8,0,-12,-12,-2,4,-2
1528875903958137,-4,-13,-21,-68,11,7,15,6
1528875903958137,-1,-5,11,25,0,3,11,5
1528875903958137,-4,7,23,-10,-4,-14,-22,-6
1528875903958137,-1,-6,-13,-24,-10,-5,-9,-2
1528875903980726,-1,4,-15,-31,-13,-6,-4,-1
1528875903980726,-7,2,-6,6,-6,-11,-34,-13
1528875903980726,8,8,13,23,4,4,-11,8
1528875903980726,-6,-17,14,31,-3,-19,30,-2
1528875904003024,-1,8,-2,-54,-26,-6,-11,-6
1528875904003024,0,-5,8,49,5,4,-3,-8
1528875904004070,0,5,-11,1,9,-5,-84,-9
1528875904004070,0,-2,-2,-28,-8,2,98,18
1528875904018181,-2,-2,15,29,4,-4,-7,-1
1528875904018181,0,-1,-24,-47,-11,2,2,0
1528875904019034,3,-2,99,53,17,5,11,2
1528875904019034,0,-6,-50,-22,0,5,-34,-6
1528875904040476,1,6,40,59,5,-1,-6,-3
1528875904040476,3,1,-30,-75,5,14,12,7
1528875904041535,0,0,-2,41,-7,-4,20,0
1528875904041535,0,-1,-8,-68,-2,3,-19,-2
1528875904062426,1,1,30,55,20,8,11,7
1528875904062426,4,5,6,-1,-5,-7,-19,-1
1528875904070149,6,5,-21,-36,-13,-9,-6,5
1528875904070149,-6,-4,19,30,14,7,-6,-7
1528875904079127,-2,-5,-10,7,4,-2,25,1
1528875904079127,-4,-2,5,25,6,5,-5,-5
1528875904093351,-2,5,32,-33,-3,8,19,-2
1528875904093351,-2,-4,-40,14,-5,-7,-7,-2
1528875904100107,1,-2,3,-13,8,-2,-32,-7
1528875904100107,0,-2,5,-31,-2,3,31,8
1528875904101149,0,-1,0,5,-2,-1,18,-2
1528875904101149,0,-6,-22,57,-4,-4,-18,0
1528875904124305,-6,-7,16,-25,20,16,13,-2
1528875904124305,-2,2,19,-26,-7,-7,-13,-3
1528875904125319,-1,3,1,42,4,4,5,0
1528875904125319,5,3,11,-27,-11,6,11,3
1528875904138009,-1,-11,-62,-2,1,-4,-5,-5
1528875904138009,-1,14,45,-9,-1,-6,-16,-6
1528875904138009,-4,-10,13,3,7,9,25,2
1528875904138009,-2,-2,-13,-13,-3,-5,-14,0
1528875904160215,-1,5,12,28,-1,8,12,1
1528875904160215,-1,-4,-25,-47,-11,-5,-32,-8
1528875904161274,0,4,2,30,0,-2,47,13
1528875904161274,-6,-16,-4,-28,1,-5,-10,-8
1528875904182136,1,5,14,22,-12,-8,-9,-4
1528875904182136,-6,-8,-35,-2,-7,0,6,-4
1528875904183132,-5,0,16,-21,7,-3,-3,-4
1528875904183132,4,6,2,24,-7,1,-4,6
1528875904198239,3,4,6,-27,4,5,-1,3
1528875904198239,1,-7,-18,-4,-7,-6,15,0
1528875904198239,-1,-4,-7,22,-5,2,-7,-2
1528875904198239,-3,1,-5,-35,5,-4,-9,-4
1528875904220229,-2,-8,-16,4,-6,-7,-8,-3
1528875904220229,-3,1,2,-3,-5,-3,-7,-1
1528875904221031,-3,-6,-12,14,5,-2,-3,-2
1528875904221031,1,4,18,35,5,8,10,0
1528875904243190,-1,2,1,-5,-13,-5,-4,1
1528875904243190,0,-1,3,34,16,-1,-1,-1
1528875904243190,-3,-5,-29,-34,-6,3,4,0
1528875904243190,1,2,5,22,-6,-7,5,2
1528875904258029,0,-3,11,20,-3,-3,-31,-9
1528875904258029,2,0,-5,-31,1,8,-19,-7
1528875904258981,-4,-3,-7,4,-4,-10,32,6
1528875904258981,2,2,11,1,7,8,-2,0
1528875904280263,0,1,6,-1,1,-2,8,2
1528875904280263,-3,-4,9,25,-1,-4,0,1
1528875904281427,-1,-2,-10,0,2,1,-18,-7
1528875904281427,-1,3,-5,-2,-3,-3,-7,-3
1528875904310497,0,-2,8,-31,-8,-4,1,0
1528875904310497,-2,-6,-11,46,3,0,5,-1
1528875904311510,1,-1,-8,-20,-1,-1,-5,2
1528875904311510,0,5,0,1,1,1,3,1
1528875904317720,-2,-5,-5,2,-5,-4,-5,-4
1528875904317720,-4,-13,-4,-59,-6,0,11,1
1528875904318475,1,3,1,25,2,3,-1,-1
1528875904318475,1,4,27,8,-2,-1,-11,-3
1528875904347703,-1,-7,-28,-8,-9,-4,-2,-1
1528875904347703,-2,1,-3,3,3,0,7,1
1528875904348698,1,6,5,-9,-4,0,-1,0
1528875904348698,-3,-14,3,16,4,0,-18,-5
1528875904363007,-2,-2,-9,-26,-1,-2,1,6
1528875904363007,4,5,8,54,6,0,7,8
1528875904363658,-1,5,5,-14,-2,-3,-5,-8
1528875904363658,1,8,-9,-18,-4,-4,-5,-3
1528875904377623,1,4,-6,-20,-1,1,5,-2
1528875904377623,-7,-13,-8,1,-9,-7,-5,-2
1528875904378621,0,2,-2,0,-1,0,7,-2
1528875904378621,0,1,2,8,-2,-5,-1,0
1528875904399633,-3,-4,17,11,4,4,3,0
1528875904399633,-3,1,-34,-29,-7,-4,-7,-7
1528875904400631,-3,-13,10,9,3,0,-8,0
1528875904400631,-2,-4,-3,-14,0,1,7,1
1528875904422878,-2,1,2,10,1,0,-2,-1
1528875904422878,0,4,-14,-17,-6,1,-2,0
1528875904422878,1,1,4,10,2,0,-4,1
1528875904422878,-2,-1,-8,-22,-3,-1,-1,-1
1528875904437879,0,3,3,8,-1,-3,-1,-3
1528875904437879,0,-2,1,-5,2,-2,5,-1
1528875904437879,0,-1,5,15,5,-1,-2,2
1528875904437879,-3,-5,-8,-39,-10,-2,-3,-2
1528875904460206,-1,2,-5,2,-3,-3,0,-1
1528875904460206,-1,1,4,4,1,0,4,0
1528875904461072,-1,-5,2,-2,-2,-2,-6,0
1528875904461072,-1,0,-7,-4,0,-1,-1,-1
1528875904484217,-1,-3,4,6,-3,-1,0,-2
1528875904484217,0,-2,4,7,-1,-1,0,0
1528875904485025,-3,1,-5,-14,-1,0,-5,-2
1528875904485025,0,-3,-2,-3,1,-3,-2,-1
1528875904497291,0,1,2,-3,-2,0,1,-1
1528875904497291,0,1,2,0,-2,-2,-1,-2
1528875904498290,0,2,-5,0,-2,-4,-1,-2
1528875904498290,-1,0,-2,-10,4,2,0,-1
1528875904520453,0,-2,6,-3,-3,0,0,-2
1528875904520453,-2,1,3,2,-2,-2,-4,-3
1528875904521230,-1,-1,1,-3,-1,1,-1,0
1528875904521230,0,1,-1,1,-3,-2,0,-1
1528875904544460,1,-2,-3,0,1,-1,-1,-1
1528875904544460,2,1,1,3,1,2,2,0
1528875904545458,-1,-4,-13,-21,-5,-3,-4,-2
1528875904545458,-3,-2,-7,2,1,0,-1,-1
1528875904557456,-1,3,4,-1,-3,-4,-1,-1
1528875904557456,-1,2,-1,6,-2,-2,0,-2
1528875904565420,0,3,1,-5,1,3,0,0
1528875904565420,-2,-3,3,-1,0,-2,-2,-1
1528875904580369,-1,-1,-4,8,-7,-1,0,0
1528875904580369,0,0,-1,-11,1,0,1,0
1528875904580369,-1,0,-5,5,0,-2,-2,-2
1528875904580369,0,1,3,-7,-6,-3,-1,-1
1528875904603414,0,3,6,2,2,2,2,0
1528875904603414,-2,-1,-5,1,0,0,-2,0
1528875904604425,1,-3,-4,4,3,0,1,-1
1528875904604425,0,3,22,7,4,-1,-1,-2
1528875904617639,0,-6,-4,1,0,-2,-2,0
1528875904617639,-1,-2,-3,-3,-1,1,0,-2
1528875904618375,-1,3,0,-7,-6,-3,-1,2
1528875904618375,0,-4,-3,9,5,5,4,0
1528875904640551,-3,-1,-6,-17,-4,-4,-6,-4
1528875904640551,-2,-9,-1,0,-3,-3,-1,-1
1528875904641492,-1,1,14,9,-4,-4,-3,-1
1528875904641492,-1,-4,-17,-4,1,5,0,-2
1528875904663576,-1,2,18,8,3,0,3,1
1528875904663576,0,-4,-8,-2,1,-3,-2,0
1528875904664253,-3,-9,-3,2,-4,-1,0,0
1528875904664253,-1,-3,-1,-2,-2,-1,0,-1
1528875904678241,-1,0,-14,-1,1,-1,-2,0
1528875904678241,-1,-1,-1,-15,0,-1,-3,-1
1528875904678241,0,2,4,3,-1,-2,0,0
1528875904678241,-1,0,-4,-8,-5,-4,-1,0
1528875904699468,-1,-4,-5,2,5,6,1,0
1528875904699468,-2,0,7,-3,-3,-3,-1,0
1528875904701462,-2,-3,-5,-4,-2,-2,-4,-2
1528875904701462,-2,-1,-2,1,-1,-2,-1,-2
1528875904731526,-1,2,6,5,-2,-3,-1,-1
1528875904731526,-2,0,-3,-4,-2,-1,2,-3
1528875904731526,-2,-1,-9,-4,-3,-1,-1,-2
1528875904731526,1,1,-2,-3,-5,-2,-3,-1
1528875904737640,-1,3,-3,0,4,5,2,0
1528875904737640,-1,-5,-2,2,3,3,-1,-1
1528875904745666,-1,-2,4,3,-1,-1,-3,-2
1528875904745666,-1,-4,3,-3,-3,-4,-1,0
1528875904760477,-1,-2,0,-2,-3,-4,-2,0
1528875904760477,-1,1,-3,0,0,3,0,0
1528875904761505,1,2,-7,-2,0,-3,-3,-2
1528875904761505,2,-2,21,5,5,0,0,-1
1528875904783245,-1,4,-8,-5,1,-2,-1,-2
1528875904783245,0,0,8,0,-4,-1,0,0
1528875904784241,-3,-3,-4,-6,-5,-4,-3,-4
1528875904784241,-2,0,-11,-4,0,0,-2,-1
1528875904797206,2,8,11,2,5,-1,-2,1
1528875904797206,-2,0,-2,-2,-3,3,3,1
1528875904805185,0,-1,5,2,-1,3,1,-1
1528875904805185,-3,-3,-8,-5,2,-4,-4,-1
1528875904820152,-2,-5,-2,4,0,-5,-2,0
1528875904820152,-1,-3,-8,-11,-4,-4,-3,-2
1528875904821142,-2,-2,6,5,0,2,0,-2
1528875904821142,0,-1,-11,-6,-2,1,-1,-1
1528875904843083,-1,-5,-5,-1,-5,-1,-2,-3
1528875904843083,0,0,-3,2,0,-2,-3,1
1528875904844080,0,-1,-3,-7,-3,-4,-2,0
1528875904844080,-2,0,4,-1,-4,0,-1,-1
1528875904866021,-1,-4,-2,-1,-2,-3,-1,-2
1528875904866021,0,-1,-1,3,1,1,1,0
1528875904866021,0,0,2,2,3,0,0,1
1528875904866021,-2,-1,-4,-1,-3,-2,-1,-1
1528875904880036,-3,-6,-7,-6,-4,-2,-2,0
1528875904880036,-1,-1,0,0,1,-1,-2,-1
1528875904880982,-2,0,-2,3,1,1,-1,-1
1528875904880982,-1,-1,2,1,-1,0,0,-1
1528875904902959,-3,-3,-2,-1,-3,0,-2,-3
1528875904902959,0,0,2,-2,0,-3,0,-1
1528875904903921,0,-1,-1,2,1,-3,4,3
1528875904903921,-3,-4,-9,-11,-7,-3,-16,-8
1528875904916936,1,3,2,0,-1,-1,1,-3
1528875904916936,0,2,2,3,-2,0,2,0
1528875904932844,5,-6,-6,-6,-3,1,0,1
1528875904932844,-1,-1,-1,0,-2,0,3,1
1528875904939883,2,-4,-2,3,3,-1,-20,-2
1528875904939883,-11,-1,-3,-7,-6,-3,13,-7
1528875904940823,16,8,5,3,2,4,2,11
1528875904940823,-1,1,-1,1,0,-3,-2,0
1528875904970797,7,-1,-3,-2,-3,1,1,0
1528875904970797,-8,-6,-2,2,0,-3,-6,-1
1528875904971740,-7,-3,-1,-1,-1,-2,-6,-6
1528875904971740,2,-2,-4,-1,-2,-1,3,0
1528875904976727,-9,-3,1,2,0,-1,2,0
1528875904976727,2,0,-2,0,-1,-1,-4,-1
1528875904984757,-8,-2,-3,-3,-1,0,-1,-6
1528875904984757,2,1,2,2,2,-1,1,2
1528875905008641,-4,-4,-2,-2,-3,-1,9,0
1528875905008641,1,-1,-4,-3,0,1,-3,1
1528875905008641,4,-1,6,4,1,-3,-11,-2
1528875905008641,-5,-1,1,3,-1,-2,4,-2
1528875905023638,-1,-3,-3,-2,-2,-1,2,-1
1528875905023638,3,-1,-2,-2,-3,-1,1,-2
1528875905023638,-6,-2,-1,0,-1,-2,-1,-2
1528875905023638,-1,-1,1,0,0,-4,-6,0
1528875905036568,-10,0,-2,-4,-2,1,10,-3
