timestamp,emg1,emg2,emg3,emg4,emg5,emg6,emg7,emg8
1528189032644234,-1,-1,-2,-12,-9,-5,-1,1
1528189032644234,-2,-5,-15,1,3,3,-3,-3
1528189032644234,-3,-1,4,0,-5,-5,-1,0
1528189032644234,-3,0,-12,-1,-2,-1,-1,-3
1528189032647226,3,-3,8,13,8,1,1,6
1528189032647226,1,1,14,10,4,-2,0,0
1528189032648233,1,3,1,-6,0,1,1,0
1528189032648233,0,0,6,-6,-5,-6,-2,-1
1528189032649221,-6,-1,-15,-28,-12,-2,0,0
1528189032649221,0,-3,1,13,1,-1,1,-6
1528189032662185,-1,-4,-5,-1,-1,-2,-3,-1
1528189032662185,-4,-3,8,0,3,-1,-2,-6
1528189032667172,-3,0,-12,-6,-4,-1,-1,0
1528189032667172,-1,-2,2,2,-7,0,-1,1
1528189032678142,0,-2,-15,-3,10,2,0,-7
1528189032678142,0,2,16,11,3,3,1,7
1528189032682132,4,-2,-24,9,0,-4,-2,0
1528189032682132,-3,-2,0,-35,-12,-3,-3,0
1528189032706069,2,2,3,27,6,3,1,0
1528189032706069,6,4,16,3,-3,3,2,-3
1528189032708070,-5,3,-17,-3,14,1,1,-2
1528189032708070,-8,-7,10,7,-10,-7,-3,2
1528189032720040,-4,-5,-7,-7,-17,-8,-2,-7
1528189032720040,-1,-4,-16,-18,5,-4,1,2
1528189032738980,3,3,22,7,-6,0,-1,-2
1528189032738980,6,1,-28,-25,1,-5,-2,3
1528189032742979,-6,-5,15,-9,-14,-2,-4,-3
1528189032742979,-2,0,21,24,5,-3,-4,-1
1528189032750950,-4,-2,-13,-4,10,6,2,-2
1528189032750950,-3,4,13,10,7,3,0,-1
1528189032790842,1,-5,-10,-26,1,-2,-2,-1
1528189032790842,3,2,10,11,-7,-7,-2,4
1528189032791841,-1,-2,18,7,7,3,0,-2
1528189032791841,1,-1,-16,25,27,6,1,1
1528189032792837,2,3,1,9,9,6,4,2
1528189032792837,-1,-2,-3,6,-5,0,0,-2
1528189032795828,-5,-2,-15,-19,1,-3,-2,-7
1528189032795828,-2,-4,-10,-27,-19,-7,-2,-2
1528189032802809,-3,-5,4,-9,-19,-5,-5,6
1528189032802809,2,-2,-14,-15,10,-2,1,0
1528189032818793,-1,0,15,12,-17,2,0,3
1528189032818793,-6,0,-13,-7,3,-2,-1,-16
1528189032820762,-3,-2,6,1,-24,-7,-2,-8
1528189032820762,0,0,5,-26,14,1,2,5
1528189032840709,-5,-1,-1,57,23,10,2,-6
1528189032840709,4,-2,5,-5,0,-5,1,8
1528189032848687,-3,0,-9,-7,28,3,-2,-3
1528189032848687,-3,6,29,16,0,2,0,-3
1528189032871628,7,1,-14,21,16,-2,1,6
1528189032871628,1,3,15,-9,-25,2,2,3
1528189032872634,5,2,2,-9,-9,-3,-2,-1
1528189032872634,0,-4,-10,-1,-3,3,-1,-2
1528189032877610,-3,-2,-12,-8,-17,-7,-1,-1
1528189032877610,-4,-3,14,15,4,1,-3,1
1528189032892570,-1,-1,4,-7,0,1,1,-1
1528189032892570,-1,-3,-19,-16,-16,0,-3,1
1528189032901592,-2,-6,-9,-26,-8,-9,-2,-1
1528189032901592,2,2,-6,-1,2,1,-1,0
1528189032902576,1,1,-2,7,13,3,2,1
1528189032902576,-2,-1,7,34,3,1,2,0
1528189032923487,-1,0,24,-3,-6,1,-2,-3
1528189032923487,1,-2,0,-7,-4,-6,-2,-2
1528189032925482,-3,-2,-12,5,5,-1,-1,-1
1528189032925482,-2,-4,7,-9,-3,-5,-2,-5
1528189032938447,-1,-5,-24,-13,-6,-2,-3,1
1528189032938447,0,6,15,0,5,0,-1,0
1528189032945455,-1,0,-1,14,-7,1,2,-2
1528189032945455,1,1,-5,-8,-6,-6,-3,-1
1528189032961386,1,3,16,5,7,3,1,0
1528189032961386,-3,-5,-20,-29,-8,2,-3,-2
1528189032963406,-1,-1,-12,2,0,-4,-1,0
1528189032963406,-2,-5,11,4,-2,-3,-2,-2
1528189032983355,1,-1,3,-4,1,-2,-2,-1
1528189032983355,-2,-1,-5,5,0,-2,-1,-2
1528189032985324,-2,1,-4,-16,-9,-5,-2,-1
1528189032985324,-1,-1,-18,2,0,3,2,-1
1528189033014275,1,1,7,-6,-3,-6,-5,-1
1528189033014275,-2,-2,-9,21,10,3,0,-2
1528189033015242,-3,-8,23,9,-3,-4,-4,-2
1528189033015242,-2,3,3,-4,-7,0,0,0
1528189033021226,-2,-5,-11,-15,-5,1,0,-1
1528189033021226,2,-1,-10,-8,-2,-2,-1,1
1528189033023221,0,-1,0,-1,0,-4,3,0
1528189033023221,2,-2,-4,8,5,1,-2,-2
1528189033050148,-1,-1,2,-11,-6,0,-4,-2
1528189033050148,-1,-6,12,8,3,-1,0,0
1528189033059124,0,-7,-2,1,0,1,1,-1
1528189033059124,-6,6,6,-10,-4,-3,1,-4
1528189033060121,2,18,38,-7,-3,-2,9,1
1528189033060121,-5,-4,-72,-14,-10,-8,-17,-2
1528189033066105,6,-15,-11,18,5,3,7,3
1528189033066105,8,-16,20,4,5,2,0,2
1528189033081107,-12,6,27,-2,2,7,17,2
1528189033081107,-11,19,-34,-19,-11,-21,-10,-5
1528189033083061,6,-21,-31,0,4,22,-25,1
1528189033083061,-5,9,1,0,5,100,-23,-22
1528189033104005,-1,-13,-14,-1,0,39,16,-3
1528189033104005,18,13,57,-6,-11,-64,15,26
1528189033105043,3,-12,28,2,0,33,54,27
1528189033105043,-6,-2,-52,-8,-1,-90,-17,4
1528189033116984,0,-23,-12,-5,-6,-22,-62,2
1528189033116984,-35,-28,23,13,3,32,-16,-106
1528189033126943,14,46,-30,-11,0,-45,17,10
1528189033126943,14,-7,80,10,14,16,-17,-10
1528189033148885,-9,-38,-73,-2,1,81,-13,-63
1528189033148885,15,38,62,-2,-7,35,36,109
1528189033150880,38,42,-3,5,-5,12,-5,2
1528189033150880,-30,-13,-92,-14,-24,-103,43,14
1528189033170826,-39,-45,7,7,30,5,-13,49
1528189033170826,-47,-71,-24,6,0,92,-106,-107
1528189033172821,11,8,20,20,13,4,99,31
1528189033172821,35,46,56,-1,12,-31,100,75
1528189033177818,-19,-5,-42,-18,-29,-128,-84,-86
1528189033177818,11,17,39,16,2,-30,31,-57
1528189033193765,24,31,35,-10,-15,-49,33,37
1528189033193765,-31,15,37,2,2,44,44,-36
1528189033201743,15,43,3,3,2,34,127,126
1528189033201743,-9,-25,-3,6,4,-15,-101,-48
1528189033202741,1,-13,-51,2,2,4,7,-18
1528189033202741,13,-43,-82,-5,5,35,12,39
1528189033223686,-12,54,60,4,7,-4,-93,-122
1528189033223686,9,6,-19,-3,-14,22,127,114
1528189033225682,-27,22,22,-22,4,-53,-128,-80
1528189033225682,-2,-59,-80,4,-20,-15,4,-18
1528189033237647,19,61,99,10,27,40,102,71
1528189033237647,37,-42,-14,8,-20,-59,-65,25
1528189033246624,-98,-19,-48,-14,20,29,78,-30
1528189033246624,-15,59,75,-14,7,8,-105,-31
1528189033268565,29,-7,-13,42,-8,-44,-59,-48
1528189033268565,13,19,46,31,16,37,127,77
1528189033270560,44,-76,-75,-36,-14,52,69,87
1528189033270560,17,-9,6,-26,-20,-53,-107,-112
1528189033283525,-4,44,-21,1,-9,-24,52,-7
1528189033283525,-69,9,21,21,18,4,34,-35
1528189033285519,12,-8,0,11,-18,45,1,17
1528189033285519,-42,-70,-11,5,20,11,53,44
1528189033297487,18,-31,25,-12,-7,-21,7,8
1528189033297487,11,10,-37,-20,1,11,-38,8
1528189033306467,-19,1,23,-1,-16,4,-1,-31
1528189033306467,34,1,18,8,-1,39,22,81
1528189033321423,-10,-24,-60,-15,-3,-28,37,-12
1528189033321423,5,6,18,-5,12,33,90,20
1528189033327407,-17,-1,19,-5,-9,-14,-107,-104
1528189033327407,20,10,-4,4,-13,-21,5,-36
1528189033343365,-25,-11,-30,6,2,7,3,17
1528189033343365,33,88,-17,-20,-6,-29,54,41
1528189033345360,-29,-98,-67,12,3,-27,8,18
1528189033345360,5,34,-4,9,3,0,-27,-12
1528189033358372,-13,16,31,-14,-5,17,-1,10
1528189033358372,-1,30,6,-20,-3,-9,-26,-9
1528189033366304,14,29,15,5,-7,-9,-12,-3
1528189033366304,-41,-72,-3,20,7,-14,-2,3
1528189033381263,10,-58,-64,-16,8,38,123,55
1528189033381263,8,3,29,1,-1,-46,-125,-79
1528189033383258,8,42,21,-5,-1,-9,-38,-18
1528189033383258,15,-15,6,-10,-11,18,78,10
1528189033404201,-5,-3,-36,2,2,-6,-25,0
1528189033404201,0,-3,-20,-7,4,41,49,36
1528189033405201,-2,-38,14,3,3,-25,75,16
1528189033405201,-24,57,38,-7,-12,-73,-78,-36
1528189033417173,9,11,-10,-5,-16,72,-29,-46
1528189033417173,-3,-38,-10,-2,-3,-23,5,-10
1528189033426143,-15,-33,26,7,13,26,21,13
1528189033426143,24,-16,9,3,7,21,124,53
1528189033449085,-13,-10,-18,-5,-8,-45,-101,-15
1528189033449085,-4,-8,-43,-9,-7,-19,-38,-22
1528189033450079,8,39,83,1,-11,-12,30,-1
1528189033450079,-5,43,-42,-2,6,23,45,5
1528189033471023,5,-4,8,-1,-7,-16,-74,-11
1528189033471023,-4,-37,9,10,5,-2,35,1
1528189033473031,2,23,-25,5,8,4,-20,-1
1528189033473031,7,34,14,-8,-12,-2,-18,-3
1528189033477007,-2,-20,6,-8,-1,15,47,25
1528189033477007,33,-13,-16,3,6,12,84,25
1528189033493963,-38,7,-21,-1,-4,-43,-116,-40
1528189033493963,21,-4,-27,-2,-1,76,10,-12
1528189033500944,-6,20,21,0,0,-40,40,6
1528189033500944,-6,-3,-12,3,-3,-14,-16,-5
1528189033502939,9,35,39,-6,-4,-1,39,12
1528189033502939,-1,-41,-67,-7,3,21,17,-1
1528189033523891,-6,42,32,8,0,-15,-79,-18
1528189033523891,-2,22,19,0,2,14,6,8
1528189033525881,13,20,9,-4,-8,17,-31,2
1528189033525881,-29,-4,3,-5,-4,-11,-16,-2
1528189033545823,35,-21,-2,5,3,-6,22,-2
1528189033545823,-20,-16,17,6,3,-14,6,1
1528189033547818,0,6,-17,-10,-11,5,11,0
1528189033547818,14,14,17,8,5,-2,-13,3
1528189033568762,3,1,28,-3,0,14,73,25
1528189033568762,8,-1,-61,16,4,5,-43,-16
1528189033570756,-12,-12,44,-8,-2,-15,-63,-19
1528189033570756,1,-26,-40,-12,-6,-8,56,7
1528189033583722,6,3,-2,3,-2,26,-40,1
1528189033583722,-10,12,8,-18,-9,-63,-87,-24
1528189033585717,14,-7,-1,23,13,4,15,6
1528189033585717,-28,3,34,2,1,4,-4,1
1528189033597685,15,26,5,1,2,9,43,10
1528189033597685,-26,-33,-23,-8,-7,17,-4,-2
1528189033606662,13,-18,-12,-3,2,-14,44,18
1528189033606662,5,-7,-9,3,-3,-10,-118,-32
1528189033620624,-9,-20,19,3,-3,-10,-13,-12
1528189033620624,-6,14,-2,-12,-8,2,6,-2
1528189033628838,-6,8,-24,-1,5,11,36,11
1528189033628838,4,9,39,0,4,12,64,17
1528189033644602,-17,11,4,1,0,-10,-25,-4
1528189033644602,10,11,-22,-13,-9,-4,-27,-11
1528189033645561,-13,-68,-41,-4,-4,10,43,7
1528189033645561,-2,-13,-70,1,2,2,-1,-3
1528189033657593,3,36,66,-8,-4,-22,-66,-21
1528189033657593,5,-28,-9,1,-1,1,55,12
1528189033666589,5,24,9,1,0,1,-46,-8
1528189033666589,-1,29,4,0,-1,12,43,8
1528189033680888,-10,-25,-13,-2,-2,-13,-32,-8
1528189033680888,25,39,12,1,-1,9,7,-4
1528189033682866,-12,-4,9,0,2,10,9,0
1528189033682866,-6,5,-8,2,0,6,-34,-6
1528189033704777,4,-13,-10,-9,-5,-4,56,16
1528189033704777,6,4,-2,2,4,4,-8,-1
1528189033705771,2,9,6,3,0,0,3,-3
1528189033705771,-1,7,14,1,-2,-2,-4,2
1528189033717739,-7,2,-14,-4,-2,-3,25,3
1528189033717739,-2,-39,-10,1,1,4,13,4
1528189033726715,3,22,16,1,0,-6,-27,-3
1528189033726715,-10,-9,16,-5,-5,-17,-34,-15
1528189033740732,6,-7,-31,-5,-1,10,51,13
1528189033740732,-4,-2,6,-4,-3,-3,-2,1
1528189033747903,1,-1,-36,2,3,-5,-70,-20
1528189033747903,3,18,28,10,2,-13,-4,-6
1528189033762881,-1,-13,-14,2,-1,4,0,2
1528189033762881,-5,-1,4,0,2,8,42,8
1528189033771606,2,13,12,-3,-4,0,30,7
1528189033771606,2,-8,-2,-5,-2,-13,-37,-9
1528189033793946,3,-3,-12,-2,-2,3,9,0
1528189033793946,-7,-3,7,5,-2,-1,-9,-1
1528189033799519,7,-4,-4,-6,1,-8,9,7
1528189033799519,-4,-3,-1,7,0,-6,-2,-5
1528189033816818,-3,-8,-26,-4,2,5,9,0
1528189033816818,0,28,26,-3,-4,-6,-16,-4
1528189033818702,0,4,14,5,-4,-3,7,-2
1528189033818702,-7,1,17,-5,-3,-5,14,0
1528189033822461,-1,-14,-34,0,3,0,-15,-6
1528189033822461,9,-1,2,-8,-6,-4,-9,-5
1528189033848422,-4,9,-12,-3,-1,0,13,0
1528189033848422,-10,1,10,-1,1,-3,3,3
1528189033849387,0,-1,-3,2,-2,-1,-11,-2
1528189033849387,7,3,13,2,3,0,-4,-2
1528189033852624,18,-6,-10,0,0,3,15,12
1528189033852624,7,5,1,-6,-3,-6,-7,4
1528189033869516,-13,2,1,-2,-4,-4,-5,-11
1528189033869516,-17,-16,-25,-2,0,0,6,0
1528189033870331,0,1,23,3,3,-4,-5,13
1528189033870331,-1,-7,-10,1,-7,-7,-5,-36
1528189033882560,7,-2,5,5,1,2,3,-5
1528189033882560,-11,2,13,-5,-3,-2,-6,-4
1528189033891297,-6,-8,-33,-7,-8,-3,5,-4
1528189033891297,-5,-3,5,5,5,-2,-3,3
1528189033914454,16,-1,-2,3,-3,1,4,14
1528189033914454,-6,0,15,-4,-3,-3,-5,-4
1528189033915211,-6,3,0,-5,-6,-3,0,0
1528189033915211,4,9,-6,-8,-5,-1,1,1
1528189033929174,-4,-17,-3,-5,0,1,-4,-3
1528189033929174,10,-12,-5,-3,-3,-3,-1,5
1528189033931221,21,7,6,8,3,1,1,0
1528189033931221,-18,-3,-3,-7,2,1,-1,14
1528189033942562,-25,3,-3,2,-2,2,-4,-10
1528189033942562,-1,-1,-3,1,-3,-4,-2,-10
1528189033959149,-3,-5,19,-6,0,-2,-2,4
1528189033959149,20,2,-14,-1,-2,2,4,-7
1528189033966170,7,1,4,-3,-3,-2,-1,15
1528189033966170,-9,-10,-12,2,1,1,-2,-10
1528189033981328,-10,4,2,-2,1,1,-3,-14
1528189033981328,2,0,-1,-14,-20,-4,2,13
1528189033989069,12,3,0,-5,12,1,-1,4
1528189033989069,-1,3,8,22,9,3,0,7
1528189033990066,0,-10,-5,6,3,1,-3,-5
1528189033990066,7,0,7,2,-13,0,-2,-2
1528189034002081,-16,1,-2,-11,-9,-3,-1,-2
1528189034002081,3,2,-2,-1,-3,-3,-2,3
1528189034011026,13,-2,5,-7,-1,4,3,2
1528189034011026,-13,-6,-21,0,-6,-8,-3,0
1528189034024973,-10,0,-1,-13,-3,-1,-6,-16
1528189034024973,-9,-24,-9,20,21,8,1,7
1528189034034947,-6,1,4,2,0,1,2,-11
1528189034034947,10,4,6,3,5,-1,-1,-10
1528189034048345,12,3,1,-2,-8,-4,-2,4
1528189034048345,-2,-5,-7,-9,-4,-7,-2,2
1528189034049510,-7,3,-9,0,2,-2,-1,-11
1528189034049510,6,-3,2,-5,4,-1,-2,12
1528189034070534,-4,4,6,8,0,0,1,-1
1528189034070534,9,4,0,-11,-9,1,-2,-6
1528189034071318,-19,-6,-6,-4,-5,-3,-2,-2
1528189034071318,-14,-3,-1,8,9,0,-2,-9
1528189034094459,-5,-10,0,6,-2,-2,0,2
1528189034094459,5,4,3,-4,-3,-4,-2,-2
1528189034095219,6,0,-2,-12,-7,-4,-1,-1
1528189034095219,1,-7,-1,-1,2,0,-1,2
1528189034109431,5,10,-5,1,4,2,1,10
1528189034109431,-6,0,4,-1,-7,-2,-4,-2
1528189034109431,-6,-6,-5,-3,2,-2,0,7
1528189034109431,2,3,1,-5,-2,-2,-3,1
1528189034130126,2,4,0,0,1,-4,-2,-13
1528189034130126,-12,19,3,1,3,2,4,8
1528189034131139,-8,-20,-2,-4,-17,-5,-4,2
1528189034131139,13,-8,2,-2,9,-1,0,-2
1528189034145091,-1,-10,-9,-1,-2,-2,-1,7
1528189034145091,1,5,-8,-2,-2,1,-1,-8
1528189034153392,-1,4,1,-11,18,-3,0,4
1528189034153392,3,0,8,11,-23,1,-4,-5
1528189034168384,1,-2,4,7,5,2,0,-1
1528189034168384,-4,-4,0,-4,-4,-4,-2,-4
1528189034169024,12,5,-7,4,-4,-2,-1,3
1528189034169024,0,-2,-5,-13,-7,-5,-2,6
1528189034190963,-9,3,9,3,15,2,-1,-15
1528189034190963,-13,-9,0,5,4,5,-1,3
1528189034192093,1,5,-7,13,3,7,8,6
1528189034192093,4,4,4,-7,2,1,-2,-6
1528189034206949,-11,-4,-2,-1,-9,0,5,7
1528189034206949,-6,2,-13,-9,-1,-4,-4,-9
1528189034212914,6,4,0,-6,-14,-4,-4,3
1528189034212914,-3,-4,-3,2,9,-2,-1,-1
1528189034228217,8,0,7,-4,-2,2,3,-2
1528189034228217,18,7,5,0,-2,-3,1,13
1528189034228864,-19,-10,-2,3,0,2,1,-23
1528189034228864,-5,-11,-6,2,0,1,0,-3
1528189034259211,-7,-29,-9,-7,-1,-3,-5,-6
1528189034259211,0,0,4,-12,-8,-5,-3,-8
1528189034259793,-3,0,-3,17,1,-2,-3,7
1528189034259793,-15,6,-2,-8,6,1,-1,-5
1528189034266090,-8,-7,-3,-3,-5,-4,-4,-17
1528189034266090,4,-6,-1,2,-3,-2,0,-7
1528189034266762,-7,2,7,-13,-10,-2,-1,-29
1528189034266762,5,-2,2,12,8,-1,-1,27
1528189034288396,19,3,-18,-9,-3,-1,-3,19
1528189034288396,-3,-3,5,15,5,5,1,-3
1528189034289018,6,13,12,10,8,4,4,-6
1528189034289018,7,-1,-4,-6,-2,-1,0,1
1528189034310997,-11,6,-1,2,-3,2,5,-4
1528189034310997,-3,-9,-8,-11,-6,-7,-5,0
1528189034312103,-8,-1,-5,0,8,-1,0,15
1528189034312103,3,1,6,-5,-7,-2,1,-16
1528189034325919,3,2,1,1,2,-1,-3,13
1528189034325919,20,0,-5,-6,0,0,0,-5
1528189034326916,-6,-3,-4,-6,-5,-5,-7,-3
1528189034326916,-6,3,-5,-2,0,-3,-2,4
1528189034348851,2,-9,-3,0,-4,-4,-2,-7
1528189034348851,-8,2,5,5,4,4,3,-3
1528189034348851,2,2,-4,-5,-2,-2,-1,-2
1528189034348851,0,-2,8,-1,2,3,1,-14
1528189034371052,3,4,-6,2,-4,-5,-5,28
1528189034371052,16,0,-2,0,1,1,3,17
1528189034372050,0,-4,0,-6,-1,-1,-4,-22
1528189034372050,-21,-6,-11,3,-1,-1,-3,-2
1528189034394103,1,1,6,1,-2,-4,-6,-5
1528189034394103,-16,-1,3,-4,-2,-3,-7,-5
1528189034394776,11,-2,-21,-3,-2,0,1,5
1528189034394776,2,3,6,-4,1,1,1,4
1528189034408554,5,5,1,-3,-1,1,2,-7
1528189034408554,-4,-1,-4,-2,-2,-3,-2,6
1528189034409204,-7,-1,9,-1,0,2,-1,-9
1528189034409204,-2,-2,-3,0,-1,0,2,10
1528189034431413,0,1,-1,-1,1,0,1,2
1528189034431413,-4,-2,-1,-3,-1,1,0,-8
1528189034431413,0,-1,-2,0,1,0,-1,11
1528189034431413,-9,0,-1,1,-1,-3,-2,-17
1528189034446397,9,3,2,0,0,-1,-1,6
1528189034446397,-10,-4,3,1,1,1,2,-6
1528189034446397,8,-5,-3,1,-2,-3,-1,21
1528189034446397,-12,0,-3,-1,-2,-2,-6,-20
1528189034477179,-1,0,3,-2,-1,0,0,-8
1528189034477179,0,-3,-5,-1,1,-1,-2,-3
1528189034477179,-2,-3,1,0,0,-1,1,2
1528189034477179,7,-1,-1,-3,-1,0,1,13
1528189034490894,3,0,0,0,-2,0,1,-2
1528189034490894,-4,-2,-4,-2,-3,-3,-6,-13
1528189034492158,-37,5,3,1,0,2,1,-3
1528189034492158,7,-2,0,-2,-1,-1,-4,10
1528189034506421,2,1,-4,-2,-1,0,-1,-14
1528189034506421,4,-1,-4,1,-1,1,-1,8
1528189034506421,8,-3,0,-2,-1,-1,-2,1
1528189034506421,-9,3,0,2,1,-1,1,-5
1528189034536121,-9,0,-1,1,1,0,2,-4
1528189034536121,10,-1,1,-1,-1,-1,4,-3
1528189034537087,1,-5,-4,-3,-4,-3,-5,16
1528189034537087,8,-4,-3,-2,-3,-2,-1,4
1528189034559290,1,-1,0,0,0,1,-2,-6
1528189034559290,-8,1,0,-3,-1,-1,-2,-6
1528189034560026,0,0,0,-1,-1,-1,2,-9
1528189034560026,3,-4,-2,-1,-2,-1,2,6
1528189034582045,3,2,1,-2,-2,1,2,0
1528189034582045,-8,-2,-1,-1,-1,-2,-4,-6
1528189034582045,-2,1,-1,0,1,-1,-15,3
1528189034582045,-2,-1,-1,1,0,-3,10,-2
1528189034588213,-9,-1,-2,0,-2,2,-1,-4
1528189034588213,-2,3,0,-2,-2,-4,1,4
1528189034596187,8,-1,-1,-1,-2,-2,-3,-3
1528189034596187,3,-4,-1,-2,0,0,-6,-3
1528189034610890,-5,-2,0,-2,0,1,-1,3
1528189034610890,3,-5,-3,-3,-2,-3,0,4
1528189034611888,-8,-2,-3,-2,-1,-2,0,-4
1528189034611888,1,-2,-2,1,-1,1,-4,-2
1528189034633851,2,2,1,2,2,0,2,4
1528189034633851,2,-1,-2,-2,-1,0,0,4
1528189034634826,6,-3,-2,0,1,-2,2,3
1528189034634826,14,-15,-4,0,-3,0,-1,-7
1528189034647844,-18,10,2,-1,-1,-1,-2,2
1528189034647844,16,-26,-7,-2,-5,-3,-4,-7
1528189034648788,1,3,0,-1,-2,-1,2,3
1528189034648788,6,2,1,-2,0,-1,-4,3
1528189034687739,-3,0,-3,-1,-1,0,0,-2
1528189034687739,14,-6,-7,-3,-4,-3,-2,4
1528189034688736,1,-11,0,1,-1,0,1,-7
1528189034688736,-34,22,7,2,1,0,-2,-2
1528189034689720,-21,-1,-2,-3,-2,-4,-3,-15
1528189034689720,-13,19,5,2,4,2,1,-4
1528189034692731,21,-6,-6,-6,-3,-4,-8,8
1528189034692731,-4,-15,-1,1,0,-1,10,-2
1528189034723588,8,-7,-3,-3,-2,-2,-5,1
1528189034723588,-16,4,3,1,-1,3,2,-9
1528189034724598,-19,11,4,1,2,2,-1,-11
1528189034724598,6,6,-1,-2,-1,4,2,28
1528189034730615,-8,0,0,-2,-2,-6,1,-14
1528189034730615,-2,-2,-1,0,1,-1,-1,5
1528189034731567,6,-3,0,0,-2,-2,-4,-9
1528189034731567,-3,-1,-1,1,1,1,-2,-11
1528189034745582,16,1,-2,0,-1,2,3,8
1528189034745582,-18,12,5,1,1,0,-5,3
1528189034746578,-7,-5,-3,-2,-2,-3,4,-3
1528189034746578,-3,0,-5,-3,-2,-4,-3,-6
1528189034768521,-7,-4,2,0,0,0,-3,-3
1528189034768521,8,-9,-2,0,0,0,-1,-1
1528189034768521,-1,8,-1,-1,-1,1,2,2
1528189034768521,3,1,-2,-2,-3,-3,-7,-4
1528189034790411,3,-3,1,-1,-2,0,0,2
1528189034790411,1,-5,-1,0,0,-1,-2,-4
1528189034791408,-2,1,0,1,1,0,4,-3
1528189034791408,-9,5,0,-2,-1,0,-2,-4
1528189034813402,8,-10,-4,-4,-1,-3,-4,7
1528189034813402,-1,0,-4,-1,-5,-3,-2,-4
1528189034814358,-7,9,-1,0,-3,-2,-1,8
1528189034814358,4,-9,-3,-2,0,-1,-1,-17
1528189034836339,-6,-1,0,3,0,1,2,4
1528189034836339,-22,1,-1,-2,-3,-1,0,-15
1528189034837339,7,-3,1,1,2,-1,-1,-3
1528189034837339,-5,-2,-1,-1,-2,-3,-4,3
1528189034850304,3,-7,-3,-2,0,-1,-1,0
1528189034850304,2,14,3,-1,-1,2,3,10
1528189034851247,-9,0,-1,1,1,-1,-2,-8
1528189034851247,6,-6,-2,-1,-1,-1,-2,0
1528189034865266,-6,-3,-1,0,-2,-1,-3,-7
1528189034865266,3,-1,-3,-2,-2,-2,-1,4
1528189034866209,6,-5,-2,-3,-2,-1,2,0
1528189034866209,-8,2,1,1,0,-1,0,-5
1528189034888203,0,-1,0,0,-1,-1,-1,2
1528189034888203,3,1,-2,-1,-2,-1,1,4
1528189034889201,4,-2,-1,-1,-3,-1,-2,-1
1528189034889201,-10,10,1,1,-1,1,-2,-4
1528189034911142,-10,-2,0,0,-1,-1,-2,-12
1528189034911142,5,-3,-1,-1,2,3,2,0
1528189034912095,1,-15,-2,0,-1,1,3,10
1528189034912095,-1,-11,-6,-3,-2,-5,-4,5
1528189034925100,3,1,-2,-1,-1,-3,-2,-1
1528189034925100,-3,4,0,1,1,-3,-1,0
1528189034933041,-5,-3,-2,-3,-2,-1,-1,-6
1528189034933041,10,-4,-1,-1,-2,1,-1,-3
1528189034955967,1,5,3,2,1,-1,-1,-1
1528189034955967,2,-6,-2,-2,0,-3,-1,0
1528189034956964,-2,-1,-1,-2,-1,0,1,-1
1528189034956964,3,-2,-2,-1,-1,-3,-2,4
1528189034970962,5,-5,-2,-3,-2,-1,-2,-1
1528189034970962,8,-2,1,-1,-2,-1,0,-4
1528189034971924,-2,-2,1,1,-1,-3,-12,-5
1528189034971924,-8,-2,-2,-2,-1,1,10,7
1528189034985134,2,-3,-4,-3,-4,0,-2,-8
1528189034985134,3,-4,-2,-1,-1,-1,2,3
1528189034993130,0,2,-1,-2,-3,-1,-2,-2
1528189034993130,7,-1,1,0,0,0,-3,-10
