timestamp,emg1,emg2,emg3,emg4,emg5,emg6,emg7,emg8
1528439768275597,-1,-2,-1,-1,3,3,0,0
1528439768275597,-1,-1,-3,-2,-2,-1,-2,0
1528439768276595,-1,-2,-1,-2,-2,-2,-3,-3
1528439768276595,0,1,-1,-2,-6,-6,-3,-2
1528439768279586,-1,-1,-2,-1,-3,-4,-2,0
1528439768279586,1,-2,-1,0,3,5,0,0
1528439768280583,-2,0,-1,1,0,5,0,2
1528439768280583,-3,0,0,-3,-1,0,-2,-1
1528439768284572,-2,0,-1,-2,-5,-4,-1,-2
1528439768284572,-2,2,-2,-3,-5,-9,-3,-4
1528439768287565,1,0,-2,0,5,1,1,-3
1528439768287565,0,-1,1,1,2,3,1,0
1528439768300529,0,-1,1,-1,-2,0,0,1
1528439768300529,0,-1,-2,-1,-1,2,2,0
1528439768313495,-1,-2,-4,-4,-4,-7,-3,-4
1528439768313495,-1,-2,-4,-2,-4,-6,-3,-1
1528439768315489,-2,-2,-1,-1,0,-5,-3,-3
1528439768315489,-2,-3,1,0,0,-2,0,-1
1528439768339425,-1,0,1,2,0,1,-1,-1
1528439768339425,-1,0,-1,-1,-1,1,-1,-1
1528439768377324,-2,-2,-2,0,-2,1,-1,-1
1528439768377324,-2,0,1,-1,1,0,0,1
1528439768378321,-1,0,-1,-2,0,2,-1,-1
1528439768378321,-2,0,0,0,-1,1,-1,-3
1528439768379319,0,-3,-1,1,0,2,-2,-3
1528439768379319,-1,-1,0,-3,-1,0,-2,-2
1528439768380316,-1,-1,0,0,-1,-2,0,-2
1528439768380316,1,-1,-1,0,-2,-3,-1,1
1528439768390289,-1,-1,-2,-1,-2,-2,-1,-1
1528439768390289,-1,-2,-3,0,-3,-3,-2,0
1528439768398310,-2,-2,-1,-3,-2,-1,-1,-1
1528439768398310,-1,0,-2,-1,-1,0,-1,-1
1528439768407244,-1,0,2,-1,1,0,1,1
1528439768407244,0,-1,0,-1,3,4,2,0
1528439768420209,0,-1,-1,0,2,1,0,0
1528439768420209,-3,-2,-3,-2,-2,-3,-1,-1
1528439768430195,-4,-1,-3,-5,-4,-8,-4,-5
1528439768430195,-1,-3,-2,-4,-8,-9,-4,-5
1528439768443148,1,2,0,3,-4,-8,0,0
1528439768443148,-1,0,-1,3,12,14,6,2
1528439768452124,3,1,1,3,7,15,6,4
1528439768452124,-4,-2,-2,-2,-5,-6,-5,-1
1528439768467087,-5,-5,-5,-8,-14,-5,-6,-4
1528439768467087,-1,-6,-4,-5,2,-6,-6,-2
1528439768469088,-1,0,-2,-1,-4,-11,-4,0
1528439768469088,0,-1,-1,-3,-14,-9,-2,-1
1528439768489026,1,0,1,0,-4,-5,1,1
1528439768489026,2,0,-4,-15,2,10,3,2
1528439768491021,-3,-2,-2,-11,-13,1,-2,-4
1528439768491021,7,9,18,61,65,43,18,8
1528439768502988,-1,-1,1,2,12,6,-1,-2
1528439768502988,-4,-4,-5,-4,-13,-5,-7,-5
1528439768511964,-3,-6,-10,-22,-25,-33,-14,-6
1528439768511964,-2,-1,-15,-17,-18,-3,0,-1
1528439768526936,-1,-2,-11,-1,-8,-6,-4,0
1528439768526936,4,5,-1,7,0,-19,4,7
1528439768534902,2,0,-1,4,26,49,11,3
1528439768534902,-3,-3,8,-6,-4,-2,2,-3
1528439768549915,-5,-9,-14,-13,2,4,-6,-7
1528439768549915,-6,-2,13,0,-23,-36,-15,-8
1528439768550860,7,8,19,37,29,25,19,8
1528439768550860,0,0,1,-2,-14,-12,0,-1
1528439768562855,0,-2,0,-1,23,34,13,1
1528439768562855,-7,-8,-12,-13,-10,-9,-15,-10
1528439768578786,-9,-7,-9,-16,-28,-46,-22,-9
1528439768578786,1,-2,-4,-15,-24,-25,-7,-1
1528439768586777,6,5,7,10,8,19,14,7
1528439768586777,2,5,9,23,12,22,9,3
1528439768592749,0,2,3,9,16,-1,-2,-2
1528439768592749,-4,-5,-11,-11,14,38,7,-3
1528439768609703,-7,-4,-6,-12,-34,-54,-23,-6
1528439768609703,-5,-5,-5,-6,1,0,-1,-4
1528439768610701,3,5,3,5,-4,11,12,6
1528439768610701,1,2,-3,-8,7,-1,3,3
1528439768631683,4,5,9,9,18,28,9,3
1528439768631683,-2,-4,1,2,-6,-19,-11,-6
1528439768633639,-8,-10,-13,-13,-19,-26,-43,-20
1528439768633639,-3,-1,5,3,-23,-54,8,4
1528439768646603,6,6,7,13,29,67,26,9
1528439768646603,3,3,-4,6,19,17,12,4
1528439768653585,-5,-6,-10,-22,-4,7,-5,-7
1528439768653585,-4,-6,-8,-25,-60,-74,-32,-9
1528439768669543,-6,-6,2,18,13,4,-4,-4
1528439768669543,5,3,4,9,10,0,12,9
1528439768671539,1,3,-1,-7,-7,-6,-1,0
1528439768671539,1,0,-5,-3,18,47,8,2
1528439768692481,-1,4,20,28,1,-26,-4,0
1528439768692481,-2,-3,-6,-9,-20,-12,-15,-3
1528439768693480,1,2,4,14,36,27,19,10
1528439768693480,-4,-2,-10,-20,-12,-2,-8,-7
1528439768705449,-8,-10,-16,-15,-22,-32,-9,-7
1528439768705449,7,10,17,18,37,67,24,8
1528439768714440,-5,-6,-10,-26,-75,-74,-26,-8
1528439768714440,-5,-10,-6,2,-1,-20,-10,-6
1528439768729385,4,7,8,10,35,46,10,3
1528439768729385,4,1,-14,-16,-6,-5,7,5
1528439768731379,-6,-11,7,0,2,7,-4,-6
1528439768731379,-1,1,-1,1,3,8,3,2
1528439768752356,-1,-2,-13,-15,-24,-41,-19,-5
1528439768752356,-6,-3,-5,-2,-1,-14,-9,-8
1528439768753319,7,4,-3,3,13,29,27,14
1528439768753319,-5,-7,-1,-7,-4,-9,-11,-3
1528439768765325,-2,0,-2,-3,-3,-10,-1,-4
1528439768765325,2,2,-5,-7,8,22,5,3
1528439768774264,14,3,14,18,10,3,-1,2
1528439768774264,-31,-7,10,14,9,17,10,-4
1528439768789262,13,4,-8,-18,-17,-10,6,1
1528439768789262,-5,-8,-10,-10,-15,-26,-26,-9
1528439768791218,-3,3,8,11,12,10,16,2
1528439768791218,13,6,7,6,10,15,-1,2
1528439768812221,-1,-3,-10,-11,-9,-5,-10,0
1528439768812221,-8,-3,14,15,-3,-5,-1,-3
1528439768814169,2,1,-29,-18,-7,-10,-6,-2
1528439768814169,1,-3,16,14,13,16,1,-2
1528439768826156,-14,-7,-3,-8,-4,-4,1,0
1528439768826156,10,3,13,-2,-7,-4,-1,-3
1528439768835100,-6,-3,-5,0,0,-4,-10,0
1528439768835100,5,5,6,6,5,7,10,-2
1528439768857080,-6,-2,1,4,1,-3,-6,-7
1528439768857080,-7,-7,-10,-14,-21,-23,-18,-7
1528439768859076,-1,-7,-15,-7,3,16,22,7
1528439768859076,4,0,-22,-16,-7,-7,-10,-1
1528439768872010,-4,-1,24,0,-11,-7,-2,-2
1528439768872010,-1,-2,-24,-14,0,18,15,4
1528439768873997,-3,5,32,34,18,5,-7,-6
1528439768873997,10,5,10,5,0,5,2,9
1528439768885965,1,0,-18,-16,-16,-11,-5,0
1528439768885965,-1,-3,-13,-17,-14,-14,-12,-5
1528439768894941,0,3,-1,-3,-6,-5,-4,-1
1528439768894941,6,10,6,16,5,-3,-2,-2
1528439768909900,-13,-19,-6,-9,-2,5,1,-2
1528439768909900,-2,-7,-31,-30,-20,-11,-1,0
1528439768910898,-2,1,14,18,19,10,2,-4
1528439768910898,7,5,9,15,22,15,3,3
1528439768931843,0,2,0,13,4,-4,-8,-8
1528439768931843,4,6,4,14,12,9,11,5
1528439768933836,-7,-13,-7,-56,-42,-20,-6,-4
1528439768933836,-5,1,-8,9,-2,3,-4,-4
1528439768945805,0,-6,-13,-12,1,1,0,2
1528439768945805,0,7,48,37,3,-2,-7,-1
1528439768960803,2,3,-7,-7,2,3,11,5
1528439768960803,-5,-15,-32,-30,-6,-3,-1,-3
1528439768976749,3,4,0,11,-1,0,2,-2
1528439768976749,-2,-3,14,7,0,-4,0,-1
1528439768978716,-4,-2,8,21,-2,-1,-6,-5
1528439768978716,-1,0,-9,-17,-9,-3,-5,-1
1528439768991684,4,6,21,15,2,-1,0,3
1528439768991684,-6,-6,-11,-19,-8,-3,-3,-6
1528439768993678,5,11,1,11,3,-1,-3,-2
1528439768993678,-6,-12,-14,-32,-14,-6,-1,-5
1528439769005645,-5,-5,-11,-6,-17,-15,-7,-5
1528439769005645,-2,-2,9,28,30,16,8,3
1528439769014620,3,3,-17,-6,1,-3,-2,0
1528439769014620,3,7,8,7,-2,-3,-4,-1
1528439769029582,6,8,-7,-17,-4,-5,-4,1
1528439769029582,-5,-6,-8,-6,-3,0,4,-1
1528439769031602,-3,1,5,3,4,2,0,1
1528439769031602,-2,-9,-20,-8,-1,-3,-4,-1
1528439769052519,-2,7,36,35,12,5,3,2
1528439769052519,7,7,-15,-20,-7,-3,-1,0
1528439769053516,0,1,-2,7,5,3,0,-1
1528439769053516,-5,-3,-1,-3,-1,1,3,-2
1528439769065485,-4,-8,5,-5,-7,-4,-4,-5
1528439769065485,1,9,-10,-4,5,6,3,0
1528439769074461,-2,-12,-7,-13,-6,-6,-5,-3
1528439769074461,-8,-13,8,25,16,7,5,0
1528439769089421,-2,-6,-4,-10,-5,-4,-2,-2
1528439769089421,3,1,-7,-14,-7,-4,-1,2
1528439769091415,3,2,16,20,3,2,-2,-2
1528439769091415,-8,-4,-5,-4,0,0,0,-8
1528439769112361,15,-16,-31,-16,-2,1,0,7
1528439769112361,-4,29,44,37,17,10,10,3
1528439769113369,-14,-20,-12,-8,-6,-6,-7,0
1528439769113369,6,22,35,16,-1,-3,-3,6
1528439769134302,-41,-34,-21,-4,-2,-1,-1,-17
1528439769134302,39,33,-5,-30,-22,-21,-16,-5
1528439769136296,-4,9,-41,1,12,13,7,-7
1528439769136296,-16,-26,-2,-7,-3,-2,0,-10
1528439769149262,13,16,-5,-10,-7,-9,-5,1
1528439769149262,-27,-82,-58,-17,-5,-2,-4,-6
1528439769151256,29,80,72,28,13,5,2,5
1528439769151256,-2,-4,-11,-11,-1,4,6,10
1528439769172262,9,38,42,27,10,4,1,-8
1528439769172262,-11,-32,-12,-5,-2,0,-1,-6
1528439769173197,-4,-21,1,-21,-12,-8,-7,-3
1528439769173197,5,-20,-23,0,-5,-4,-3,4
1528439769186162,1,-16,-7,-16,-4,-3,-1,7
1528439769186162,-3,11,27,38,15,5,1,1
1528439769195139,-8,-25,-18,-8,-2,-2,0,-2
1528439769195139,4,15,-2,-5,-5,-4,-4,-3
1528439769209139,0,0,-8,-8,-4,1,0,2
1528439769209139,-4,5,-4,-12,-16,-10,-8,-6
1528439769211097,-7,-4,-13,-19,-13,-8,-6,-5
1528439769211097,8,13,31,32,21,9,2,3
1528439769232094,1,6,6,2,2,7,4,-1
1528439769232094,-5,-2,-1,14,14,11,7,1
1528439769234035,-4,-13,-11,-18,-18,-10,-5,-1
1528439769234035,0,-4,-2,-6,-10,-4,-4,-6
1528439769246021,-1,0,1,6,3,1,-2,1
1528439769246021,-2,1,24,3,-3,-3,-1,-1
1528439769255017,-4,-11,-11,3,1,-4,-2,1
1528439769255017,-1,4,0,-10,-6,-5,-3,-4
1528439769268996,-3,-4,-12,-6,-7,-4,-2,2
1528439769268996,-1,-2,-4,0,3,5,4,3
1528439769275923,6,2,1,-2,-1,-1,-1,1
1528439769275923,-3,-5,-4,1,4,6,2,-1
1528439769291882,5,4,0,0,-2,1,0,4
1528439769291882,-3,0,6,-3,-2,0,0,0
1528439769293877,-3,-10,-1,9,1,0,1,0
1528439769293877,7,5,9,5,-6,-7,-5,0
1528439769305842,2,-2,-21,-20,0,-4,-3,-2
1528439769305842,-11,-1,-8,-14,-11,-6,-7,-4
1528439769314818,5,12,-4,-3,3,1,1,0
1528439769314818,3,1,9,13,6,3,0,3
1528439769328899,3,6,4,0,0,0,0,0
1528439769328899,1,-5,3,2,0,-2,-1,0
1528439769336098,-2,-1,-9,-10,-1,-1,0,1
1528439769336098,-4,1,-4,-8,-4,-3,-1,-2
1528439769351060,-6,-11,4,7,3,0,1,-2
1528439769351060,6,11,1,-4,-3,-3,0,1
1528439769360005,-4,-8,4,7,4,3,1,0
1528439769360005,-3,-1,-3,-3,-2,-2,-3,-7
1528439769374966,-4,-5,1,2,-1,0,-1,-1
1528439769374966,-1,-5,-2,0,1,3,1,6
1528439769375962,8,4,0,-4,-1,0,-5,-16
1528439769375962,-18,-14,2,8,2,3,0,0
1528439769397448,14,15,0,-6,-2,-2,-2,2
1528439769397448,-11,-10,3,6,0,-4,0,-2
1528439769398450,-1,-11,-5,-4,2,3,4,2
1528439769398450,-7,1,-5,-7,-4,-4,-2,-4
1528439769410690,2,-3,-10,-10,-3,-2,-1,-6
1528439769410690,2,2,13,18,3,2,0,2
1528439769419634,-1,-1,3,6,1,-1,-1,3
1528439769419634,4,1,0,-2,1,0,-1,-3
1528439769434621,-4,-4,-2,1,2,0,-1,-1
1528439769434621,1,5,-6,-9,-4,-1,-1,-1
1528439769436352,-6,-6,-4,-1,-1,-2,-1,3
1528439769436352,5,1,-2,-5,0,0,-2,-2
1528439769457296,-5,-3,0,0,0,0,-1,-2
1528439769457296,1,5,1,0,-1,-1,-2,-5
1528439769458635,-3,-2,5,5,0,-1,0,0
1528439769458635,2,-2,-5,-5,-3,0,0,2
1528439769471513,-4,-2,-2,0,0,0,-2,-3
1528439769471513,1,-1,-7,-9,-2,-2,-3,-2
1528439769479288,-4,-2,-2,-2,1,0,-2,0
1528439769479288,3,3,-3,1,2,0,-1,-1
1528439769495273,-5,-3,-1,-2,-1,1,1,-1
1528439769495273,0,1,0,0,-1,0,0,-4
1528439769496192,-2,-2,-1,-2,-2,-1,-1,1
1528439769496192,-1,-2,-7,-6,-6,-5,-3,-1
1528439769517677,-4,-4,-1,1,-1,0,-1,-1
1528439769517677,-1,0,0,0,0,1,-1,-1
1528439769518500,-2,-2,-2,-2,-2,0,-1,0
1528439769518500,0,0,-5,-3,-1,0,-1,0
1528439769530996,-1,-2,-2,-3,-2,0,0,-1
1528439769530996,1,0,1,0,-2,-4,-2,-3
1528439769539705,0,-1,2,2,2,0,2,0
1528439769539705,1,1,-4,-5,-2,-1,0,-3
1528439769554926,-1,-3,-1,1,-1,-2,-3,-1
1528439769554926,-1,-1,-4,-8,-5,-3,-2,-2
1528439769555949,-4,0,-1,-3,-2,-1,-1,-2
1528439769555949,-2,-1,2,3,1,-2,-1,-1
1528439769577671,-1,1,4,4,3,6,2,-1
1528439769577671,2,0,-4,-1,0,1,1,0
1528439769578600,2,0,0,-4,-2,1,0,3
1528439769578600,-2,-3,1,0,-2,-2,-2,-1
1528439769590583,-2,-2,0,0,0,-4,-2,0
1528439769590583,-1,-4,-11,-10,-4,-3,-3,-3
1528439769599575,-1,-2,9,11,-1,-2,-2,-2
1528439769599575,0,2,1,-2,-1,-1,-1,0
1528439769614744,-4,-3,-4,-5,-1,-1,-2,-2
1528439769614744,-1,-6,-15,-12,-5,-3,-3,-2
1528439769616498,2,8,21,25,11,2,2,-1
1528439769616498,1,-1,-8,0,2,7,3,2
1528439769636713,0,0,2,-1,-2,-1,1,2
1528439769636713,0,2,-6,-9,-8,-3,-2,0
1528439769638707,-4,-6,-4,0,6,6,3,-1
1528439769638707,-1,-2,0,0,0,-2,-1,-2
1528439769650676,0,1,-8,-6,-4,0,-3,-3
1528439769650676,0,-2,4,-1,-7,-6,-4,-2
1528439769659652,-6,1,-10,-9,-5,-6,-3,-3
1528439769659652,-3,-2,0,-5,-6,-4,0,0
1528439769674611,-1,-1,1,9,9,6,4,2
1528439769674611,0,4,10,16,14,3,1,1
1528439769676607,-3,-3,-6,-11,-9,-4,-6,-2
1528439769676607,1,2,-5,3,2,-1,0,-2
1528439769697690,1,3,2,-7,-9,-9,-2,0
1528439769697690,-5,-5,0,0,-1,1,0,-2
1528439769698690,1,-2,-4,-5,-4,-2,-1,0
1528439769698690,-1,-1,-5,-6,-6,-3,-3,-2
1528439769710659,1,2,0,2,0,-1,-2,-1
1528439769710659,1,5,5,5,4,3,1,1
1528439769719635,-3,-7,-4,-3,0,1,0,-1
1528439769719635,0,-2,0,-3,-3,-2,-4,-2
1528439769734596,-4,-3,-2,1,0,0,-2,1
1528439769734596,-1,2,1,1,-1,-2,0,-1
1528439769736588,-1,0,-7,-6,-2,-2,0,0
1528439769736588,0,0,2,3,3,1,0,-1
1528439769757549,0,1,0,0,0,-1,0,0
1528439769757549,-2,-4,-3,-3,-2,-1,-2,0
1528439769758535,-1,-1,-2,-3,-3,0,-2,0
1528439769758535,-3,-3,-3,-5,-2,-2,-3,0
1528439769770915,-2,0,6,6,-4,-1,-1,-2
1528439769770915,0,0,1,1,0,0,-1,0
1528439769779476,1,3,2,4,1,-1,-2,-2
1528439769779476,-1,1,0,-5,-4,-1,1,-1
1528439769794562,-1,-1,-3,1,3,0,1,0
1528439769794562,-1,-2,-2,0,3,-2,1,-1
1528439769800900,-3,-3,-3,-4,-2,-4,0,-3
1528439769800900,0,-2,-1,-2,-1,-1,0,-1
1528439769817595,0,-2,0,-4,-3,-2,-1,-1
1528439769817595,0,-2,0,-1,-2,-1,-2,0
1528439769818277,-1,-2,-2,-6,-3,-2,-3,-1
1528439769818277,-2,0,0,2,1,-1,0,-1
1528439769831503,-2,-3,0,1,2,-2,1,-1
1528439769831503,-2,-2,-3,-3,0,0,0,-1
1528439769846556,-3,-2,-3,-2,-2,0,-1,-2
1528439769846556,-3,1,3,0,-2,-2,-2,-1
1528439769854440,-1,-1,-2,-3,-1,-1,-2,-1
1528439769854440,-2,-2,-1,-1,-1,0,1,-1
1528439769861405,1,-1,2,2,-1,-1,0,0
1528439769861405,-1,-5,0,2,0,0,-1,-1
1528439769877372,-2,-2,-1,-2,-2,-2,0,-3
1528439769877372,0,-1,-2,-2,-3,-1,0,-2
1528439769879155,0,-3,-3,-2,-1,-2,0,0
1528439769879155,0,-1,-1,0,1,0,0,0
1528439769891345,-2,-3,0,-2,-1,-1,-3,1
1528439769891345,-1,-1,0,-3,-2,0,-2,-2
1528439769900057,-2,-3,-1,-2,0,-1,-1,-1
1528439769900057,0,-2,0,-1,-1,0,0,1
1528439769914057,-2,-1,-1,0,-2,-2,-1,-3
1528439769914057,-2,-1,-1,-1,1,0,-2,-2
1528439769921231,-1,-1,0,0,0,0,0,-2
1528439769921231,1,-1,-3,-1,-1,-2,-2,-2
1528439769937001,-1,-1,-1,-2,-1,-1,-1,-1
1528439769937001,-1,-1,0,-1,0,-3,0,1
1528439769938954,1,0,0,0,-2,-2,-3,-1
1528439769938954,-1,-1,-1,-3,-2,-1,-1,-1
1528439769959489,0,0,-2,-1,-2,-1,-2,-1
1528439769959489,0,-1,-2,0,-1,-1,0,-1
1528439769959489,-1,-2,-2,-2,0,-1,0,0
1528439769959489,0,-2,0,0,0,-2,-1,-3
1528439769973454,0,-1,-2,-1,0,-1,-1,1
1528439769973454,1,0,-1,-1,-1,-1,-2,-1
1528439769981862,-1,-1,-3,-2,-1,0,-2,-2
1528439769981862,-2,0,0,-1,0,-1,1,-2
1528439770004806,-3,-2,-1,-3,-1,-2,-2,0
1528439770004806,-3,0,-2,1,-2,-2,-1,-1
1528439770005804,-2,-3,0,-1,-1,-1,-1,0
1528439770005804,-1,-1,-2,-1,0,-1,0,0
1528439770018768,-2,1,-3,0,0,-2,-2,-2
1528439770018768,0,-1,2,-1,-2,1,-2,-1
1528439770019763,-1,-1,-1,0,-1,-1,-1,0
1528439770019763,0,-1,0,-1,-2,-1,-2,-1
1528439770032985,1,-2,-1,0,-1,-2,-1,0
1528439770032985,-1,-1,-1,-2,-2,-2,0,-1
1528439770042091,0,0,-1,0,-2,-2,0,-1
1528439770042091,-2,-1,-1,-1,2,-1,-1,0
1528439770056053,0,-2,-1,0,-1,1,-2,-2
1528439770056053,-3,-2,0,-1,-1,0,-2,-3
1528439770057014,-2,0,0,-2,-3,-1,-2,0
1528439770057014,-3,0,-2,0,-1,1,-3,-1
1528439770079503,-1,0,-1,0,-3,-1,0,-1
1528439770079503,-2,2,0,1,-1,0,-2,-1
1528439770079503,0,1,-1,-2,-1,-2,-1,-1
1528439770079503,0,-1,1,-1,0,-1,-2,-1
1528439770093219,-1,-1,0,-1,-1,-1,-2,-1
1528439770093219,-1,0,-1,-2,-1,-1,-1,-1
1528439770101197,-1,0,-2,-1,-2,-1,-1,-1
1528439770101197,0,-2,-2,1,-1,-2,0,-2
1528439770116405,-3,-2,-1,1,-2,0,0,-1
1528439770116405,0,-1,-1,-2,0,-1,-1,-1
1528439770117151,1,-1,-2,-1,-2,-1,-1,-3
1528439770117151,-1,-1,0,-2,-1,0,-1,-2
1528439770139097,-1,-1,-1,-1,-1,-2,-1,-1
1528439770139097,-2,-1,-3,-1,-1,-2,-2,0
1528439770139097,0,-3,-1,-2,0,-2,-1,1
1528439770139097,-1,-1,-2,0,-1,0,-2,-1
1528439770153436,0,-1,-1,-1,-1,0,-1,-2
1528439770153436,0,-3,1,0,-1,-2,-1,-1
1528439770161169,-1,0,-1,-1,-2,-1,-2,-1
1528439770161169,0,-2,0,-1,0,-1,-2,0
1528439770176136,1,-1,0,-2,-1,-2,1,-3
1528439770176136,-1,-1,-1,-3,0,-2,-2,-1
1528439770177127,-2,-1,1,-1,0,0,0,-1
1528439770177127,-1,-1,-1,-1,-1,-2,-1,0
1528439770199071,-1,-1,0,-1,-2,-1,-1,-1
1528439770199071,1,-1,-1,0,-3,-2,-2,-2
1528439770200073,-1,-2,-1,-1,1,-2,0,-1
1528439770200073,-2,0,-1,-1,-3,0,-1,-1
1528439770213283,1,-1,-2,-3,-1,-1,0,-1
1528439770213283,-1,-1,-2,-1,-2,0,-1,2
1528439770221387,-2,-1,-1,-1,-1,-2,-3,0
1528439770221387,1,-1,-1,0,-2,-3,0,0
1528439770236367,-3,0,-1,-2,0,-2,-1,-1
1528439770236367,-1,-1,0,-2,-2,-1,-1,0
1528439770237102,-3,-2,-3,1,-1,-1,-2,-2
1528439770237102,-1,0,-1,-2,-1,-1,0,0
1528439770259294,1,0,-2,0,0,-1,-2,-2
1528439770259294,-1,-3,-2,-1,-1,0,-3,-2
1528439770260289,-1,-1,-2,-1,0,-2,-1,-1
1528439770260289,-2,-2,-1,0,-1,0,-2,-1
1528439770273006,0,-2,-1,0,-1,-1,-2,-2
1528439770273006,0,0,-2,-2,-1,-1,-2,-1
1528439770280985,0,0,0,-1,-3,0,0,-1
1528439770280985,0,-2,-2,-1,-3,-1,0,-1
1528439770296148,-2,0,-2,-3,0,-1,-1,2
1528439770296148,-2,-1,-1,0,0,-2,-1,-3
1528439770296947,-1,0,-1,-1,-1,0,-1,0
1528439770296947,-3,0,-1,-2,0,0,0,-1
1528439770319097,-1,-1,-1,0,-2,-1,0,1
1528439770319097,-3,0,-2,-3,-1,-2,-2,-1
1528439770319880,0,2,-2,-1,0,-1,-1,-1
1528439770319880,-1,0,-2,-1,-1,-1,0,-2
1528439770332847,-1,0,-1,0,-2,-1,0,0
1528439770332847,-2,-1,1,-1,0,0,0,0
1528439770341822,-2,-3,-1,-1,0,-1,0,-1
1528439770341822,-3,-2,0,-3,-1,-2,-1,-2
1528439770356785,-3,-2,-1,0,-1,-1,-1,-1
1528439770356785,0,0,-2,-1,0,-2,-2,-2
1528439770356785,-2,-2,-2,0,-3,1,-1,0
1528439770356785,0,-1,-1,-3,-1,0,-2,-1
1528439770378723,-1,-1,0,-3,-3,-1,-1,-1
1528439770378723,-2,0,0,0,-1,-2,1,-1
1528439770379720,-1,0,0,2,0,-3,-1,0
1528439770379720,0,-2,-2,0,-2,-3,0,-1
1528439770393685,-3,-2,1,0,-1,-1,-2,-1
1528439770393685,-1,-2,-3,-1,0,1,-2,-1
1528439770401663,0,-2,0,-2,0,-1,-2,-1
1528439770401663,-1,-1,0,1,-1,-2,-2,-1
1528439770416623,-3,-1,-1,-1,0,0,-1,-2
1528439770416623,0,0,0,0,-2,-1,-1,0
1528439770417620,-2,-1,-1,0,-1,0,-1,0
1528439770417620,-1,-1,-2,1,-2,1,0,0
1528439770438564,0,0,-1,0,0,-1,-3,0
1528439770438564,-1,-2,-1,-3,-2,-1,-3,-1
1528439770439563,0,0,0,-1,0,0,0,-2
1528439770439563,0,-1,-1,-2,-1,-2,-2,-3
1528439770453524,-2,-1,-2,0,0,0,1,-3
1528439770453524,-1,0,0,0,-2,0,-1,-2
1528439770461503,-2,-1,0,-2,-2,0,0,-1
1528439770461503,0,1,-1,-2,-1,-1,-1,0
1528439770476463,0,-3,-1,-2,-2,0,0,-2
1528439770476463,-1,-1,0,-1,-2,-1,-1,-1
1528439770477460,0,0,0,-1,0,-2,-1,-2
1528439770477460,0,-1,-1,-1,0,0,-2,-1
1528439770498403,0,-1,1,-1,0,-1,-3,-1
1528439770498403,-2,-2,-1,0,-2,-2,-1,-2
1528439770499400,1,-2,0,-2,-3,1,-2,-1
1528439770499400,-1,-1,-1,-2,-1,0,-1,0
1528439770513364,0,-2,-1,1,0,0,-2,-2
1528439770513364,0,1,0,-2,1,-1,-1,-1
1528439770521342,-1,-2,1,-1,0,-3,-1,-1
1528439770521342,-2,-1,0,-3,0,-2,-3,-2
1528439770536304,-2,0,-1,-2,-1,-2,-1,0
1528439770536304,-1,0,-1,-3,-1,-1,0,-1
1528439770537300,-2,-1,-1,-2,0,-1,-1,-2
1528439770537300,-1,-1,0,0,-2,-1,0,-2
1528439770559296,-1,-1,0,-1,-1,-2,-1,0
1528439770559296,-1,-1,-1,1,0,0,-1,1
1528439770559296,-1,-1,-2,-1,-1,0,-1,-1
1528439770559296,-2,-2,1,1,0,-2,0,-1
1528439770573204,-1,0,-3,0,-2,-1,1,-1
1528439770573204,-2,-1,-1,-1,-2,0,-1,0
1528439770581236,-2,-1,-2,-2,0,0,-2,-2
1528439770581236,-1,-1,0,-2,-1,-1,-2,-2
1528439770596202,-1,-1,0,-4,-2,-1,-1,0
1528439770596202,-2,-1,-2,-3,0,-1,-2,0
1528439770597140,-1,-1,-1,-2,-1,-1,-1,0
1528439770597140,-1,-1,-1,-2,0,0,0,-2
1528439770619136,-1,0,0,-1,0,1,-1,-2
1528439770619136,1,-1,-1,0,-1,0,0,0
1528439770620136,-4,0,-2,-1,0,-1,0,1
1528439770620136,0,-2,-1,-2,-2,-2,0,0
1528439770633099,-1,0,-2,0,0,-1,-1,0
1528439770633099,-1,-1,-1,0,0,-1,0,-2
1528439770641024,0,0,0,0,-1,1,-2,-2
1528439770641024,1,-1,-2,0,0,-2,-2,0
1528439770655984,1,1,0,-2,-1,-1,0,0
1528439770655984,-1,-1,0,0,0,-2,-2,-2
1528439770656980,-1,-2,0,-3,-2,-2,-1,-1
1528439770656980,-2,0,-3,0,-2,-2,-1,-2
1528439770678924,0,-1,-2,0,-2,-1,0,-3
1528439770678924,0,0,-2,-1,0,-1,0,-2
1528439770679919,-2,0,-1,0,0,0,-1,-2
1528439770679919,-1,-2,-2,0,-2,1,-1,-1
1528439770693404,0,0,-2,1,0,-2,-1,-1
1528439770693404,0,-2,-2,0,-1,0,0,-2
1528439770702024,-2,0,0,0,-1,-1,-1,-1
1528439770702024,-2,0,0,-2,-2,0,-3,-2
1528439770717120,0,-1,-1,0,-2,-2,0,-3
1528439770717120,0,0,-1,1,-1,-3,-2,0
1528439770717120,0,0,0,1,-2,-1,-2,-2
1528439770717120,-2,1,-2,1,0,0,-1,-1
