timestamp,emg1,emg2,emg3,emg4,emg5,emg6,emg7,emg8
1529296138280996,-2,0,-1,-1,0,0,-1,0
1529296138280996,0,-2,-1,-2,-1,-1,1,0
1529296138286997,-1,1,0,0,0,-1,0,0
1529296138286997,-1,-1,0,-1,-2,-1,-2,-1
1529296138286997,1,-1,0,0,0,0,-1,0
1529296138286997,-1,-1,1,0,-1,-1,1,0
1529296138289974,-2,-1,0,-2,-3,-1,-2,-1
1529296138289974,2,1,0,0,0,-1,-1,0
1529296138299946,0,-1,0,1,0,0,-1,0
1529296138299946,0,-2,-1,-2,0,0,-1,-1
1529296138311914,-1,0,-1,0,0,1,0,-1
1529296138311914,0,0,-1,-2,1,-1,-2,-2
1529296138314906,-1,-2,-2,0,-1,0,0,-2
1529296138314906,-1,0,-1,0,-1,-2,-2,-3
1529296138331860,2,-1,-1,-1,1,-2,-1,-1
1529296138331860,-1,-2,1,-2,0,0,0,0
1529296138339841,0,1,-1,-1,1,-2,-1,-2
1529296138339841,0,0,0,0,0,0,-1,0
1529296138345825,-2,-1,-2,0,-1,0,-1,0
1529296138345825,-1,0,0,1,-1,-1,0,0
1529296138359787,0,-1,-2,-1,0,-1,0,0
1529296138359787,1,1,-3,0,-2,-2,-2,1
1529296138369760,0,-3,0,-1,-1,-1,-1,-1
1529296138369760,-2,0,-1,-2,-2,0,-1,-1
1529296138398682,0,-2,0,-1,-1,-1,1,0
1529296138398682,1,0,0,0,-1,0,0,1
1529296138406661,-1,-1,0,-2,1,-1,0,0
1529296138406661,-1,-1,1,0,-1,-1,-2,-1
1529296138407658,-1,0,0,-1,-1,0,0,-2
1529296138407658,-1,0,-1,-1,-1,-1,-1,-1
1529296138409653,-1,-3,-1,0,-1,-1,0,-3
1529296138409653,0,-1,-1,-1,2,-1,-1,-1
1529296138419627,1,-1,-1,-1,-1,0,-2,-1
1529296138419627,-1,-2,0,-1,0,1,-1,-1
1529296138429600,-2,0,-2,0,-2,1,0,-1
1529296138429600,-1,1,-1,-1,1,0,2,1
1529296138434587,0,0,-1,1,1,-1,-3,-1
1529296138434587,2,1,-2,-1,-2,-2,-1,-2
1529296138449547,-3,1,5,1,3,1,0,-1
1529296138449547,-4,-3,-3,-4,-2,0,0,-2
1529296138456526,-3,-2,-2,-4,-6,-6,-1,1
1529296138456526,4,0,-4,-3,-2,-2,-1,1
1529296138473483,0,-1,-2,1,-2,-3,-1,0
1529296138473483,3,-2,0,-1,0,3,0,0
1529296138480463,-1,1,0,3,2,2,2,0
1529296138480463,-3,-2,2,-1,0,-2,-1,-3
1529296138488442,2,0,0,-2,1,-1,0,-1
1529296138488442,0,1,1,0,-1,0,-1,-1
1529296138494464,-2,-2,-2,0,-1,-1,-1,1
1529296138494464,-2,-1,1,1,0,0,0,-1
1529296138509386,0,0,-1,1,1,1,-2,0
1529296138509386,-1,0,-1,1,-2,-3,0,0
1529296138517397,1,0,-1,-2,2,-1,0,-1
1529296138517397,1,1,0,0,1,0,-1,-1
1529296138526340,-1,0,-2,-2,0,-1,-1,-3
1529296138526340,1,1,-3,-1,-1,-1,-2,-2
1529296138539346,0,-1,-2,0,-1,-1,-2,-2
1529296138539346,-3,-1,-1,-1,-2,0,1,0
1529296138548282,0,-1,-3,-2,-1,-1,0,-2
1529296138548282,0,0,-1,0,-1,-1,0,-1
1529296138554265,-1,1,2,0,0,0,-1,-2
1529296138554265,0,-3,-2,2,1,-1,-2,2
1529296138569225,1,0,0,-2,-2,-1,-1,0
1529296138569225,-4,-3,0,2,-1,-2,-2,0
1529296138577230,0,0,0,0,0,-1,0,-1
1529296138577230,0,-1,-1,1,-1,1,0,-1
1529296138586181,-1,-1,0,-1,0,0,-1,-1
1529296138586181,-1,0,0,0,-1,-2,0,0
1529296138599145,0,-1,-1,0,-1,-1,-1,-2
1529296138599145,-1,-2,-1,-2,0,-2,0,0
1529296138608121,-1,-4,-1,-1,-1,-2,-1,0
1529296138608121,0,0,0,-3,-1,-1,-1,-2
1529296138614106,-2,0,0,-1,0,-1,-1,-2
1529296138614106,0,-2,0,1,-1,-1,1,-2
1529296138629067,-1,-2,-1,2,-1,-1,-2,1
1529296138629067,-1,-2,-1,0,0,1,-1,-1
1529296138637083,1,0,0,-1,-1,0,0,1
1529296138637083,1,1,-1,0,0,-2,-1,-1
1529296138646020,0,1,-1,-1,0,-2,1,0
1529296138646020,1,0,0,0,0,-1,-1,0
1529296138658985,-2,-1,-3,-1,1,-1,0,0
1529296138658985,-2,0,2,-1,-1,1,-1,0
1529296138668959,0,1,-1,-1,0,1,-1,-1
1529296138668959,-3,-2,0,0,0,-1,0,0
1529296138673945,1,0,-1,0,0,-1,-1,-1
1529296138673945,0,0,0,-1,0,-1,-2,-2
1529296138688905,-2,0,0,0,-1,0,0,-2
1529296138688905,2,0,-1,-1,0,0,-1,-1
1529296138696884,-1,-1,-1,1,-1,-2,-1,-1
1529296138696884,-1,0,-2,0,0,-1,-1,1
1529296138705861,1,0,1,1,-1,0,-1,-1
1529296138705861,0,0,-1,0,1,-2,-1,0
1529296138719857,0,-1,0,0,-1,0,-1,-1
1529296138719857,-1,-2,-1,-2,1,0,-1,0
1529296138728837,0,-3,0,-1,-1,-1,0,-1
1529296138728837,0,-1,-1,-1,-2,1,1,0
1529296138742799,0,-2,-1,-1,0,-1,0,-2
1529296138742799,-1,1,0,0,-1,-1,-1,-1
1529296138749743,1,-2,-1,-2,-1,-1,-1,0
1529296138749743,-1,0,0,-1,0,-1,-1,-2
1529296138756726,-2,0,0,0,0,1,0,0
1529296138756726,-1,0,0,-1,-2,0,-2,-2
1529296138771724,-2,0,0,0,1,0,-1,0
1529296138771724,-2,-1,-1,0,-3,-1,-3,1
1529296138779700,0,-1,0,-1,-1,-1,-1,-1
1529296138779700,-3,1,1,-1,0,-1,-1,-2
1529296138788641,0,0,-1,-1,0,-2,1,-1
1529296138788641,0,-1,-1,-1,0,-2,0,-1
1529296138794624,0,1,-3,-1,0,0,-1,0
1529296138794624,0,2,-1,-1,1,0,0,-1
1529296138809621,-1,-2,-1,0,-1,0,-1,-1
1529296138809621,0,1,0,0,1,0,0,0
1529296138816617,-1,1,0,-1,-2,-1,0,-1
1529296138816617,-3,-3,-1,0,-2,-1,-1,-1
1529296138833520,1,0,-1,0,-1,1,-1,0
1529296138833520,1,0,-1,-2,0,-1,1,0
1529296138839530,-1,-2,1,0,0,-1,-1,1
1529296138839530,0,-1,-1,-2,0,-1,-1,2
1529296138848481,-3,-1,0,-1,0,-1,-1,-1
1529296138848481,0,-2,-1,0,0,1,0,-1
1529296138854464,-1,0,1,-2,-1,-1,1,1
1529296138854464,1,-1,0,0,0,-1,-1,-1
1529296138869425,-1,-2,0,0,0,-2,-2,1
1529296138869425,-1,0,-1,0,-1,0,0,-1
1529296138876404,0,1,-1,0,-2,-1,-3,-1
1529296138876404,-1,0,-1,0,-1,-1,-1,-2
1529296138892363,0,2,-2,0,-2,-1,0,0
1529296138892363,-1,-2,1,-2,-1,-1,-1,0
1529296138899343,-1,0,0,-1,0,1,-1,-1
1529296138899343,-1,-2,-2,0,-1,0,-1,0
1529296138908319,-1,-1,-2,-1,0,-1,-1,-2
1529296138908319,-2,-1,-1,-1,-2,-1,-2,-1
1529296138914303,-1,0,-1,-2,0,0,-2,-1
1529296138914303,1,1,1,-1,0,-2,-1,-1
1529296138929264,0,-1,0,0,-2,-1,-1,0
1529296138929264,0,0,-1,0,-2,-1,-1,0
1529296138937244,0,0,-1,0,-1,-2,0,0
1529296138937244,1,-2,-2,0,-1,-1,-1,-1
1529296138952201,-1,0,-2,-2,0,-1,-1,-1
1529296138952201,0,-1,-2,0,-1,0,0,-1
1529296138959183,0,-1,-1,-1,-1,0,-1,-3
1529296138959183,-3,-1,-2,-1,-1,0,-1,-1
1529296138968179,-1,0,0,0,0,-1,-1,-2
1529296138968179,0,0,-1,1,0,0,-2,-1
1529296138974144,0,-1,-3,-1,0,-1,-3,-1
1529296138974144,1,-2,2,0,-1,-2,1,0
1529296138990173,0,0,1,-1,-2,0,0,-2
1529296138990173,1,0,1,1,-1,-2,-1,-1
1529296138997127,0,0,1,0,0,0,-1,1
1529296138997127,-2,1,-1,-1,0,0,-2,-2
1529296139012042,0,-1,-1,-2,1,0,-3,-1
1529296139012042,-2,-1,-2,-1,0,0,0,-1
1529296139020059,1,-2,-3,0,-1,-2,1,1
1529296139020059,0,0,-1,-2,0,0,0,-1
1529296139028601,-1,-2,-1,-1,-1,-1,0,-1
1529296139028601,-1,-1,2,0,0,-1,-1,-1
1529296139034586,-2,0,1,-2,-1,-1,1,-2
1529296139034586,-1,-1,0,0,-2,0,1,0
1529296139049605,-1,-1,0,-2,0,-1,-1,1
1529296139049605,-1,0,-2,-1,0,0,0,0
1529296139056530,0,0,-1,-1,-1,1,-2,-2
1529296139056530,-1,-1,0,1,-2,-2,-1,-1
1529296139071486,0,0,0,-1,0,1,0,1
1529296139071486,-1,-1,-2,-1,-1,0,-2,2
1529296139079501,0,-1,0,0,0,-2,-1,0
1529296139079501,0,1,-1,-2,-1,1,-2,-1
1529296139089438,-2,0,-1,0,0,0,0,-2
1529296139089438,0,0,0,-2,1,1,2,-1
1529296139102404,1,-1,0,1,-2,0,-1,-1
1529296139102404,0,-2,-1,-1,-1,-4,-7,-1
1529296139109384,0,1,-1,-1,0,-1,-2,-1
1529296139109384,-1,-1,-2,-1,0,-1,-1,-3
1529296139117364,0,0,-1,-1,-2,1,1,1
1529296139117364,0,-1,0,1,0,0,0,-2
1529296139132346,1,-1,0,-1,0,0,0,-1
1529296139132346,0,-1,-3,0,13,1,0,2
1529296139139306,-2,-2,-1,-2,-17,1,12,0
1529296139139306,0,1,-1,1,8,-1,-14,-2
1529296139148281,-2,1,-1,-3,-18,-6,-2,1
1529296139148281,1,-3,0,-1,4,2,0,-1
1529296139162244,-1,0,0,-1,4,-1,-1,0
1529296139162244,-1,-1,-2,-2,-3,1,6,2
1529296139171218,-1,0,0,1,6,0,0,-1
1529296139171218,1,1,1,0,-4,-1,-1,1
1529296139177203,-2,1,0,0,2,-3,-8,1
1529296139177203,3,-3,-2,-2,0,-3,1,2
1529296139200197,10,2,0,-1,4,-1,2,22
1529296139200197,-7,-1,-1,-3,-11,-1,1,-11
1529296139201140,-12,-4,-1,0,6,3,-4,-12
1529296139201140,-4,-2,0,-2,-3,-1,-1,-8
1529296139208406,1,-2,0,0,7,2,2,13
1529296139208406,4,0,0,-3,-2,-2,1,4
1529296139222592,3,1,3,1,-1,-1,-5,-2
1529296139222592,1,1,-1,-1,2,1,2,-1
1529296139229590,-1,-1,-1,1,-3,1,2,-4
1529296139229590,-1,-3,1,-1,-2,-3,-1,5
1529296139237375,0,-4,-12,-7,-6,-10,-10,-3
1529296139237375,-2,-2,-7,-1,-6,2,2,-1
1529296139252288,0,5,2,-3,-13,-3,-1,-3
1529296139252288,-6,-1,4,-1,-16,18,6,-5
1529296139259268,4,6,15,14,30,-22,-5,0
1529296139259268,4,1,5,14,-9,13,3,6
1529296139268257,-2,-1,-4,-10,0,6,-4,-9
1529296139268257,-4,0,6,5,-22,-20,-10,-7
1529296139282211,-2,-4,-11,-20,-10,7,3,4
1529296139282211,-3,-3,-1,2,4,-3,1,2
1529296139291183,-4,-3,0,2,13,1,0,-9
1529296139291183,2,-1,-4,4,-4,-2,-2,1
1529296139297166,5,4,-6,2,-3,7,6,5
1529296139297166,-2,1,6,3,7,5,-9,-2
1529296139312179,-7,-1,9,-2,-16,0,-3,-8
1529296139312179,-3,-7,-4,0,6,-14,-5,0
1529296139319110,-3,-14,-11,-3,-7,-3,3,-5
1529296139319110,9,16,-9,-4,3,5,6,6
1529296139328101,2,2,29,18,4,0,-3,-1
1529296139328101,0,12,15,4,11,8,4,-1
1529296139342048,-1,-6,10,4,-4,-3,-12,-5
1529296139342048,-7,-7,-13,-13,-10,-11,3,-5
1529296139351024,-6,-14,-18,-13,0,-3,-5,-7
1529296139351024,5,-7,-14,-1,4,0,2,2
1529296139357007,3,13,1,-6,-2,7,1,-1
1529296139357007,4,-2,1,-2,5,-1,-3,5
1529296139371967,2,0,2,6,3,0,9,0
1529296139371967,-5,-1,10,12,4,3,-2,-3
1529296139378949,-8,0,15,1,-6,-4,-8,-5
1529296139378949,-3,-12,-14,0,3,-3,-1,-3
1529296139394905,6,13,-5,1,4,3,-6,4
1529296139394905,1,2,-1,-7,0,-1,5,3
1529296139401886,-2,-5,1,4,1,3,19,-1
1529296139401886,-4,0,-12,-6,-5,-7,-5,-4
1529296139417843,-2,-9,13,-6,-4,-1,-3,-3
1529296139417843,-10,-3,-18,18,6,1,-8,-6
1529296139418841,6,6,-7,-9,7,7,8,8
1529296139418841,-2,-3,13,-22,-5,-2,0,-4
1529296139431806,-8,-10,-18,-32,-4,-1,0,-1
1529296139431806,16,9,18,-8,-3,1,-1,8
1529296139439784,8,1,3,20,1,5,21,7
1529296139439784,-12,-1,-3,9,-1,-9,-17,-13
1529296139454745,-17,-8,-18,-4,-5,-8,-8,-11
1529296139454745,-10,-19,-26,-5,3,0,-3,-8
1529296139461726,6,10,15,1,4,3,-4,2
1529296139461726,16,17,19,20,5,6,8,12
1529296139477683,7,19,21,12,1,-1,4,3
1529296139477683,-6,-12,-1,-7,-2,-1,0,-3
1529296139478681,2,-8,-41,-59,-11,-4,-10,2
1529296139478681,-2,-9,-29,25,4,3,6,0
1529296139491646,4,12,30,9,3,1,3,6
1529296139491646,3,11,13,35,9,2,-1,3
1529296139499625,5,3,20,-1,-1,-4,-7,2
1529296139499625,-9,1,-2,-23,-2,-3,-8,-6
1529296139514585,-1,-15,-35,16,-2,2,4,-2
1529296139514585,1,-8,-5,-6,1,1,1,-1
1529296139521566,-1,6,16,9,-4,-3,-5,-3
1529296139521566,0,-6,-1,-27,-7,2,12,4
1529296139537551,2,-4,-6,-5,4,-4,-24,-6
1529296139537551,-3,-6,-20,-14,-6,-4,-4,-1
1529296139538561,-7,-2,18,44,2,3,-1,-5
1529296139538561,10,14,21,4,3,2,-2,8
1529296139551487,15,29,24,4,2,8,18,8
1529296139551487,-3,3,15,-28,-5,-5,-2,-3
1529296139559466,-14,-23,-30,-8,2,-1,-3,-7
1529296139559466,-6,-6,9,9,-5,-1,0,-3
1529296139575189,0,-6,-9,35,3,-3,-1,0
1529296139575189,2,6,-11,-37,-2,4,10,8
1529296139582319,1,5,5,0,-2,-5,-22,-3
1529296139582319,-1,-1,1,1,1,-3,-2,-3
1529296139598220,-1,-6,-5,0,-3,-2,2,-3
1529296139598220,-1,-1,-6,-12,-13,-2,-3,-1
1529296139598220,4,1,1,4,10,2,-2,0
1529296139598220,-2,-3,-1,0,5,0,0,-2
1529296139611971,-5,-14,-17,-11,-2,-6,-11,-3
1529296139611971,2,-4,-15,-23,-6,0,7,3
1529296139619950,0,1,8,32,-2,3,-9,-3
1529296139619950,3,14,18,24,4,0,2,1
1529296139635275,4,4,-5,-20,-4,2,9,3
1529296139635275,-2,-11,6,-13,1,-2,-6,-2
1529296139641888,-10,-3,-12,-4,5,0,-2,-4
1529296139641888,-3,-7,-1,3,3,6,7,-1
1529296139657846,-7,-6,-7,-11,-3,-6,-3,-2
1529296139657846,-1,0,2,37,-1,-1,-16,-5
1529296139658893,7,6,0,-39,-5,-2,0,2
1529296139658893,2,-8,-6,-6,8,5,18,-2
1529296139671812,1,-3,0,-1,0,-7,-31,6
1529296139671812,2,2,4,17,-10,0,6,0
1529296139680016,-1,0,-1,-5,-1,0,10,10
1529296139680016,2,4,9,21,5,-2,-3,3
1529296139695241,-2,1,-3,-6,11,6,17,0
1529296139695241,2,6,5,4,6,-3,-9,-5
1529296139702387,-8,-7,-6,2,0,0,1,-3
1529296139702387,-1,-6,-10,-18,-10,-5,-4,-1
1529296139717992,-7,-6,-4,-7,-1,0,-4,-4
1529296139717992,4,9,9,16,5,-8,-5,1
1529296139717992,-1,-1,-6,25,15,5,5,-3
1529296139717992,-3,3,-2,-18,-16,-5,-3,-2
1529296139732268,-8,-6,1,-8,-12,0,8,-6
1529296139732268,-5,-6,-9,-15,-5,8,23,2
1529296139739285,4,-1,-7,-3,-3,-7,-15,-3
1529296139739285,3,10,9,23,18,4,-6,0
1529296139756203,5,-1,-2,-10,-16,0,5,0
1529296139756203,-2,3,9,-1,0,3,12,2
1529296139762190,14,-1,-9,-13,-5,-12,-24,0
1529296139762190,-21,-7,-7,16,-5,3,20,7
1529296139778391,4,5,4,-16,12,-6,-16,-6
1529296139778391,-3,-7,-2,8,-9,-4,-16,-4
1529296139778391,-4,-5,-3,-6,-18,-2,-8,-6
1529296139778391,6,0,-20,-16,-4,-3,-12,-1
1529296139792107,7,7,15,19,5,-4,7,5
1529296139792107,-1,-1,5,10,14,1,6,4
1529296139799115,1,5,-7,8,-3,6,18,4
1529296139799115,1,-4,10,-29,0,-2,-5,-6
1529296139814050,-7,-3,-28,-8,16,6,15,3
1529296139814050,5,8,22,2,-17,-7,-22,-4
1529296139822344,0,1,6,-6,-6,-10,-16,2
1529296139822344,2,-6,1,1,-4,6,1,-11
1529296139838372,2,-8,-9,4,3,4,17,47
1529296139838372,-6,-7,-18,0,2,1,-4,-34
1529296139838372,-20,9,16,-12,-9,0,-8,-3
1529296139838372,-4,0,6,36,-5,-6,1,-6
1529296139852229,-4,-5,-8,-34,-12,-3,-12,-12
1529296139852229,11,3,-13,19,27,5,9,15
1529296139859582,1,7,31,27,12,4,14,0
1529296139859582,4,-3,-12,-6,-4,-5,-6,6
1529296139875228,-1,2,8,-8,-23,0,-1,-11
1529296139875228,-6,-10,-14,0,-13,-7,1,1
1529296139882412,5,-2,-12,-31,7,5,14,-4
1529296139882412,-3,6,16,-1,7,0,-8,5
1529296139897455,0,4,9,20,13,5,8,8
1529296139897455,1,4,4,-9,-15,-2,2,-11
1529296139898411,-8,-7,-5,21,17,0,-12,3
1529296139898411,0,-7,-9,-34,-33,-9,0,-1
1529296139912643,1,-2,0,17,12,6,-11,-9
1529296139912643,1,11,10,7,8,-1,14,12
1529296139919354,3,-2,-6,-22,-14,1,18,5
1529296139919354,-1,1,1,-6,3,-6,-34,-7
1529296139934360,-3,-2,4,43,19,-5,10,-10
1529296139934360,-3,-2,-10,-18,21,6,0,7
1529296139942540,2,-4,-2,-3,-27,-6,-4,-2
1529296139942540,0,5,4,-3,1,5,15,3
1529296139957937,0,0,5,-12,-3,5,8,-3
1529296139957937,-7,-5,-5,1,-7,-11,-44,-6
1529296139958556,0,-2,-9,-4,-1,-2,8,1
1529296139958556,-2,-4,-17,-6,4,3,2,2
1529296139972638,1,4,18,41,-10,-5,-10,-5
1529296139972638,0,4,-6,-49,2,6,17,3
1529296139979763,8,-1,10,10,10,3,12,5
1529296139979763,-14,-11,-17,-33,-6,-11,-25,-6
1529296139994723,2,-1,4,11,5,0,-5,-5
1529296139994723,-4,14,14,30,2,5,12,1
1529296140002438,-6,-5,-6,-23,7,6,7,-2
1529296140002438,5,1,20,35,7,1,14,6
1529296140017397,-6,-7,-25,-62,-42,-14,-13,-6
1529296140017397,-1,-12,0,11,-7,-6,-4,0
1529296140025376,-4,-8,-18,21,6,-1,1,-2
1529296140025376,7,10,4,-3,5,5,8,4
1529296140032697,4,12,21,12,14,5,5,3
1529296140032697,1,-1,-3,-3,-17,1,-1,2
1529296140039340,-6,2,7,16,19,0,-2,-4
1529296140039340,-1,-9,-11,-12,-32,0,4,-2
1529296140054516,-1,-3,-12,-4,-6,-5,-15,-6
1529296140054516,-3,-1,10,1,21,-4,-10,3
1529296140062759,7,0,-5,-18,-8,-5,-5,-3
1529296140062759,-8,-8,-5,19,4,2,7,-2
1529296140077268,4,6,2,10,-7,-1,3,-4
1529296140077268,3,2,-4,-19,-1,2,2,0
1529296140085630,-14,3,5,1,-3,1,-2,-6
1529296140085630,6,-1,6,1,15,7,19,7
1529296140092211,-4,-9,-6,8,-6,-2,-7,0
1529296140092211,2,-10,-5,6,7,-1,-11,2
1529296140100003,0,3,-9,-15,-4,-5,-1,0
1529296140100003,4,5,18,29,4,5,4,0
1529296140115161,-8,-6,-13,-38,12,3,4,1
1529296140115161,7,14,15,9,2,-2,-1,4
1529296140121605,2,-1,2,-4,-13,-2,2,-1
1529296140121605,-2,-1,-7,17,8,-6,-19,-4
1529296140136862,-1,-1,3,-6,-22,0,8,3
1529296140136862,5,-3,-6,-8,12,-2,-12,-4
1529296140153965,-2,4,6,1,-7,0,3,1
1529296140153965,-2,-1,0,-4,-1,-3,-6,-3
1529296140154814,-2,-5,-11,5,5,-1,-2,-4
1529296140154814,0,-4,-5,-13,-6,-6,1,0
1529296140160072,4,1,5,29,16,3,-1,4
1529296140160072,-2,-5,-4,-15,3,-6,-9,-3
1529296140175235,-1,3,5,-27,11,1,3,-1
1529296140175235,-2,-3,-2,28,-10,8,19,3
1529296140183389,-1,-4,0,-15,-10,-5,-20,-6
1529296140183389,-8,-7,-13,-25,-5,-11,-11,-5
1529296140197003,-2,2,-2,15,2,4,6,2
1529296140197003,-3,9,14,7,25,6,3,-1
1529296140205547,3,0,8,11,-4,10,11,2
1529296140205547,-4,-5,-4,-14,-1,-8,-10,-3
1529296140220238,-3,-4,-1,21,6,-3,-5,-4
1529296140220238,5,0,-14,-19,-16,1,6,-1
1529296140221236,13,5,7,18,22,5,16,8
1529296140221236,-19,0,5,5,-2,5,-16,-5
1529296140235232,-2,-1,-11,-18,-11,0,3,3
1529296140235232,2,-2,2,1,-8,-5,-4,-10
1529296140250855,-15,-3,-4,2,-5,-5,5,0
1529296140250855,10,4,0,8,10,5,10,7
1529296140257798,5,1,5,14,-19,-9,-20,-8
1529296140257798,6,-5,-2,-2,36,17,6,0
1529296140265686,-17,-4,-6,-4,-34,-16,-1,1
1529296140265686,7,3,-7,-4,10,2,9,4
1529296140280385,-6,-5,6,-8,4,3,15,7
1529296140280385,-2,-2,-1,10,3,-7,-19,-12
1529296140281621,7,0,1,7,2,4,3,1
1529296140281621,-5,-1,-1,-1,5,8,6,-6
1529296140294588,18,-3,-13,-6,-15,-8,-1,-18
1529296140294588,-16,3,6,-10,0,2,9,16
1529296140302566,14,4,9,18,9,2,6,19
1529296140302566,-22,2,1,-7,-10,-8,-25,-12
1529296140317323,-13,0,1,1,16,5,0,5
1529296140317323,2,0,-2,0,-21,-10,-2,2
1529296140333296,-4,-2,-4,10,8,-1,-7,-12
1529296140333296,26,-1,-6,-22,8,-2,10,8
1529296140340227,2,-1,1,9,8,0,2,3
1529296140340227,-9,-3,-4,-17,-28,0,3,0
1529296140341224,-1,-3,-6,-39,-15,16,4,0
1529296140341224,5,-4,-3,4,9,2,3,-1
1529296140355233,-2,-2,-4,15,-2,-15,-12,-7
1529296140355233,0,2,-1,-17,-42,7,14,4
1529296140361472,9,4,5,34,34,-13,-33,-5
1529296140361472,-10,-8,-8,-34,-15,-3,3,-1
1529296140376433,-11,-6,-2,11,10,0,-2,-3
1529296140376433,11,1,-21,-23,4,6,3,-1
1529296140385756,3,17,38,7,-1,2,4,-6
1529296140385756,0,2,2,12,-6,2,6,5
1529296140400713,-6,6,13,4,6,-1,1,-2
1529296140400713,0,-8,-4,2,5,-10,-11,18
1529296140401377,-10,-12,-23,-1,-1,6,23,15
1529296140401377,33,3,-2,-1,-3,-14,-46,-14
1529296140414696,-31,7,15,33,7,4,5,-8
1529296140414696,1,-2,-10,-32,4,-2,0,-11
1529296140423038,-10,-5,-8,-21,-21,0,-6,-3
1529296140423038,9,1,7,14,10,3,16,8
1529296140437650,4,-3,-11,-5,-20,5,2,-1
1529296140437650,-4,0,12,17,7,-8,-11,-5
1529296140445797,-3,-3,-5,10,4,-4,0,-2
1529296140445797,-6,-2,-2,-6,0,7,9,-1
1529296140460728,12,-3,4,-3,11,7,1,10
1529296140460728,-7,9,11,8,-12,-3,-12,-4
1529296140461376,6,-7,-13,-22,-9,-6,-4,-4
1529296140461376,-9,0,2,14,-5,-5,6,-3
1529296140483933,1,2,0,-17,-8,-2,-3,7
1529296140483933,-1,0,4,11,4,1,6,-5
1529296140483933,0,-3,-6,1,6,-2,-3,-4
1529296140483933,-1,11,8,0,-5,2,3,2
1529296140496620,5,0,2,-11,4,-5,0,0
1529296140496620,2,-5,-1,11,6,3,5,-4
1529296140505842,-2,0,-2,-3,-13,-3,-4,-5
1529296140505842,-7,-1,1,4,11,2,10,5
1529296140520549,10,0,-4,-6,3,3,2,0
1529296140520549,-1,-3,-4,-11,-13,-6,1,-4
1529296140520549,-3,-2,-2,7,1,0,-3,2
1529296140520549,0,1,5,16,0,1,2,-1
1529296140535238,2,1,-2,-20,5,-2,-3,-2
1529296140535238,-2,-1,-1,8,-9,-1,5,-1
1529296140543077,6,-5,-6,-15,-1,1,5,-2
1529296140543077,-11,-2,-4,2,-8,-1,1,-2
1529296140557277,3,2,3,-2,-1,-3,-7,1
1529296140557277,-4,-2,-3,2,10,4,8,2
1529296140565019,3,-1,-3,-10,2,-1,-2,-1
1529296140565019,-1,-4,0,0,-6,1,2,1
1529296140588007,3,0,-7,-9,1,0,5,1
1529296140588007,2,3,13,22,5,-3,-4,0
1529296140588959,-3,-3,-7,-2,0,0,0,-3
1529296140588959,0,-1,-2,-1,-5,-1,-2,0
1529296140595222,-5,-6,-18,-12,-4,-4,-5,-2
1529296140595222,3,-2,3,-8,1,-1,-2,0
1529296140602935,-1,3,4,-1,-2,-1,-2,-2
1529296140602935,-3,-1,2,28,4,-1,3,1
1529296140617233,0,-6,-16,-57,-9,1,0,-1
1529296140617233,-4,-8,-25,18,9,1,-3,-5
1529296140625472,8,23,52,14,2,4,2,3
1529296140625472,1,-2,-3,0,0,-4,-1,0
1529296140640433,3,3,13,27,-2,1,8,3
1529296140640433,5,-7,-16,-16,0,-4,-22,-2
1529296140641426,-18,-8,-10,-8,1,2,0,-5
1529296140641426,7,13,13,6,-6,-3,-1,0
1529296140655229,1,1,6,11,6,3,1,2
1529296140655229,-1,-3,-2,-4,-1,1,9,3
1529296140670408,-1,-7,-15,-1,5,-1,-3,-1
1529296140670408,-3,1,5,-9,-4,1,-3,-1
1529296140677294,10,-2,-4,4,0,-1,-2,3
1529296140677294,-24,1,9,3,-2,1,2,-6
1529296140685219,2,-2,-4,-11,-4,-4,-2,-3
1529296140685219,-3,-10,-20,-12,0,0,1,-1
1529296140700746,1,10,16,11,1,0,-2,0
1529296140700746,3,-2,6,15,1,1,3,1
1529296140701292,-1,5,-8,-10,-1,-1,1,-1
1529296140701292,-1,-8,-10,-13,-6,-2,0,-2
1529296140715256,1,3,4,3,-2,2,1,1
1529296140715256,4,2,13,9,6,-8,-3,0
1529296140723405,-3,-8,-8,5,0,-3,-1,-2
1529296140723405,2,1,-8,-24,-7,-1,-1,1
1529296140745683,-3,-7,-5,12,1,1,1,-2
1529296140745683,1,4,-2,-11,0,1,3,1
1529296140746680,3,-4,-3,5,0,-4,-7,-1
1529296140746680,-2,2,9,3,-1,-2,0,-1
1529296140760789,-7,0,2,5,-2,-3,-2,-1
1529296140760789,1,0,1,-5,3,5,5,2
1529296140760789,-1,21,11,-1,-3,-3,0,0
1529296140760789,0,-19,-9,-3,-1,-1,-1,-2
1529296140774850,-4,-8,-4,-4,-3,-3,-3,-2
1529296140774850,4,3,0,0,-4,0,2,1
1529296140782584,-1,-3,-5,-4,-1,0,-1,1
1529296140782584,-4,9,14,9,4,2,1,-2
1529296140796571,-2,4,-7,-2,0,-1,-2,-3
1529296140796571,1,-4,-6,-3,-3,-2,1,-3
1529296140805796,2,0,1,-2,-2,-2,-3,-2
1529296140805796,-1,-10,-10,-6,-3,-1,-2,-1
1529296140820015,0,-6,-3,-4,-1,0,1,0
1529296140820015,1,9,24,24,3,0,1,0
1529296140820790,-4,3,-7,-7,1,-1,0,-2
1529296140820790,-1,-5,-4,-4,-1,-1,-1,0
1529296140835216,-3,-5,-6,0,-4,-1,-1,-2
1529296140835216,-3,1,-4,-8,-2,-1,-1,-1
1529296140843140,0,-3,-3,-1,1,-1,1,1
1529296140843140,1,7,7,5,-1,-2,-1,2
1529296140857343,-1,2,0,-4,-3,-2,1,-1
1529296140857343,-1,-5,-5,-6,-1,-2,-3,-1
1529296140865607,-1,-9,-4,1,-1,0,0,-1
1529296140865607,-1,0,-4,-6,-1,2,1,-1
1529296140879840,0,2,6,4,9,-1,-3,-1
1529296140879840,-2,1,-7,-9,-17,1,1,0
1529296140881672,0,-3,5,5,3,2,1,0
1529296140881672,-5,15,5,0,4,1,1,1
1529296140894637,1,-12,-5,2,-4,-1,-2,1
1529296140894637,1,-1,2,-1,8,1,0,1
1529296140902872,-2,-2,-4,-7,-3,-2,-1,-1
1529296140902872,0,-2,0,2,-1,0,0,-1
1529296140917597,0,6,-2,0,4,1,0,0
1529296140917597,0,2,3,-1,-1,-2,-2,-1
1529296140925780,2,-3,-3,-2,-4,0,0,0
1529296140925780,-3,-5,-2,2,2,0,0,-1
1529296140939834,-1,0,-3,-5,-3,-1,0,-1
1529296140939834,-2,-5,-10,-1,0,-1,0,-2
1529296140947578,-1,1,5,-2,-1,-2,-1,-1
1529296140947578,-1,4,3,3,-1,-2,-1,-1
1529296140954562,-1,-9,-2,-2,11,0,-1,0
1529296140954562,0,-1,-3,-3,-16,-3,-1,0
1529296140971530,-1,-1,-4,-1,2,2,-2,-1
1529296140971530,-3,13,-1,-6,-5,0,1,-1
1529296140977633,1,-6,1,3,10,0,1,-1
1529296140977633,4,2,3,1,9,-1,1,1
1529296140985472,-4,-8,-5,-1,-14,0,0,0
1529296140985472,-1,-1,2,-1,1,-1,-4,-1
1529296140999438,0,7,2,2,5,-2,-1,-1
1529296140999438,0,-2,-1,1,-10,-3,1,1
1529296141008410,2,-2,-2,-3,18,1,-1,0
1529296141008410,0,-3,-1,1,-1,15,5,3
1529296141014394,-2,-1,0,-3,-34,-26,-3,-3
1529296141014394,1,1,-1,3,44,18,2,0
1529296141031349,-1,-2,-2,-1,-14,-5,-1,-1
1529296141031349,-2,0,-1,0,10,0,0,0
1529296141037366,3,1,0,-4,-35,-2,-1,1
1529296141037366,-2,-2,-9,-1,15,10,0,0
1529296141046498,-3,10,11,-2,-23,-16,-3,-4
1529296141046498,3,-16,-9,1,11,-3,1,-1
1529296141059536,1,4,1,7,21,13,3,2
1529296141059536,-2,2,1,-1,-9,-7,-3,-2
1529296141068359,-1,-3,-6,-2,8,7,-4,-1
1529296141068359,-1,4,3,0,-13,-9,-2,-2
1529296141082484,1,6,6,3,0,-1,-2,-1
1529296141082484,-2,-6,-5,-4,-12,-4,-3,-1
1529296141091194,3,-2,4,3,7,1,2,3
1529296141091194,1,0,-1,1,13,-1,-2,-2
1529296141097190,-2,-2,-2,-2,-13,-1,-1,1
1529296141097190,0,3,2,-3,3,-3,-1,-2
1529296141106148,0,-3,-1,-2,-20,-2,0,-1
1529296141106148,0,-5,-5,-2,0,-10,-3,0
1529296141119114,-5,0,0,2,30,12,-1,-3
1529296141119114,1,0,-1,-4,-34,-8,-2,0
1529296141128416,-1,0,0,-1,4,1,0,0
1529296141128416,1,8,-2,0,2,1,-2,0
1529296141134354,-1,-5,0,-2,-3,0,-2,0
1529296141134354,-1,-7,-4,0,0,-3,-1,0
1529296141151028,2,-3,-2,1,8,2,-1,0
1529296141151028,-2,2,4,-2,-13,0,0,-2
1529296141157278,0,10,1,-1,2,1,0,0
1529296141157278,1,-2,-1,0,8,1,-2,0
1529296141165988,-3,-5,-4,-2,1,4,1,0
