timestamp,emg1,emg2,emg3,emg4,emg5,emg6,emg7,emg8
1528451541135430,2,1,16,23,32,12,0,2
1528451541135430,-2,-3,-12,4,-5,3,5,0
1528451541144405,-2,0,21,-4,-8,-5,-3,-5
1528451541144405,-2,-2,-5,-14,-17,-7,-2,-2
1528451541158419,-1,1,-11,-13,-16,-8,11,1
1528451541158419,1,-1,4,3,-6,-13,-24,-1
1528451541165375,-2,0,5,15,16,21,13,-2
1528451541165375,-7,-3,3,-10,-16,-13,-6,-1
1528451541174326,-2,-4,-1,-17,-18,3,1,-2
1528451541174326,8,1,1,2,23,-12,1,2
1528451541188296,2,1,3,13,11,13,13,3
1528451541188296,1,0,-4,15,28,20,5,-2
1528451541195267,-4,-3,-10,3,-2,-38,-33,-5
1528451541195267,-3,-1,-3,-26,-65,-1,19,0
1528451541210230,1,0,-5,-10,17,11,5,0
1528451541210230,2,1,3,36,47,8,-15,3
1528451541219252,-1,2,1,-1,8,20,39,2
1528451541219252,-4,-5,-1,-6,-7,-5,-25,-6
1528451541232169,-2,-3,-9,-9,-25,-32,-11,-4
1528451541232169,2,-5,-6,-15,-21,-7,0,-3
1528451541240148,-18,-4,1,8,-12,-13,-17,-7
1528451541240148,4,6,-7,-14,12,26,27,-1
1528451541255108,0,9,1,-4,-7,3,10,0
1528451541255108,2,-41,-8,-2,1,-4,-13,2
1528451541262088,-2,1,12,6,6,-4,12,-1
1528451541262088,15,8,-8,-2,6,6,-6,3
1528451541278047,-26,-8,-3,-4,0,-2,-6,-6
1528451541278047,-13,9,9,0,-13,-10,-7,-5
1528451541285042,3,-5,6,-1,-1,7,45,7
1528451541285042,-1,-4,-13,7,18,14,-51,0
1528451541299987,9,19,-12,-7,3,0,-11,4
1528451541299987,-18,-30,-8,-6,-12,-10,23,-10
1528451541307986,-4,-3,-6,-18,-9,4,-44,6
1528451541307986,5,3,-6,-11,-1,-8,-10,-18
1528451541323925,24,10,10,14,13,11,48,33
1528451541323925,5,-2,8,9,4,7,-2,-37
1528451541337888,-4,-15,-12,-13,-18,-16,-31,6
1528451541337888,-8,11,-12,-8,-5,3,2,16
1528451541344868,6,0,42,-4,0,0,4,-5
1528451541344868,11,40,5,32,8,-1,23,10
1528451541359828,-26,-61,-16,0,-6,-6,-18,-10
1528451541359828,-5,-2,23,-24,-1,1,-8,3
1528451541367806,4,7,-29,0,-2,-13,-8,-21
1528451541367806,-6,-10,10,16,5,24,43,8
1528451541382770,-4,9,-14,-10,-6,-10,0,-2
1528451541382770,19,24,21,16,2,-9,-16,5
1528451541397729,6,-4,-31,-8,-3,-1,-3,-3
1528451541397729,2,-16,-9,-5,-7,-2,-8,2
1528451541404709,8,8,-1,-8,-2,-6,0,-7
1528451541404709,-6,-17,-12,6,2,-8,13,16
1528451541421663,1,20,-9,5,4,3,-35,-14
1528451541421663,-5,-10,21,3,-3,-3,-6,-6
1528451541434663,-4,0,-9,-10,-3,2,0,-2
1528451541434663,-3,1,5,6,2,-6,-2,10
1528451541457567,1,-3,-30,-4,1,0,0,0
1528451541457567,0,9,33,11,-1,-1,1,-12
1528451541464595,-1,-1,-5,-2,0,-2,-2,5
1528451541464595,2,0,22,-2,0,3,-1,-2
1528451541472527,-1,-5,-2,-10,-6,-2,-1,0
1528451541472527,-6,-11,-5,3,0,-7,-15,-12
1528451541487504,3,9,4,-2,-3,-2,-7,17
1528451541487504,-5,-52,-47,-23,-3,-3,-1,10
1528451541502446,10,15,41,19,-1,-2,-3,14
1528451541502446,-15,-5,-18,-31,-8,-5,2,-2
1528451541517435,-3,17,22,15,-1,-4,-7,-23
1528451541517435,12,-69,-31,-19,3,2,2,19
1528451541525387,-8,67,49,18,-2,0,-2,-6
1528451541525387,10,1,16,25,6,2,-1,-5
1528451541540375,-3,-6,-12,-22,-3,5,2,7
1528451541540375,-11,-41,6,-10,-5,2,2,5
1528451541547326,8,25,-36,-15,3,-2,-2,-15
1528451541547326,1,27,25,22,4,1,-3,2
1528451541562289,-2,-29,-6,-11,-6,-9,-3,-6
1528451541562289,-7,20,11,32,4,2,7,-27
1528451541570303,-7,-32,0,-46,-14,-4,-5,48
1528451541570303,10,56,46,17,6,2,-3,-38
1528451541585254,-5,24,-45,25,15,3,10,11
1528451541585254,-10,-1,6,-29,-11,-4,-3,26
1528451541600186,-5,1,10,9,6,3,0,-11
1528451541600186,1,21,-22,8,-16,-7,-2,15
1528451541607167,-4,-4,24,-6,-6,-5,-3,-21
1528451541607167,0,-34,-27,-2,12,6,6,24
1528451541622129,2,-2,11,-7,12,4,4,-13
1528451541622129,-9,-3,10,4,9,8,-1,10
1528451541630105,-6,-29,-29,-26,-14,-9,-6,8
1528451541630105,-2,-18,-30,5,-10,-2,0,-17
1528451541645079,6,-27,17,2,-3,-2,-6,-37
1528451541645079,-1,19,-22,1,6,1,3,33
1528451541660028,3,20,-2,9,4,-1,-7,-52
1528451541660028,-6,-21,-30,8,0,3,2,-6
1528451541668004,11,63,-7,9,-1,3,-1,15
1528451541668004,-10,-23,3,-33,-14,-9,-5,-24
1528451541682964,2,11,-5,1,-6,-5,-3,5
1528451541682964,-6,14,-10,-2,3,-2,1,-16
1528451541689945,-6,-2,8,4,6,2,-2,-9
1528451541689945,-9,-13,-7,25,1,-2,1,-4
1528451541704906,-11,-36,-8,12,5,6,1,-13
1528451541704906,9,6,0,1,23,1,1,0
1528451541719905,-1,-22,-4,4,-4,16,4,13
1528451541719905,10,20,4,-9,21,15,2,-15
1528451541727845,-15,-13,4,17,9,-8,-4,-42
1528451541727845,-2,9,-10,-21,-9,-3,-4,9
1528451541742804,4,14,16,-6,-11,-15,-6,-11
1528451541742804,-2,-4,0,-12,-20,-15,-4,13
1528451541749814,2,-21,-10,-15,-18,-1,2,5
1528451541749814,3,-6,-2,11,3,5,-2,-16
1528451541764745,-14,-45,-4,11,6,1,-2,-23
1528451541764745,10,13,-9,-19,-28,-17,-6,62
1528451541779706,12,9,-14,-13,-8,-2,-2,4
1528451541779706,-5,-21,-18,-8,5,-3,-7,-11
1528451541787684,2,19,33,16,4,11,17,-10
1528451541787684,-11,-11,10,8,-1,6,-20,-31
1528451541802644,-7,36,30,-11,-12,-8,-4,26
1528451541802644,13,-11,-24,-5,-4,-3,0,13
1528451541809678,5,22,-11,8,10,-4,-2,20
1528451541809678,-7,-20,-8,-10,9,1,4,-21
1528451541824586,-8,-3,8,-19,-6,-4,-6,7
1528451541824586,-3,-3,0,16,5,-1,5,-11
1528451541840557,-11,-43,-19,-4,-4,-7,-1,-1
1528451541840557,8,7,6,5,-9,3,3,0
1528451541847525,6,-12,-26,-19,4,-1,-4,4
1528451541847525,-1,10,20,2,-2,-3,5,37
1528451541862533,-5,-36,-15,19,1,0,-6,-42
1528451541862533,-15,-19,16,-25,-3,1,1,18
1528451541869513,15,-12,-18,4,-2,-5,-4,7
1528451541869513,8,9,-7,3,-6,-5,-3,-17
1528451541885468,-4,-17,-15,2,-7,-2,-7,2
1528451541885468,2,-1,-1,-8,-2,7,5,-4
1528451541900435,0,-12,1,17,17,7,4,2
1528451541900435,-2,1,33,27,11,-3,-5,7
1528451541907423,-16,-32,-68,-70,-18,-6,-4,-3
1528451541907423,-5,2,5,6,-7,-4,-1,-13
1528451541922325,-3,-1,0,-5,-5,-1,2,16
1528451541922325,-1,-8,-28,11,9,0,-2,4
1528451541930356,13,20,57,8,-1,-3,1,10
1528451541930356,-1,-14,-16,3,-6,-1,-1,7
1528451541945321,-4,15,-9,19,-6,0,-6,-17
1528451541945321,-12,-75,-7,-19,3,-1,-1,3
1528451541960276,2,30,25,11,5,-2,-3,-1
1528451541960276,10,-1,-2,14,-2,-4,-3,-8
1528451541967258,-4,-11,-9,-10,-5,-4,-1,-5
1528451541967258,1,16,-4,-18,-18,-2,0,-8
1528451541982164,-2,-2,-2,3,2,4,2,3
1528451541982164,-4,8,-6,-4,22,2,-3,-13
1528451541990143,2,11,28,25,14,0,4,16
1528451541990143,1,9,-16,7,-2,2,-3,-5
1528451542005104,3,-6,22,13,2,-1,0,-5
1528451542005104,4,20,-12,-6,0,-6,-5,-12
1528451542027089,4,8,-27,0,-5,-3,-1,4
1528451542027089,-4,-43,-35,-11,-3,1,3,5
1528451542035068,-4,-1,6,-3,2,-3,-3,4
1528451542035068,-5,-18,2,22,-3,0,-2,0
1528451542050037,10,72,15,-42,-14,-2,2,5
1528451542050037,-10,-28,15,9,10,5,2,-8
1528451542057963,1,-5,-18,13,13,4,3,7
1528451542057963,5,14,2,5,-2,-1,2,11
1528451542064945,-7,-10,-4,-28,-11,-9,-9,-18
1528451542064945,-4,12,32,53,16,7,10,18
1528451542080051,4,-22,-33,-87,-18,-8,-7,0
1528451542080051,3,14,-27,-4,-11,-5,-4,-21
1528451542087239,-5,-39,-8,18,1,3,3,14
1528451542087239,13,19,-24,-33,-6,-3,-5,-25
1528451542102384,-10,-22,6,30,5,-2,-1,13
1528451542102384,3,10,19,6,2,1,-1,2
1528451542110217,-1,12,-5,-16,-6,0,1,6
1528451542110217,-3,-10,16,13,-3,-2,0,-2
1528451542125400,-2,0,-7,24,0,0,0,-59
1528451542125400,-9,-14,20,-24,0,-1,-3,-12
1528451542140534,-4,-3,-16,27,5,2,0,-3
1528451542140534,5,-1,15,-1,-7,-3,-1,-5
1528451542147674,4,7,-30,-4,-3,1,0,24
1528451542147674,1,16,22,-6,1,-1,-2,-6
1528451542162634,-11,-30,-29,-15,6,1,0,-9
1528451542162634,-9,-1,60,12,-5,1,0,-7
1528451542170615,11,-12,-28,-5,-3,-1,-1,0
1528451542170615,0,7,3,13,-3,-2,-2,0
1528451542184782,-4,-7,18,11,1,1,2,10
1528451542184782,1,26,-5,-7,5,-1,-1,-17
1528451542192761,-7,-6,6,-3,0,-5,-4,9
1528451542192761,-7,-8,-15,3,-1,-5,-5,5
1528451542208054,-3,19,19,1,6,3,0,1
1528451542208054,-5,-15,-29,-8,4,3,0,-4
1528451542222258,-5,-7,-13,-9,0,-3,-2,2
1528451542222258,1,1,19,0,-2,-2,-1,9
1528451542230565,0,1,-15,-6,-3,2,-1,-5
1528451542230565,4,5,9,3,-2,-1,0,4
1528451542244830,-2,-3,-7,2,-1,-3,-3,-15
1528451542244830,-2,-3,-22,-9,-6,-2,-2,-1
1528451542252803,3,13,31,4,-2,-1,-2,-4
1528451542252803,-3,-19,-12,0,1,0,-1,-2
1528451542267624,0,14,24,6,4,2,1,7
1528451542267624,1,2,-22,-11,1,0,-1,0
1528451542282586,-2,-3,1,14,7,0,-3,-12
1528451542282586,-1,0,-7,-9,-3,2,1,6
1528451542289568,-2,-4,5,-4,-4,0,1,1
1528451542289568,2,10,6,-4,1,-1,-2,-5
1528451542304951,-2,5,5,9,0,-2,-2,-8
1528451542304951,-1,-7,-2,4,-6,-1,-1,2
1528451542313130,-2,2,-49,-10,-2,-1,-1,-2
1528451542313130,1,2,28,0,7,1,-1,0
1528451542327209,0,-2,19,5,-5,-3,-4,-3
1528451542327209,-2,-2,-1,-11,-6,-4,-2,-1
1528451542343156,-2,1,-5,1,0,-2,0,-3
1528451542343156,0,3,-9,-1,-1,0,-1,0
1528451542350151,2,2,14,3,-2,-3,-3,-2
1528451542350151,-2,-4,-21,-7,1,0,3,-1
1528451542364951,-2,2,27,0,2,7,-1,-4
1528451542364951,-2,-3,-10,0,-7,-9,-4,-3
1528451542372944,0,-3,9,-5,-4,-2,0,1
1528451542372944,1,1,-3,6,3,2,0,0
1528451542387252,-3,1,32,4,1,-1,-4,-3
1528451542387252,-3,1,-17,-6,-6,-3,-2,-3
1528451542403063,1,0,2,-1,0,-8,-5,-2
1528451542403063,-1,-3,-2,-4,-3,6,3,-1
1528451542410269,-1,0,2,0,1,1,-1,1
1528451542410269,0,0,6,-2,-3,-1,-3,0
1528451542425342,-1,-3,-4,-2,-2,-3,-2,-1
1528451542425342,0,-1,1,2,1,-3,-3,0
1528451542440341,-1,-4,-19,-8,-3,-2,0,-3
1528451542440341,0,1,15,3,0,0,0,-1
1528451542455166,-1,-3,-5,1,0,-2,0,0
1528451542455166,0,0,-3,-2,0,-2,-3,-2
1528451542462176,-2,-2,-5,-4,-1,1,0,-2
1528451542462176,-2,-1,-2,-1,-1,-1,-1,-1
1528451542478104,0,-4,-5,-4,0,-2,-2,0
1528451542478104,-2,1,0,2,-2,-1,-1,-1
1528451542492061,-1,-1,0,-1,-1,-2,-2,-2
1528451542492061,-1,-1,-1,-2,-4,-1,-1,-3
1528451542508089,-1,-1,-1,-1,-2,0,0,0
1528451542508089,-1,0,-14,-2,1,-1,-2,0
1528451542515161,0,-1,30,2,-3,-2,-2,-2
1528451542515161,-1,-1,-5,-4,-4,1,1,-2
1528451542530467,0,-1,-10,0,-2,-2,-1,0
1528451542530467,-2,-2,12,-1,-1,-1,-1,0
1528451542545268,-1,-4,-8,-2,-4,0,-2,-1
1528451542545268,0,0,0,-3,-2,0,-1,-1
1528451542552387,-1,2,-4,1,1,0,0,-1
1528451542552387,-2,-4,5,0,0,-3,-2,-1
1528451542567569,-3,-4,-38,-8,-5,-4,-2,-3
1528451542567569,-4,-5,4,-6,-8,-1,0,-1
1528451542575383,-1,-3,-10,-7,-4,-1,0,0
1528451542575383,2,3,10,11,13,1,0,2
1528451542590502,-3,-1,5,-2,-3,-3,-1,-3
1528451542590502,0,2,-4,-6,-9,-4,-3,-1
1528451542612612,-1,-1,8,-2,-8,-3,-2,-3
1528451542612612,1,0,-18,-1,-3,-1,1,0
1528451542620606,-4,-4,19,6,8,4,1,1
1528451542620606,-1,3,-1,2,13,3,-1,-1
1528451542635569,-1,2,8,5,7,2,0,0
1528451542635569,0,1,5,-6,-9,-5,-4,-1
1528451542650517,-2,-3,-13,-5,-8,-6,-4,-2
1528451542650517,-2,-3,-4,-2,-8,-5,0,-2
1528451542657723,0,-1,-14,-2,-1,1,0,-2
1528451542657723,-1,-3,-1,-2,-4,-2,-1,-1
1528451542665611,-1,0,-5,-1,-1,0,-1,-1
1528451542665611,-1,-1,3,3,3,1,-1,-1
1528451542680606,0,0,-13,-1,-1,0,-1,-1
1528451542680606,-2,-2,-2,-1,-4,0,1,-1
1528451542687481,-1,0,4,-1,-1,-1,-2,-1
1528451542687481,-2,-3,3,1,4,-2,-1,-1
1528451542702679,2,2,4,3,1,-1,-1,0
1528451542702679,0,-1,-3,-5,-4,0,0,-1
1528451542709950,-1,0,-15,-4,-2,0,-2,-2
1528451542709950,1,1,13,3,2,-2,0,-1
1528451542718101,-3,-4,-3,-6,-3,-2,-1,0
1528451542718101,-2,-3,5,4,-2,-2,-3,-2
1528451542725005,-1,-1,11,0,0,-1,-1,-2
1528451542725005,-1,-1,-2,-3,-3,0,0,-2
1528451542740091,1,5,16,2,2,-1,1,1
1528451542740091,-2,1,-30,-4,-4,-2,0,-2
1528451542748064,1,-4,-5,-3,2,1,0,0
1528451542748064,-3,-4,-18,-2,0,0,-2,-2
1528451542762881,1,0,-10,2,2,-1,-1,-1
1528451542762881,0,0,15,2,-2,-1,-3,0
1528451542778036,-1,-3,22,5,0,0,0,0
1528451542778036,-5,-10,-55,-23,-7,-4,-3,-3
1528451542785014,-1,0,-23,0,2,0,0,0
1528451542785014,0,-1,14,0,3,-1,-1,1
1528451542800502,-2,-1,12,-2,-4,-3,-5,-2
1528451542800502,2,5,15,4,3,2,5,-1
1528451542807694,-2,-7,-14,-2,-1,-1,0,-1
1528451542807694,-2,1,13,2,-3,-4,-2,-2
1528451542822491,0,-1,-24,-4,-1,-3,-2,-2
1528451542822491,-2,-6,48,9,-1,-2,-5,-3
1528451542837620,-4,-5,-4,-4,-1,-1,3,-17
1528451542837620,0,2,12,-4,-2,-3,-3,-3
1528451542845591,2,5,20,-1,0,-2,0,2
1528451542845591,-2,-2,26,2,-6,-5,-6,-3
1528451542860554,-2,-5,-79,-6,0,0,0,4
1528451542860554,0,-1,15,8,1,0,0,0
1528451542867592,0,-2,-10,-4,-1,-2,-2,-5
1528451542867592,0,0,-18,-2,0,1,3,0
1528451542882958,-1,1,38,1,-1,1,0,1
1528451542882958,-2,2,-9,-2,1,-1,-1,-1
1528451542897896,-1,-2,8,-5,-1,-1,0,1
1528451542897896,0,-2,-19,-1,1,0,-1,0
1528451542904743,-4,-4,23,3,-4,-3,-2,-3
1528451542904743,0,-1,-5,-6,-1,-3,-1,-1
1528451542920258,-2,0,12,3,0,-1,-2,0
1528451542920258,-1,-1,-13,-1,-2,-4,-5,-1
1528451542928109,-4,-4,19,0,-2,-2,3,-4
1528451542928109,-2,-1,-7,0,0,0,-3,-1
1528451542942399,0,1,-2,-2,-2,0,-1,2
1528451542942399,-2,-1,4,0,1,0,1,2
1528451542957354,-4,2,-1,0,1,-1,0,1
1528451542957354,-1,-2,8,-1,-3,-1,-1,-1
1528451542965332,-3,-2,7,2,2,-2,-2,-7
1528451542965332,2,-2,-6,-3,-2,1,1,1
1528451542980543,8,1,-6,-2,-3,-2,-3,-1
1528451542980543,-10,-3,-16,-1,0,0,-1,-4
1528451542987578,-2,-3,8,-2,-1,-1,-3,3
1528451542987578,-3,-3,-9,-6,-5,-1,-1,0
1528451543002682,-1,1,0,2,0,1,0,-3
1528451543002682,3,-1,14,3,-1,-1,0,2
1528451543024827,-2,-1,-5,-5,-3,0,0,2
1528451543024827,1,-2,-4,-3,-2,-2,-1,-2
1528451543032986,-1,0,19,2,-2,0,-1,1
1528451543032986,-1,-1,-2,-1,-1,1,0,-3
1528451543048169,-2,-3,-5,-1,0,0,-2,-3
1528451543048169,-1,0,3,-1,0,2,-1,0
1528451543055154,1,1,7,0,-4,-2,-2,1
1528451543055154,0,0,-8,-4,-2,-3,-1,-2
1528451543077473,-4,-1,-1,-3,0,-1,0,1
1528451543077473,2,0,-5,-2,0,-2,-1,-1
1528451543085452,0,-2,0,0,-1,1,-2,-2
1528451543085452,-1,0,9,0,0,-2,-2,-1
1528451543100256,0,-2,5,0,0,0,-1,0
1528451543100256,-2,-2,-35,-9,-2,-1,0,-2
1528451543107237,-1,0,4,2,0,-1,-1,-4
1528451543107237,-2,-1,6,0,-1,-1,-2,-1
1528451543122198,0,0,5,1,-2,-1,-2,0
1528451543122198,-2,0,-3,-3,-2,0,-2,-1
1528451543137157,-3,-2,18,3,0,-1,-1,-2
1528451543137157,-1,-1,-10,-1,-1,-1,1,3
1528451543145190,2,-1,-10,0,-1,-1,-2,-15
1528451543145190,-1,-1,14,3,0,1,0,-2
