timestamp,emg1,emg2,emg3,emg4,emg5,emg6,emg7,emg8
1529292956238626,-7,-1,1,-1,0,-2,-2,-2
1529292956238626,13,-1,0,0,-2,-1,-2,5
1529292956249597,-10,4,1,-1,0,0,-1,-9
1529292956249597,-5,-1,0,1,-1,-2,-2,-5
1529292956253586,-3,-1,-1,-1,0,-2,-1,0
1529292956253586,4,-2,-1,0,-1,-1,-1,-1
1529292956260601,0,-4,-1,-1,-2,0,0,0
1529292956260601,5,3,-3,0,1,2,3,6
1529292956275526,1,-1,0,-2,2,-1,-1,1
1529292956275526,-6,-2,-1,-1,-2,-2,-1,-1
1529292956290487,2,0,-5,-1,-4,-1,0,0
1529292956290487,-6,0,0,-1,-2,0,2,-2
1529292956301459,2,-2,-3,-2,-1,-1,0,0
1529292956301459,-1,-1,0,-2,0,-2,-1,-3
1529292956313426,2,-1,1,1,-1,0,-1,1
1529292956313426,1,-1,-1,0,0,4,9,2
1529292956321404,-4,-2,-1,1,-3,-5,-13,-3
1529292956321404,5,0,1,-1,-1,1,13,14
1529292956339355,1,-2,0,0,-2,-9,-16,-12
1529292956339355,-2,-2,-1,-1,0,1,2,-2
1529292956351324,3,1,0,0,0,-2,2,5
1529292956351324,-11,-2,0,0,-1,0,2,0
1529292956358305,8,1,-1,0,0,3,6,1
1529292956358305,0,-2,-3,-2,-1,-1,-6,-6
1529292956373266,-3,0,-1,-2,0,3,9,5
1529292956373266,1,-1,-1,-3,-1,-4,-10,-5
1529292956384237,-10,-2,0,-1,-1,0,5,4
1529292956384237,8,3,1,-1,0,-3,-4,-2
1529292956396206,20,2,0,-1,-1,1,2,8
1529292956396206,-12,-5,-4,-3,-2,-2,-2,-4
1529292956411165,-5,-3,2,2,3,1,-1,-2
1529292956411165,0,0,-3,0,0,-2,1,1
1529292956418146,15,2,-1,-3,-2,0,1,6
1529292956418146,-12,-10,-3,-2,-4,-1,-4,-2
1529292956434102,-26,-2,-3,0,1,4,4,-11
1529292956434102,34,12,-1,-6,-6,-14,-24,-12
1529292956441085,-22,1,4,6,4,2,-1,-11
1529292956441085,10,-3,-1,-7,-2,-5,-7,-4
1529292956456046,-8,1,2,-1,-1,-1,6,2
1529292956456046,3,2,-4,-2,-1,-1,-3,-6
1529292956471005,18,-5,-9,-5,-7,-6,-4,7
1529292956471005,28,7,-3,4,3,5,4,5
1529292956492947,-47,-2,6,5,2,0,1,-14
1529292956492947,-10,-3,-3,1,-3,-12,-25,-16
1529292956500925,3,2,5,8,8,7,12,12
1529292956500925,2,2,0,-1,-4,2,-5,-3
1529292956507908,17,-9,-9,-7,-8,-8,16,18
1529292956507908,-9,-2,-1,1,-1,-10,-21,-16
1529292956515885,-16,-10,-3,-3,6,27,0,-2
1529292956515885,-13,-6,-3,1,0,-23,-2,-3
1529292956523863,28,10,1,5,11,15,5,10
1529292956523863,-1,0,2,6,-7,-32,2,1
1529292956538822,15,4,-1,3,6,10,2,3
1529292956538822,-4,-7,-4,-12,-7,29,1,-3
1529292956545804,-2,-4,-1,-3,-8,-29,-7,-5
1529292956545804,1,-4,-4,-7,2,16,2,5
1529292956560765,-5,3,3,7,-11,-20,-4,-10
1529292956560765,7,4,-5,-15,7,5,5,4
1529292956568743,-5,1,9,-13,10,27,1,0
1529292956568743,3,-4,-3,4,3,7,2,0
1529292956575725,-10,-8,-16,-5,-19,0,-9,-9
1529292956575725,-2,0,8,18,-2,-18,-3,-5
1529292956583703,1,-2,-5,-15,16,25,-10,-9
1529292956583703,-1,1,5,3,-16,-52,7,4
1529292956598663,3,5,-4,-27,8,-6,-4,-1
1529292956598663,0,1,2,23,18,29,1,-2
1529292956605644,-6,-6,-15,-6,-26,-21,-1,0
1529292956605644,1,1,1,23,-9,-6,-3,1
1529292956620604,3,1,7,43,21,-3,14,5
1529292956620604,7,4,5,2,-5,20,-5,-1
1529292956628583,1,2,0,7,49,40,18,4
1529292956628583,-3,-2,0,-8,-11,31,0,-5
1529292956635565,-10,-9,-8,-44,-55,-43,-10,-4
1529292956635565,-1,-1,1,-11,-25,-27,-5,-2
1529292956643577,-2,1,5,16,36,45,-8,-8
1529292956643577,1,0,-3,-13,-2,-26,13,5
1529292956658537,4,5,7,-11,29,53,-2,-1
1529292956658537,-9,-2,-7,-14,-16,-26,-6,-8
1529292956665485,-8,-3,-3,3,-49,-45,-24,-9
1529292956665485,-1,1,3,18,21,27,3,0
1529292956680471,10,11,14,15,36,-33,13,3
1529292956680471,7,7,11,43,62,88,25,13
1529292956688450,-1,-1,-1,-18,-29,-6,17,-1
1529292956688450,-2,-4,-10,-42,-36,-9,-10,-3
1529292956695405,-7,-8,-2,20,-43,-51,-27,-9
1529292956695405,1,-6,-18,-70,-38,-60,-10,-4
1529292956703383,-8,-5,-3,2,-14,-41,-31,-15
1529292956703383,7,7,3,-21,-2,-20,10,6
1529292956718343,4,3,6,47,52,63,40,16
1529292956718343,9,2,-6,13,2,34,10,9
1529292956726339,0,-3,-2,-1,-33,-22,-18,0
1529292956726339,-10,-7,-10,-30,-1,-12,-7,-8
1529292956741314,9,5,-5,-47,-22,-19,-7,-1
1529292956741314,-19,-13,-5,31,-8,-3,2,-9
1529292956748299,9,6,-3,-17,-12,-30,1,3
1529292956748299,-11,-5,3,67,37,50,0,-9
1529292956756241,3,1,-9,-85,-15,-15,-6,2
1529292956756241,-3,0,11,53,-25,-51,-23,-5
1529292956763222,-2,-2,-7,-45,-21,-13,1,-2
1529292956763222,-6,-5,-11,48,27,13,13,1
1529292956778182,3,8,13,14,27,79,20,2
1529292956778182,-4,-5,-20,-91,-24,2,-12,0
1529292956786161,-11,-10,3,64,10,-37,-20,-14
1529292956786161,13,9,15,6,-10,-22,6,9
1529292956801122,-2,-8,-17,-3,7,3,-3,2
1529292956801122,1,4,8,-5,-1,-18,-13,-5
1529292956808102,0,5,12,41,32,35,11,-2
1529292956808102,-3,-6,-8,-74,-27,10,11,6
1529292956816118,-13,-9,-6,12,-8,-17,-13,-13
1529292956816118,-6,-4,-3,2,26,7,12,1
1529292956823063,9,9,3,-23,-9,5,5,11
1529292956823063,-7,-4,-5,14,15,18,-8,-12
1529292956838024,1,0,5,55,-36,-54,-25,-5
1529292956838024,12,11,-2,-100,28,24,24,13
1529292956846001,-13,-13,-4,94,8,9,-6,-7
1529292956846001,2,-8,-23,-31,-27,-36,-18,4
1529292956860997,-9,-7,-1,-5,-7,-2,-3,-7
1529292956860997,-10,-8,-6,-17,-7,-6,-7,-10
1529292956867978,14,7,-4,-48,-10,2,0,9
1529292956867978,4,9,-2,-31,4,19,27,21
1529292956875969,-14,-13,2,46,13,-3,-9,-6
1529292956875969,-14,-4,-2,77,5,3,-11,-15
1529292956890881,-4,-1,-1,-44,3,11,9,-4
1529292956890881,0,-15,6,-44,-18,3,3,3
1529292956905842,9,0,11,27,13,6,16,9
1529292956905842,15,8,4,-10,-11,-16,-4,8
1529292956920803,-1,-9,-8,-23,18,26,7,-1
1529292956920803,-2,10,6,118,28,3,-9,-10
1529292956935806,7,36,-13,-14,5,2,1,-1
1529292956935806,-8,-37,26,10,-6,9,-5,-16
1529292956950757,-17,-11,-21,5,2,-1,-19,-17
1529292956950757,16,16,7,8,5,-15,-4,-1
1529292956965684,9,-7,1,4,-11,-26,-9,13
1529292956965684,8,23,6,-47,-10,4,-3,7
1529292956980687,-10,-10,36,2,-35,-22,-3,1
1529292956980687,-15,-9,-20,6,18,1,-17,-14
1529292956995635,13,8,1,-7,18,18,-1,5
1529292956995635,-5,-9,-2,48,23,24,2,-7
1529292957010561,-2,-16,21,-1,-25,-23,6,1
1529292957010561,11,1,-6,1,-6,-9,1,9
1529292957018559,11,-4,-2,-49,-11,15,30,16
1529292957018559,-3,6,-12,-20,-9,7,-14,-25
1529292957033528,2,5,-8,-50,-3,27,6,3
1529292957033528,6,-1,20,44,13,-1,7,-2
1529292957040481,-9,-8,-25,-57,-34,-28,-17,-20
1529292957040481,-2,-4,4,33,-9,-4,12,14
1529292957055442,-32,-12,2,12,2,11,-15,-25
1529292957055442,-1,-7,-12,-4,3,-15,-5,9
1529292957070403,-6,5,2,7,-6,0,-10,-9
1529292957070403,-2,2,4,9,14,22,8,0
1529292957078382,6,15,-16,-24,-8,-2,12,3
1529292957078382,-6,-18,-7,-2,-9,-13,5,3
1529292957093340,19,27,12,-6,14,17,3,8
1529292957093340,-16,-46,-29,-21,-34,-15,-9,-8
1529292957101344,4,21,20,-5,10,4,-1,-3
1529292957101344,33,110,89,50,52,-4,-3,0
1529292957116314,-5,-40,-25,22,12,-1,-9,-4
1529292957116314,3,-19,-1,5,-10,-3,11,10
1529292957131275,14,80,74,17,59,5,-6,-13
1529292957131275,-10,-67,-45,5,-37,-3,0,-3
1529292957138220,23,44,57,7,27,3,3,10
1529292957138220,-25,-89,-117,-65,-80,-31,-1,1
1529292957153182,-17,22,26,-21,-3,-2,-8,-26
1529292957153182,11,98,104,41,55,6,-8,-6
1529292957161159,-41,-121,-112,-33,-94,-20,-6,-8
1529292957161159,5,46,37,-14,-14,-10,-4,1
1529292957176119,5,32,34,-1,9,7,0,0
1529292957176119,-5,7,9,23,12,2,-2,-2
1529292957191080,-5,-6,2,28,-11,-17,-14,-3
1529292957191080,-2,15,-15,-49,-17,-4,-3,-4
1529292957198061,0,-16,4,7,10,8,1,3
1529292957198061,-17,-39,-21,-16,-22,6,3,-3
1529292957213902,-3,-37,-19,8,10,22,13,8
1529292957213902,2,4,4,11,21,4,2,7
1529292957221102,5,12,-8,-88,-12,4,-1,1
1529292957221102,-21,-21,12,102,-6,-50,-27,-19
1529292957236197,23,10,-27,-18,37,34,5,9
1529292957236197,58,29,15,-25,-11,-7,8,43
1529292957251072,-17,-26,-17,46,24,18,4,-12
1529292957251072,16,-3,4,7,2,-6,-1,4
1529292957258206,41,36,57,78,4,0,32,34
1529292957258206,-3,-22,21,92,88,76,21,4
1529292957273402,-12,-23,7,-22,-43,-44,-29,-10
1529292957273402,17,15,7,-79,-60,-47,-4,15
1529292957281158,-6,26,8,53,75,59,23,3
1529292957281158,1,-21,9,-41,-22,-13,-6,4
1529292957295949,-25,-3,17,70,-17,-49,-45,-41
1529292957295949,-11,5,-31,-3,-47,-62,-1,1
1529292957310909,30,31,3,-35,33,43,-1,4
1529292957310909,7,5,-85,-30,19,48,32,29
1529292957317892,-4,0,-39,-34,-19,-11,2,0
1529292957317892,-5,-3,-18,-47,24,42,5,-8
1529292957333847,12,-15,26,-58,-30,-49,-14,11
1529292957333847,4,14,39,-14,-2,-16,-21,-14
1529292957340829,-25,-26,-4,-52,-16,3,1,-13
1529292957340829,3,18,51,57,20,22,14,-6
1529292957355789,-10,-34,-10,-66,-30,5,6,16
1529292957355789,-10,19,12,57,9,-25,-19,-18
1529292957370750,-22,-20,0,55,19,18,14,2
1529292957370750,-6,-11,-21,-62,-38,-48,-27,-5
1529292957378775,-6,37,0,22,7,7,8,-12
1529292957378775,-10,30,-24,-30,-16,-15,-7,1
1529292957393732,11,6,1,24,19,30,15,-13
1529292957393732,-19,-7,48,45,-13,-11,-1,3
1529292957400714,23,70,16,-6,25,27,22,11
1529292957400714,-13,1,-14,-23,-1,-11,-16,-4
1529292957415673,-10,-24,2,-9,0,-7,-6,-13
1529292957415673,-9,-18,0,15,-9,-7,21,14
1529292957430633,9,9,6,19,0,1,-3,9
1529292957430633,-5,-12,-14,12,-8,-14,-15,-13
1529292957438612,-1,-22,-18,-20,-13,-15,-9,2
1529292957438612,11,-3,-1,-15,8,5,4,7
1529292957460556,-15,-14,13,75,25,-6,-15,-16
1529292957460556,-4,-8,-10,-2,-2,0,-4,-10
1529292957468532,-3,-12,9,69,23,-15,-19,-4
1529292957468532,6,5,-3,-55,-14,6,6,-1
1529292957483495,10,31,25,6,13,-9,-5,4
1529292957483495,-16,-64,-47,-29,-31,-10,-12,-17
1529292957498460,4,24,20,27,26,15,4,3
1529292957498460,8,34,26,-6,18,3,-4,-2
1529292957506386,-10,-54,-51,-10,-44,-16,4,4
1529292957506386,3,55,44,-14,13,0,-10,-10
1529292957521381,1,19,1,-9,-7,-13,-11,-10
1529292957521381,3,-3,-11,-31,1,21,12,2
1529292957536358,-8,5,19,75,24,-14,-11,-10
1529292957536358,12,55,39,-15,16,10,3,-2
1529292957543327,-18,-50,-5,64,8,-7,-12,-8
1529292957543327,1,-10,-21,-5,1,4,3,1
1529292957558299,3,-7,5,-17,5,29,19,16
1529292957558299,-4,-8,-4,-23,-15,-12,-7,-4
1529292957566227,12,37,46,63,79,20,4,5
1529292957566227,-20,-47,-52,-22,-33,-13,-13,-12
1529292957581188,6,27,15,-33,-5,-1,3,1
1529292957581188,-9,-15,11,19,10,12,5,0
1529292957596148,4,30,11,-35,-6,-5,-5,-3
1529292957596148,-9,-28,-20,23,12,14,3,1
1529292957603129,6,28,19,-98,-40,-16,-9,-4
1529292957603129,1,9,8,48,13,-3,-2,-3
1529292957618089,-7,-7,-13,2,-10,-5,-3,-1
1529292957618089,5,14,22,29,5,-4,-4,-3
1529292957626068,3,-12,-10,1,-5,3,3,3
1529292957626068,-6,-7,-8,-28,-18,-8,-4,-1
1529292957641029,-11,-26,-17,26,-15,-5,-8,-9
1529292957641029,-13,-8,-4,-29,-7,10,16,6
1529292957656020,12,16,19,23,9,-15,-12,-1
1529292957656020,-12,-16,-13,-6,-8,2,7,-8
1529292957662970,-4,-13,-18,-8,1,-2,-6,-9
1529292957662970,-9,4,14,-22,2,0,0,2
1529292957679056,25,5,-9,-4,12,1,20,28
1529292957679056,-6,-13,-22,-29,-14,-1,-9,-14
1529292957685910,-4,-22,0,25,-14,-12,-8,1
1529292957685910,7,10,7,36,20,12,-6,-4
1529292957701293,9,-4,5,-15,-12,1,0,2
1529292957701293,6,9,5,-5,-6,-7,-10,-10
1529292957716245,1,-12,-6,2,3,6,-3,-2
1529292957716245,2,10,3,-6,-5,0,1,2
1529292957731209,-9,-8,-10,-7,-6,3,5,-5
1529292957731209,9,4,1,8,4,-8,-1,2
1529292957746213,4,7,8,17,4,1,-2,-4
1529292957746213,1,-5,7,10,-1,-4,-1,-3
1529292957753192,0,0,2,-18,-4,-4,-3,8
1529292957753192,1,4,0,14,13,13,6,-9
1529292957768329,-1,4,-2,-8,-4,-4,-1,-3
1529292957768329,-1,8,10,27,5,-5,-4,5
1529292957783297,5,9,-5,11,9,10,10,8
1529292957783297,-1,3,0,-42,-4,-3,-3,-7
1529292957798152,-9,-1,0,3,-5,-8,-5,-7
1529292957798152,-1,-7,2,18,-8,-14,-12,-5
1529292957806168,-6,3,-4,-2,-1,-2,-3,-5
1529292957806168,8,8,4,16,9,6,9,9
1529292957821091,-3,3,6,28,10,1,0,0
1529292957821091,4,-3,-1,-6,-4,3,0,3
1529292957836238,-5,8,4,9,-4,-9,-4,-6
1529292957836238,0,1,-3,5,3,7,1,5
1529292957843054,0,-2,1,14,6,0,2,2
1529292957843054,-8,-8,-10,-59,-28,-10,1,-5
1529292957859002,5,1,6,29,3,-10,-7,-3
1529292957859002,2,-2,0,-19,6,13,5,3
1529292957866129,-8,-8,-3,-8,-10,1,-1,0
1529292957866129,9,-3,7,14,-4,-13,-8,-2
1529292957881498,4,4,-6,-45,-9,-1,1,2
1529292957881498,-7,1,3,8,12,6,-5,-7
1529292957896604,-1,-4,2,9,-4,-3,-2,-3
1529292957896604,5,-3,0,-14,-1,-4,-6,2
1529292957903572,-7,-11,-7,-10,-18,-22,-6,-7
1529292957903572,-8,-7,-4,2,10,16,12,-2
1529292957918861,10,5,2,-1,19,24,9,10
1529292957918861,-12,-12,-8,-14,-1,-2,-5,-5
1529292957926552,7,0,-1,2,-8,-9,1,4
1529292957926552,7,7,0,5,9,-1,-6,0
1529292957941579,-7,2,0,8,3,4,-5,-7
1529292957941579,2,-8,-9,2,-7,-11,-5,0
1529292957955999,-1,6,0,14,-7,-7,7,4
1529292957955999,-2,-2,1,-9,14,19,3,-2
1529292957963987,3,2,7,7,-2,-4,-7,-5
1529292957963987,-3,-6,-1,-16,-1,2,-4,-3
1529292957978755,-10,2,-10,-29,-34,-40,-20,-19
1529292957978755,-2,-13,2,13,5,7,1,1
1529292957985994,9,24,4,10,12,12,5,2
1529292957985994,-7,-12,-11,-15,-2,9,-2,-4
1529292958001096,-18,-7,-3,16,11,7,5,-13
1529292958001096,-1,6,-3,-2,-11,-12,-5,0
1529292958016127,-6,-1,-12,-1,7,11,-2,-2
1529292958016127,-10,-24,-3,13,-3,0,2,-2
1529292958024212,7,-21,0,-19,-1,2,2,10
1529292958024212,5,8,12,29,-12,-17,-9,-1
1529292958038712,-4,-9,-5,8,26,26,11,5
1529292958038712,-5,1,-3,3,-10,-4,-2,-9
1529292958045694,-3,-10,-10,-14,-13,-14,-8,0
1529292958045694,6,-4,-11,-7,-3,-7,-1,12
1529292958060871,-3,-3,-4,-41,-7,8,-1,-6
1529292958060871,-4,-3,-13,26,-5,-11,-5,-7
1529292958069039,-6,-18,-6,3,12,13,10,7
1529292958069039,-2,4,-8,-4,2,4,8,4
1529292958084034,-12,-19,-23,-55,-24,-15,-15,-12
1529292958084034,7,9,-2,-2,-2,-9,-3,10
1529292958098998,-1,-3,2,10,-19,-20,-16,-3
1529292958098998,-6,-24,16,62,35,27,22,10
1529292958105975,-5,4,13,24,5,14,13,-3
1529292958105975,2,-2,-2,-34,-5,0,-2,-1
1529292958121336,-7,-4,-10,2,-3,-6,-7,-12
1529292958121336,9,13,5,5,-6,-7,-10,-4
1529292958128552,2,10,-3,-14,-3,-1,4,4
1529292958128552,-8,-16,-4,31,5,1,-2,-8
1529292958143632,-1,8,-2,11,8,3,-5,-8
1529292958143632,-4,0,2,-11,-15,-12,-8,-5
1529292958158794,3,-1,8,13,6,1,3,4
1529292958158794,0,2,-10,-14,-10,-24,-10,-2
1529292958166628,5,10,24,34,-5,-13,-12,-2
1529292958166628,-1,8,6,17,20,13,3,-5
1529292958181558,-7,-33,2,34,-5,0,-6,0
1529292958181558,-2,10,-6,-35,-19,-13,-3,0
1529292958188498,10,16,5,3,-2,-5,1,8
1529292958188498,-3,-23,6,-11,19,15,9,-5
1529292958203666,-1,-3,3,6,3,-1,-5,-1
1529292958203666,5,23,-13,-30,-13,-2,3,-1
1529292958218629,-2,-8,0,8,8,0,4,1
1529292958218629,3,0,6,-9,-6,1,1,1
1529292958226723,-3,-7,-6,-3,8,8,1,-5
1529292958226723,2,8,-1,3,2,0,-4,-1
1529292958248627,-5,-3,-7,7,1,-3,-5,-3
1529292958248627,-3,3,4,-14,-3,8,9,-4
1529292958256674,2,0,-6,-2,1,-1,-3,-4
1529292958256674,-3,-18,5,-1,-12,-6,4,5
1529292958271548,-3,-6,2,-7,-12,-3,-5,-3
1529292958271548,-5,-8,10,56,17,9,-3,-3
1529292958285659,3,9,9,-5,-2,-2,0,1
1529292958285659,11,13,3,-22,6,8,10,12
1529292958293878,-11,-10,-1,28,-18,-22,-20,-13
1529292958293878,-7,-6,-14,-48,-22,-8,-2,-3
1529292958300857,1,4,3,34,20,11,15,13
1529292958300857,-6,-12,-1,10,3,12,9,1
1529292958308743,4,4,6,-9,2,-1,3,1
1529292958308743,7,17,9,6,-3,-6,-4,4
1529292958323704,3,16,5,4,10,6,5,3
1529292958323704,-2,0,-8,3,2,3,0,2
1529292958338663,1,3,2,-15,-2,5,4,-1
1529292958338663,-1,-1,-6,3,3,-15,-10,-2
1529292958345815,-4,-28,1,-1,-1,0,3,5
1529292958345815,-1,-10,-3,0,0,8,5,0
1529292958360774,2,-1,1,-3,-11,-11,3,5
1529292958360774,3,12,-8,-2,8,7,6,-1
1529292958369082,-1,-8,14,46,25,9,4,3
1529292958369082,1,-3,1,-17,-5,-2,1,0
1529292958383963,-1,1,-17,-31,-13,-7,-5,-2
1529292958383963,6,13,5,34,23,5,3,5
1529292958398890,-3,-1,0,-6,-5,13,6,-3
1529292958398890,10,29,11,11,-1,-2,-6,0
1529292958405905,-2,2,-9,-11,-3,-2,-7,-3
1529292958405905,-5,-4,-14,-20,-15,-18,-9,-8
1529292958421046,-2,-2,0,-4,3,-3,-6,-4
1529292958421046,3,3,1,18,6,2,3,4
1529292958429061,5,9,-2,-4,-2,4,4,5
1529292958429061,-2,-3,-1,9,2,0,2,0
1529292958444264,0,-3,2,-8,-3,-5,-9,-5
1529292958444264,2,-7,4,-9,-8,-5,1,2
1529292958466564,3,0,3,10,12,17,9,4
1529292958466564,0,-11,2,0,-1,2,2,3
1529292958473607,2,4,-6,-8,-1,4,4,1
1529292958473607,1,6,1,4,-5,-6,-4,0
1529292958488914,-8,-2,-17,-11,-6,-9,-8,-10
1529292958488914,-9,-34,40,22,0,1,2,1
1529292958496532,0,7,0,1,-2,-2,2,2
1529292958496532,-1,-3,-10,-5,-3,4,-2,-1
1529292958511533,-2,-4,-3,-9,-10,-6,1,1
1529292958511533,0,-3,4,10,5,3,2,-2
1529292958526527,-1,-2,1,-3,2,0,3,0
1529292958526527,1,5,-6,-3,-5,-6,-7,-1
1529292958541551,-3,-2,3,-3,-7,-8,-5,-1
1529292958541551,0,2,3,2,2,-4,-1,-1
1529292958548573,2,7,-1,1,4,6,9,5
1529292958548573,-1,-6,-3,-8,-4,3,1,2
1529292958563735,-7,-11,-14,-2,-6,-5,-4,-4
1529292958563735,-2,-6,2,-10,3,-1,4,1
1529292958578692,0,-3,-13,-9,-8,-6,-1,-1
1529292958578692,0,2,13,5,-3,-5,-3,-2
1529292958585676,1,0,2,-14,-4,-2,-2,0
1529292958585676,0,6,10,16,1,0,-2,-4
1529292958601451,-7,-1,10,2,-4,-6,1,-2
1529292958601451,-2,-1,-8,-6,3,-2,-4,-2
1529292958608431,0,6,2,-6,-5,-1,1,-3
1529292958608431,-3,-3,1,-7,-9,-3,0,-2
1529292958623428,3,0,-4,2,4,5,-2,-1
1529292958623428,-3,-4,-12,-9,-8,-10,-6,-7
1529292958638351,-1,-14,4,5,-3,-6,0,0
1529292958638351,-1,-2,-2,-5,-1,9,-1,-1
1529292958646109,-4,-8,1,13,-4,-9,2,-1
1529292958646109,2,0,7,8,-1,-1,4,1
1529292958676432,1,-7,3,4,5,10,1,1
1529292958676432,-3,-11,1,3,-4,1,1,-2
1529292958683360,-4,-5,-6,-2,-5,-3,-5,-5
1529292958683360,-5,-7,-4,1,-5,-6,-4,-6
1529292958698347,-2,-4,3,-1,1,0,0,-1
1529292958698347,-3,2,-7,-8,-4,-4,-1,0
1529292958713711,-1,-1,4,2,-7,-3,-3,0
1529292958713711,-1,-3,1,2,-2,2,-2,-1
1529292958728817,-1,-2,-2,-2,2,4,-1,0
1529292958728817,1,0,-2,-1,7,7,-1,0
1529292958744165,0,1,-3,1,-3,4,0,0
1529292958744165,0,1,-1,-1,-7,5,2,-2
1529292958758791,-4,-1,-1,-4,-8,-1,0,-1
1529292958758791,-2,-5,-2,0,3,0,1,0
1529292958765954,-3,-10,1,-3,-26,3,-2,0
1529292958765954,-2,-2,3,-2,-13,3,0,0
1529292958780916,-1,1,0,0,1,0,0,0
1529292958780916,0,0,-6,-2,67,2,-2,-2
1529292958787938,0,3,-3,-5,90,-1,-2,-2
1529292958787938,-3,2,-2,-4,50,-2,-1,-2
1529292958802898,2,5,-3,-4,-33,-5,-1,-1
1529292958802898,1,0,0,0,-32,-4,2,-1
1529292958818855,2,1,-2,-7,-18,-1,-1,-2
1529292958818855,1,-2,1,4,-13,-5,0,0
1529292958825836,0,0,-1,-3,0,1,0,-1
1529292958825836,-1,-2,-1,0,2,3,-1,1
1529292958840708,-1,0,-2,-4,-4,1,-3,-2
1529292958840708,0,-1,-3,-8,-11,4,-1,0
1529292958848680,-1,-1,-4,-4,-8,2,0,-2
1529292958848680,-2,-3,-2,-3,-5,1,0,-1
1529292958863645,-2,3,-1,-4,-4,-3,-4,-1
1529292958863645,-2,-1,0,-3,3,-2,-2,-2
1529292958878597,-2,-2,1,2,5,0,0,-1
1529292958878597,-1,2,-3,2,-1,1,0,-1
1529292958885586,-1,-1,-1,4,-4,0,-1,-3
1529292958885586,-2,-2,-1,2,2,0,-2,-2
1529292958900809,-1,1,-2,1,1,-2,-1,0
1529292958900809,-2,-1,-1,-5,-6,-2,-1,-2
1529292958908930,-2,0,-1,-3,-3,-1,1,-1
1529292958908930,-2,-1,-2,1,0,-1,0,-1
1529292958923876,-2,-3,1,2,-1,-4,-2,0
1529292958923876,-1,-8,3,1,-1,-1,-1,-1
1529292958938848,-1,-2,-3,-1,-1,-1,0,-1
1529292958938848,-2,-1,-1,-4,0,-2,-2,-1
1529292958946062,-1,-1,-1,8,-1,-3,-1,-1
1529292958946062,2,3,-3,-3,0,-1,-1,0
1529292958961547,-3,-1,-1,-2,1,0,-1,-1
1529292958961547,0,-1,-2,-1,-4,0,-1,-1
1529292958969160,-3,-3,-1,-1,-3,2,0,0
1529292958969160,-1,0,0,-2,-1,1,1,0
1529292958984155,0,-1,-2,-4,-1,-1,-2,1
1529292958984155,-2,0,-1,0,-2,0,-1,-2
1529292958999111,0,-2,2,-2,0,-1,-1,-2
1529292958999111,-2,0,-2,-1,-1,0,0,-2
1529292959013042,1,-1,-1,0,-2,-2,-1,-1
1529292959013042,-3,-1,-3,0,-1,-4,0,0
1529292959028235,-1,1,-1,-1,-2,-2,0,0
1529292959028235,-1,-1,0,1,-1,-1,-1,1
1529292959036186,1,0,-3,-3,-2,2,1,0
1529292959036186,1,-1,-1,1,0,0,-1,-1
1529292959051592,1,-2,0,0,-3,-2,-1,-1
1529292959051592,-1,0,-2,1,0,-3,-1,-1
1529292959058722,-2,-2,0,-1,1,-1,-1,-2
1529292959058722,-2,-1,-1,-1,-1,0,-1,-1
1529292959066548,-1,-1,0,-4,-2,-2,-2,-1
1529292959066548,1,0,-2,-1,-2,-2,-1,-1
1529292959081733,-2,0,-3,-2,-1,1,0,0
1529292959081733,0,-3,-1,0,-1,-1,-2,0
1529292959088642,0,1,-1,-1,-1,-1,-2,-2
1529292959088642,-2,-1,-2,0,-2,-1,-1,-2
1529292959103650,0,-1,-2,-3,-1,-1,-1,0
1529292959103650,-2,-1,-2,-1,-1,-1,0,-2
1529292959111658,-1,-2,-2,-2,-1,-1,1,-2
1529292959111658,-3,0,-1,-2,1,-1,0,1
1529292959126568,-1,-1,-2,1,-1,0,-1,-2
1529292959126568,-2,-1,-2,-3,-1,-1,-2,-1
1529292959141555,-1,1,-1,0,-1,-1,-1,1
1529292959141555,-3,-1,-1,0,-3,-2,0,-2
1529292959148706,-2,-1,-1,-2,-1,-1,0,0
1529292959148706,-1,-1,-1,-1,-2,-1,-2,-2
1529292959164171,-2,-1,-2,0,-3,-2,0,-1
1529292959164171,0,-1,-1,0,-1,-1,0,0
1529292959171598,0,-1,-1,-1,-3,-1,-1,-3
1529292959171598,-2,0,1,-2,0,-2,-2,-1
1529292959185735,-3,-6,0,0,-2,-2,1,0
1529292959185735,0,-1,-2,1,-4,0,-1,1
1529292959201117,-3,0,-2,0,-2,0,-1,-2
1529292959201117,0,-2,-2,-1,-1,0,-1,-1
1529292959209035,0,0,0,-2,3,0,-2,0
1529292959209035,0,-2,0,-3,0,-1,-2,-3
1529292959224028,-1,0,0,-2,0,-2,-2,-1
1529292959224028,1,-1,-1,0,-2,0,-1,-2
1529292959231259,2,1,-2,0,-3,0,-2,1
1529292959231259,1,1,-1,-2,-2,-1,-2,0
1529292959246387,-1,0,-1,-4,1,2,0,-2
1529292959246387,-1,1,-1,-1,3,-2,0,0
1529292959261187,1,-4,-1,-2,1,1,-2,-3
1529292959261187,-1,-1,-1,-2,0,0,-3,-2
1529292959269036,-2,-3,-2,-1,3,0,-2,-2
1529292959269036,-2,-2,0,-1,-1,1,-2,-2
1529292959283589,-3,-1,-1,0,-3,1,-2,0
1529292959283589,-3,3,-1,-2,-3,-3,0,0
1529292959291533,-1,-1,-2,1,-1,-4,0,1
1529292959291533,-2,-3,0,-1,0,-5,1,0
1529292959305955,-1,-2,-2,-3,-4,-2,-1,1
1529292959305955,-2,-3,-1,3,-3,-2,0,-1
1529292959320777,-1,-3,0,1,-2,-3,0,-1
1529292959320777,-1,0,-2,-2,-1,-2,-1,-1
1529292959328884,-2,0,0,2,-1,-1,0,-1
1529292959328884,-1,-2,-2,-2,-2,0,-1,-2
1529292959343327,0,-2,0,-1,-5,-2,-1,0
1529292959343327,0,-2,-2,0,-1,-1,1,-1
1529292959351498,1,-1,-3,-9,-2,-1,0,-1
1529292959351498,-2,0,0,9,0,-2,-1,-3
1529292959366449,0,1,-1,0,0,2,-3,-2
1529292959366449,-1,0,-1,-4,0,0,-1,-3
1529292959381421,-2,-1,0,-1,-1,-1,-1,-1
1529292959381421,-1,-3,-3,-7,-1,0,0,0
1529292959388832,-2,-3,-2,11,-2,-4,-2,-1
1529292959388832,1,-1,-2,-2,-1,0,1,1
1529292959403051,0,-1,-2,-2,1,0,-1,0
1529292959403051,1,3,-2,-2,1,0,-1,0
1529292959411341,-1,-3,-4,0,-4,-2,-3,-3
1529292959411341,-1,-1,-1,0,-1,-2,0,0
1529292959426151,-2,-1,0,-2,0,2,0,-2
1529292959426151,-1,-1,-1,1,0,-1,-2,-2
1529292959441340,0,-1,-3,-5,-1,0,-1,0
1529292959441340,-1,-2,0,0,-2,1,-2,-1
1529292959448342,0,0,1,7,-2,-2,-2,-1
1529292959448342,0,-2,-1,-7,-1,-1,-1,0
