timestamp,emg1,emg2,emg3,emg4,emg5,emg6,emg7,emg8
1528441305830817,-7,-9,-14,-45,-37,-9,-3,-8
1528441305830817,-2,-1,2,4,11,-15,-12,-5
1528441305841762,-3,-4,-8,-17,-12,-2,-4,-2
1528441305841762,4,2,8,32,9,-11,-3,2
1528441305845752,-2,-3,-10,-24,2,23,6,-3
1528441305845752,4,4,8,22,-7,-11,6,4
1528441305853731,2,0,-1,7,9,9,0,0
1528441305853731,-1,0,-1,-3,-7,1,9,0
1528441305860759,-3,-4,-10,-18,5,-7,-11,-5
1528441305860759,-1,0,1,7,-8,-4,-2,0
1528441305876681,-1,-2,-3,3,14,6,-1,-2
1528441305876681,-5,-4,-10,-42,-18,-11,-5,-5
1528441305901602,-4,0,4,33,0,-11,-8,-2
1528441305901602,2,1,5,-1,-1,14,11,2
1528441305905592,-2,-3,2,8,3,-1,-5,-1
1528441305905592,1,-2,2,-31,-7,2,2,5
1528441305920550,-1,0,19,12,-7,9,9,-2
1528441305920550,1,0,-1,29,38,4,-6,4
1528441305935512,-5,-6,-31,-25,-33,-31,-15,-5
1528441305935512,-6,-2,-11,37,13,-11,-9,-7
1528441305943491,-1,-6,-27,-41,-7,16,2,-6
1528441305943491,-2,0,6,2,-17,-12,-10,-3
1528441305961442,-4,-5,5,-32,-22,-11,-6,-2
1528441305961442,-7,-6,20,25,9,1,1,-16
1528441305965430,2,5,41,-10,-22,-14,-11,-1
1528441305965430,-1,-3,31,29,37,42,15,2
1528441305980392,3,3,-9,-7,-22,-17,1,6
1528441305980392,2,-3,-28,-24,6,12,8,4
1528441305995351,-1,-4,19,30,15,-6,-9,-5
1528441305995351,-2,-5,-10,-35,-43,-24,-10,0
1528441306012306,-2,-2,-48,3,-11,-16,-5,-3
1528441306012306,-3,-2,-33,3,0,-1,-6,-2
1528441306018290,-4,1,-12,-9,-2,-2,0,-10
1528441306018290,2,1,-14,22,-7,-8,-2,5
1528441306040231,3,2,4,8,7,2,10,10
1528441306040231,-2,2,18,21,18,5,5,3
1528441306048209,-4,-3,15,8,20,6,-3,-8
1528441306048209,5,4,17,-58,-47,-11,-4,1
1528441306063170,-1,2,31,25,22,0,-7,6
1528441306063170,-6,-3,21,0,-9,-2,-7,-18
1528441306078129,-1,1,7,-34,-6,0,3,0
1528441306078129,1,1,0,24,15,5,-3,2
1528441306086108,1,-2,-7,-16,-19,-13,-5,-1
1528441306086108,-5,-6,8,-2,5,4,2,-5
1528441306093089,0,2,13,29,10,1,0,-1
1528441306093089,-3,-5,14,-23,-14,-9,-13,-9
1528441306101067,-3,-5,-25,-14,-16,-7,-4,3
1528441306101067,3,3,-15,14,8,1,2,9
1528441306116029,-2,1,-38,-6,5,1,2,-1
1528441306116029,4,-1,-25,-20,-5,2,4,-6
1528441306137995,17,4,-1,1,4,3,-1,0
1528441306137995,-3,-6,10,4,0,-1,-3,8
1528441306145975,11,14,12,-29,-22,-12,-12,-9
1528441306145975,-12,-27,-30,6,7,2,4,1
1528441306152930,-6,-4,25,3,1,2,4,0
1528441306152930,6,25,46,1,3,-4,-4,-3
1528441306160908,-4,-18,-25,7,6,8,3,10
1528441306160908,0,11,29,6,-6,-5,-4,-5
1528441306182849,-2,1,-16,-15,-14,0,5,8
1528441306182849,7,15,11,3,-12,-12,-11,-7
1528441306190860,-4,0,-3,0,5,6,9,7
1528441306190860,0,11,11,2,3,-1,-7,-12
1528441306197841,-5,1,-1,27,20,4,-3,0
1528441306197841,9,13,5,-28,-26,-11,2,5
1528441306205788,0,0,3,-1,1,-1,2,2
1528441306205788,1,-5,-23,-5,1,12,14,7
1528441306220748,0,9,32,4,-1,0,11,8
1528441306220748,9,15,12,-3,8,16,30,19
1528441306235708,-8,8,10,-7,-7,-5,-5,-4
1528441306235708,-10,6,-4,1,0,-2,-15,-20
1528441306242690,0,1,-1,34,14,6,8,6
1528441306242690,-4,2,-2,-25,-12,-8,-18,-6
1528441306258661,11,33,49,9,-6,-12,-6,-1
1528441306258661,-13,-33,-34,10,15,14,13,-2
1528441306265628,1,3,6,-20,-14,-5,-11,-12
1528441306265628,2,-3,32,19,-1,-10,-8,0
1528441306288571,3,0,50,28,18,12,18,14
1528441306288571,0,-11,36,-7,1,2,-15,-7
1528441306295548,-11,-22,14,-25,-13,-9,-10,-7
1528441306295548,-2,-8,16,22,-5,-3,3,1
1528441306310510,-9,-19,-41,-25,4,-3,-20,-23
1528441306310510,-5,-10,-19,23,-5,-3,-18,-16
1528441306318523,13,1,-23,-2,24,25,42,39
1528441306318523,-3,-9,-48,-13,-10,-8,3,-7
1528441306333448,6,3,-63,-4,-4,-9,8,16
1528441306333448,-14,-10,-108,-9,9,-10,-27,-31
1528441306348448,-16,-11,-54,-23,-24,-12,-3,-12
1528441306348448,7,17,14,41,14,4,-2,12
1528441306355438,-1,17,-5,33,-1,-3,-3,-4
1528441306355438,-2,14,21,-19,7,14,5,0
1528441306370358,-2,5,5,-14,-1,-3,-27,-17
1528441306370358,5,6,48,28,-8,-11,4,11
1528441306400306,6,6,-24,42,6,3,8,6
1528441306400306,-8,-18,1,-55,-38,-17,-2,-5
1528441306408287,1,-2,38,35,4,-8,-9,-3
1528441306408287,-8,-8,32,15,-3,-11,-4,-7
1528441306423260,5,3,42,-89,-11,6,5,5
1528441306423260,-3,-8,23,-5,4,0,6,0
1528441306431206,-7,-12,61,-6,-4,5,-11,-9
1528441306431206,-4,-11,40,1,-12,-12,-6,-5
1528441306461160,-2,-5,21,33,7,-2,-10,-10
1528441306461160,-3,-6,-7,-8,0,-4,-12,0
1528441306476065,-6,-6,-16,11,-4,-9,-7,-9
1528441306476065,9,15,-22,-6,6,9,8,7
1528441306483055,-24,0,11,2,-8,-15,-18,-15
1528441306483055,21,-13,-25,9,6,9,3,7
1528441306498007,-8,-13,-33,-9,-8,-7,1,3
1528441306498007,14,20,5,-1,9,0,3,0
1528441306513020,-5,0,-5,37,4,-5,-9,-9
1528441306513020,-3,10,-12,-16,-4,0,-4,-3
1528441306535906,7,15,9,-16,-6,0,2,1
1528441306535906,-3,-10,13,28,19,10,12,3
1528441306542906,10,14,25,-11,-3,-5,-6,3
1528441306542906,-9,-8,11,-1,5,8,6,-1
1528441306557867,2,2,12,-17,-4,-4,-8,-6
1528441306557867,1,5,4,-5,-4,1,10,2
1528441306573877,-8,14,21,17,17,12,2,-6
1528441306573877,-6,4,-20,-8,-2,-2,-2,-2
1528441306587785,3,0,-20,-43,5,0,3,2
1528441306587785,0,-4,9,31,18,25,10,8
1528441306595854,-1,-13,16,3,7,-9,-11,-5
1528441306595854,1,-16,31,-9,1,7,-3,7
1528441306610777,0,-21,57,20,-3,0,5,2
1528441306610777,-2,-15,79,-6,7,-2,-14,-10
1528441306618755,1,-17,-18,-8,-1,6,-5,-4
1528441306618755,-9,-23,-30,-5,-16,-10,-9,-1
1528441306632755,4,-8,-52,-2,-2,0,11,6
1528441306632755,-7,-4,-74,42,9,-7,-8,-3
1528441306648711,1,1,-84,-29,-12,14,17,22
1528441306648711,-4,-6,-50,-14,-9,-18,-2,-1
1528441306655695,-3,-8,-8,-35,-5,-4,1,-3
1528441306655695,5,7,1,14,-4,5,2,6
1528441306679594,0,5,25,42,24,3,-5,-5
1528441306679594,-1,1,17,-35,-5,6,10,5
1528441306693555,6,5,62,36,-2,-5,-7,3
1528441306693555,-1,-5,69,-39,2,-2,5,0
1528441306708515,-3,0,56,21,-8,-1,-10,-11
1528441306708515,-2,-8,34,32,7,1,5,2
1528441306723729,-1,-5,10,3,-1,-7,-8,0
1528441306723729,-5,-10,-15,-31,-19,-7,-3,-6
1528441306738702,-6,-9,-10,-9,-7,-13,-2,-7
1528441306738702,4,-2,-23,-5,-3,3,1,5
1528441306753395,0,1,-15,-9,-4,-2,-5,-5
1528441306753395,-2,-8,-12,-1,-4,-4,1,-3
1528441306768358,3,-3,23,2,-2,1,16,15
1528441306768358,12,33,49,-5,2,5,12,9
1528441306776581,0,3,-30,6,1,-3,-7,-7
1528441306776581,-3,-21,-58,0,11,13,10,13
1528441306791427,-4,-1,-27,-11,-19,-15,-18,-24
1528441306791427,-19,-13,-38,-5,-4,-9,-14,-15
1528441306805625,0,-5,14,47,20,6,0,5
1528441306805625,-3,6,-21,-17,-7,-5,-9,-7
1528441306813668,-5,8,15,5,1,-7,-12,-13
1528441306813668,4,19,26,18,10,0,0,4
1528441306835613,-6,-5,-10,-32,-15,-4,-12,-12
1528441306835613,1,-2,26,-4,-7,-4,-2,0
1528441306843856,2,6,34,18,-1,-14,-16,8
1528441306843856,-1,-24,-4,-10,12,27,47,21
1528441306858816,2,10,48,9,3,-3,-4,-5
1528441306858816,-3,-15,-10,-11,-2,-2,-10,-1
1528441306873930,10,31,25,24,15,14,43,35
1528441306873930,1,7,-33,9,-5,1,13,13
1528441306881017,4,29,17,-11,-3,-1,10,0
1528441306881017,-7,9,11,-5,2,-3,-21,-21
1528441306889001,0,2,1,16,3,-1,-8,-7
1528441306889001,0,-4,7,-27,-7,-1,-3,-4
1528441306895714,-2,-4,35,13,-1,-1,9,0
1528441306895714,-8,-13,34,11,0,-11,-16,-18
1528441306911205,-5,-13,8,-30,-15,4,-11,-2
1528441306911205,3,-5,3,25,18,0,16,10
1528441306925884,-3,-12,0,3,-12,-10,-21,-15
1528441306925884,2,-7,-7,9,1,1,3,0
1528441306932865,-3,-16,-48,-7,5,2,0,2
1528441306932865,4,4,-10,-13,-10,-8,-11,-5
1528441306947825,-6,-7,4,36,17,4,3,-3
1528441306947825,1,4,-25,-35,-18,1,10,-3
1528441306955804,-1,0,-10,25,4,1,1,6
1528441306955804,-1,3,38,2,-3,-1,-5,-4
1528441306970763,-3,1,-50,-5,-6,-7,-11,-7
1528441306970763,-4,-5,-8,-9,-3,-2,-12,-2
1528441306985727,-2,-2,7,-27,-3,-2,-3,-3
1528441306985727,4,4,16,23,8,11,18,13
1528441306993736,2,4,-19,-19,-4,-1,-11,-8
1528441306993736,-2,3,63,22,-3,-5,-6,2
1528441307008694,1,0,-1,-22,-5,-4,-2,-1
1528441307008694,-2,2,0,-1,-4,-7,-16,-10
1528441307015902,-5,-4,34,-4,1,-1,-4,-2
1528441307015902,-3,-1,5,16,-3,-6,-1,-5
1528441307030890,-2,-2,-12,1,-3,-1,0,3
1528441307030890,-1,3,2,3,4,0,-4,-3
1528441307037872,-4,-3,24,1,-9,-4,-1,1
1528441307037872,2,3,-2,-13,1,0,-4,-8
1528441307053959,0,0,-26,-14,-1,0,5,2
1528441307053959,0,0,18,5,-4,-4,-3,-3
1528441307068124,-1,2,5,6,0,-3,-4,-3
1528441307068124,-2,0,-3,-3,0,1,0,-4
1528441307076103,-1,0,-7,-2,-4,-3,-7,2
1528441307076103,-1,-1,-9,3,4,4,7,1
1528441307090291,-2,-4,-10,-3,-3,-2,2,-2
1528441307090291,-2,-1,-15,-4,1,-3,-9,-5
1528441307098269,-3,-4,-15,-24,-12,-8,-5,-4
1528441307098269,-3,-2,16,28,7,5,2,-8
1528441307113748,-1,-2,-10,-16,-4,0,-1,1
1528441307113748,-4,-2,-4,16,6,3,-3,-2
1528441307128443,0,-1,-5,-14,-3,-4,1,-1
1528441307128443,-1,-2,5,-9,-4,-2,-3,-2
1528441307136441,-2,-2,0,2,0,-1,3,1
1528441307136441,-2,-1,-2,-5,-1,-1,-3,-2
1528441307150433,0,0,0,3,0,-3,-1,2
1528441307150433,-1,0,-4,3,-3,-1,-3,-2
1528441307158363,1,0,-3,-4,2,4,3,3
1528441307158363,-2,-1,-16,-3,-2,-3,-8,0
1528441307173323,-1,-1,-18,3,1,4,2,-2
1528441307173323,2,1,-30,-2,-1,0,1,-1
1528441307180340,-1,-1,-17,2,1,-2,0,-2
1528441307180340,-1,-1,11,0,-2,-3,-2,-3
1528441307188311,-2,-3,-22,-3,-3,-3,-5,-1
1528441307188311,-1,-2,15,-1,-2,-3,-4,-1
1528441307195276,0,0,21,-1,0,-1,-1,1
1528441307195276,-1,-1,-24,-1,-1,1,-1,-2
1528441307218237,-2,-2,27,-6,1,-1,-1,-1
1528441307218237,0,0,31,0,-3,-2,0,1
1528441307226181,-1,0,-1,1,-2,-4,-5,-3
1528441307226181,0,1,6,-5,1,4,9,3
1528441307241160,1,0,-5,3,0,0,1,-1
1528441307241160,0,0,13,5,1,-2,1,-1
1528441307248177,0,-3,-23,-1,1,3,2,-1
1528441307248177,0,-4,3,-4,-1,-1,0,-2
1528441307256149,-3,-1,28,-7,-2,-2,-2,1
1528441307256149,-3,-7,-10,-4,-3,-7,-5,-4
1528441307271115,0,-4,-4,-1,1,7,2,-1
1528441307271115,-1,-5,-8,-3,-3,-14,-12,-4
1528441307286078,-3,-5,1,-2,1,7,3,0
1528441307286078,1,-1,2,1,0,5,4,0
1528441307301027,0,-4,-23,-2,-3,-5,-2,-2
1528441307301027,-2,-3,-11,-1,-3,-1,0,-2
1528441307308008,-3,-1,9,-4,-5,-9,-7,-2
1528441307308008,-2,-2,-19,0,-5,-6,-5,-4
1528441307324917,0,-1,-3,3,1,-5,1,1
1528441307324917,2,3,10,4,10,19,7,2
1528441307330903,-1,2,-2,1,1,3,4,-1
1528441307330903,-1,-1,-7,-2,-6,-5,-6,-2
1528441307337883,-3,0,-6,-5,-9,-16,-9,-5
1528441307337883,-5,0,0,-2,-6,-8,-8,-4
1528441307345863,1,-1,-2,2,9,26,20,7
1528441307345863,0,1,3,1,3,-6,-2,2
1528441307360821,0,-1,12,-1,2,3,-1,-1
1528441307360821,-1,-6,-11,-2,-4,-8,-3,-1
1528441307367803,-1,-6,-22,-1,0,7,1,0
1528441307367803,1,-1,-24,-2,0,6,3,1
1528441307375782,-1,-1,-11,-2,-1,-7,-2,-3
1528441307375782,-3,0,1,0,0,4,2,-1
1528441307390742,0,3,2,-2,-2,-3,-3,0
1528441307390742,-1,1,13,-2,-1,2,0,-2
1528441307398721,0,0,28,-1,-5,-8,-6,0
1528441307398721,-2,2,19,0,-1,3,2,0
1528441307413729,-1,4,17,1,3,6,4,1
1528441307413729,-1,1,10,0,-1,-6,-1,0
1528441307428642,-1,2,-3,1,4,11,4,-1
1528441307428642,0,0,-10,-2,-4,-4,-1,-2
1528441307435622,2,0,-8,-3,-1,-2,-3,-2
1528441307435622,-2,0,-5,-1,-2,2,-1,1
1528441307443637,-3,-2,-10,-2,-3,-12,-6,-1
1528441307443637,-1,-2,-8,-1,1,4,0,-1
1528441307458617,-2,1,-1,0,-3,-4,0,-2
1528441307458617,2,-2,-5,-2,-3,-5,-4,-2
1528441307465568,-1,-1,-5,-2,-2,-4,-1,-2
1528441307465568,0,-2,-2,-1,1,4,-1,-1
1528441307473520,-1,-3,-3,-1,-1,0,0,1
1528441307473520,-1,-4,-7,-2,0,2,2,-1
1528441307481499,0,-2,-3,-2,-1,-2,-1,-1
1528441307481499,-2,-2,0,-1,-3,-2,-1,-2
1528441307488743,-1,-1,-3,-1,-1,-1,-2,-2
1528441307488743,-1,-1,5,-2,0,4,1,-2
1528441307495773,-1,1,5,-2,-1,-2,-3,-1
1528441307495773,-1,2,2,-1,0,-3,-4,0
1528441307511405,-2,3,2,-3,-1,0,0,-1
1528441307511405,-1,5,5,-1,2,2,3,1
1528441307518719,1,3,4,0,-3,-3,-2,-1
1528441307518719,1,4,3,-2,-1,1,0,-2
1528441307533683,1,1,0,-1,-2,1,-1,-1
1528441307533683,-1,-1,0,-1,0,0,3,0
1528441307541550,-2,-2,-2,0,-1,-3,-3,-1
1528441307541550,-1,-3,-4,1,-1,1,1,0
1528441307548372,-1,-3,-2,1,1,-2,-1,-1
1528441307548372,-2,-5,-4,-1,-2,-3,1,-3
1528441307556471,-1,-6,-3,-2,0,0,1,-2
1528441307556471,0,-4,-2,-1,-1,1,1,-2
1528441307570455,-3,-3,-2,-2,-2,2,-1,0
1528441307570455,-2,2,-4,0,-1,1,-1,0
1528441307578433,-2,2,1,0,-1,1,0,0
1528441307578433,-1,0,2,-2,-2,3,0,-1
1528441307594012,-1,-1,0,-1,-1,2,-2,-2
1528441307594012,-1,-2,0,-2,-2,1,-4,-2
1528441307600923,-1,-3,2,-2,-1,-3,-1,-1
1528441307600923,-1,-5,3,-1,-1,-1,0,-2
1528441307608906,-1,-4,5,-1,0,-2,-2,-2
1528441307608906,-1,-2,1,-1,-2,-5,-1,1
1528441307615882,-1,-2,-1,-2,-2,-3,-4,0
1528441307615882,-1,0,-2,0,-1,-3,-4,0
1528441307630582,-1,-1,0,-1,-1,3,0,0
1528441307630582,0,-1,-1,-1,-2,-2,0,-1
1528441307638561,1,0,-8,-1,-1,-5,-1,-1
1528441307638561,-3,-2,-8,0,1,-8,0,1
1528441307653521,0,-1,-7,0,-1,-8,-2,0
1528441307653521,0,-2,-5,-3,0,-5,-1,-1
1528441307660504,-2,1,-5,-1,-1,-2,-2,-1
1528441307660504,1,-1,-5,-2,-1,-3,-1,0
1528441307668848,-1,-1,-5,-2,-1,-4,-1,-1
1528441307668848,-1,-2,-3,1,0,0,-1,-3
1528441307675809,-1,-2,-1,-1,0,2,1,-1
1528441307675809,0,0,-2,-1,1,2,2,0
1528441307691216,-1,1,-3,-2,-1,0,-2,-2
1528441307691216,-2,0,-2,-2,-1,1,-1,0
1528441307699154,-1,-2,-2,0,0,1,-2,-2
1528441307699154,0,-2,-2,0,-1,2,-3,0
1528441307713706,-2,-2,-2,0,-3,0,-1,0
1528441307713706,-1,0,-1,2,0,0,-1,-2
1528441307721467,-2,-2,-1,0,-1,-1,0,-2
1528441307721467,-1,-2,1,-1,0,-1,-3,0
1528441307728200,-1,0,0,-1,1,0,-2,0
1528441307728200,-1,0,1,-2,-1,0,-2,-2
1528441307736387,0,-1,-2,-1,-2,0,-2,0
1528441307736387,-2,0,-1,-1,-1,-1,0,-3
1528441307751368,-1,-1,0,0,-1,-2,2,-2
1528441307751368,0,-1,-1,-2,-2,-5,-1,-1
1528441307758359,0,-2,-1,-1,0,-2,0,-1
1528441307758359,-2,-1,-3,-2,-1,1,-2,-1
1528441307781322,-1,-2,-1,0,-1,0,-1,0
1528441307781322,-1,-2,-2,-4,0,1,-1,-3
1528441307789067,-1,-2,-3,0,-2,2,0,-1
1528441307789067,-1,0,0,-1,-1,0,-1,-1
1528441307796034,-2,-1,-1,-1,-1,-2,0,0
1528441307796034,0,-1,0,0,-2,1,-2,0
1528441307803264,-2,-1,0,-1,-1,0,0,0
1528441307803264,-1,-1,-1,1,-3,-3,-1,0
1528441307819023,0,-1,-1,-2,-2,-1,-1,-3
1528441307819023,1,-2,-2,-1,0,0,0,0
1528441307833931,-1,0,-1,0,-1,-1,-1,0
1528441307833931,-2,0,1,1,0,-1,2,-1
1528441307841216,-1,-1,-1,-1,0,-1,-2,0
1528441307841216,0,-4,-3,-1,1,-1,0,-2
1528441307848446,-1,-2,0,-1,0,0,0,-2
1528441307848446,-1,-1,0,1,0,0,0,-2
1528441307856431,0,0,0,-1,-2,1,0,-1
1528441307856431,-1,0,0,-1,0,0,-1,-1
1528441307871120,0,-1,-1,-3,-2,-1,-2,-1
1528441307871120,0,-1,-1,-1,-1,-3,-2,1
1528441307878131,1,0,-2,-1,-2,-2,-1,-1
1528441307878131,1,-1,-1,-1,-1,-2,-2,-1
1528441307893360,-2,-2,-1,0,-1,-2,-1,1
1528441307893360,-1,0,0,-2,-1,-1,-2,-1
1528441307901491,-2,-3,-1,0,-2,-1,0,-2
1528441307901491,-2,-1,-2,-3,0,-1,0,0
1528441307908815,-2,0,0,-2,-1,-1,0,-2
1528441307908815,-1,-2,-2,-1,-2,0,-2,0
1528441307915825,0,-2,-2,0,0,0,-3,-2
1528441307915825,-1,-2,-1,0,-3,-3,0,-1
1528441307931185,-1,-1,-1,-1,-1,-2,0,-1
1528441307931185,-2,-1,0,-1,0,-2,0,-1
1528441307939057,-3,-1,0,1,-1,-1,0,0
1528441307939057,-1,-2,0,0,-3,0,0,-1
1528441307953781,0,-1,0,0,1,-1,-1,0
1528441307953781,0,0,-2,0,-1,0,-2,-2
1528441307968272,-1,0,0,-1,-2,-1,-1,-2
1528441307968272,0,0,-2,-2,-1,-1,2,-1
1528441307983467,-1,0,0,-2,0,-2,1,-1
1528441307983467,-1,-1,0,-1,-1,-1,2,0
1528441307991192,-1,-3,0,0,-3,-1,0,-1
1528441307991192,-1,-1,-1,0,-2,0,-2,-1
1528441308006454,0,0,-1,-2,0,-3,-4,-2
1528441308006454,0,-1,-1,-2,0,-2,-1,-2
1528441308013738,0,-2,-3,-1,-1,-1,-1,0
1528441308013738,-1,-1,0,0,-1,0,-2,-1
1528441308028769,1,-1,-2,0,-1,0,-1,0
1528441308028769,1,0,-1,-2,-1,-2,0,-1
1528441308043395,-2,0,1,-2,-1,0,-1,-1
1528441308043395,-2,-1,-2,-1,-3,-1,-4,-1
1528441308051409,0,-1,0,-1,0,0,-3,-2
1528441308051409,-2,0,-1,-2,-1,-2,-2,0
