timestamp,emg1,emg2,emg3,emg4,emg5,emg6,emg7,emg8
1528185799454336,-1,-2,0,0,-1,0,0,-1
1528185799454336,-2,0,0,0,-1,-2,1,-4
1528185799460319,0,0,-1,1,-1,-1,1,0
1528185799460319,0,1,0,-1,1,0,0,-1
1528185799475281,-2,0,1,0,-1,0,-1,0
1528185799475281,0,-1,0,0,2,-1,-2,-2
1528185799483258,1,1,-1,-1,-2,-1,-3,-1
1528185799483258,-1,-1,0,-1,-1,-1,0,0
1528185799506196,-3,-1,-3,0,0,-2,1,-1
1528185799506196,1,0,-1,-2,0,0,-2,0
1528185799507194,-1,-1,0,1,-1,-1,-1,0
1528185799507194,-1,-3,0,1,-1,0,-3,-2
1528185799521157,0,-1,-2,-2,0,-1,-1,-1
1528185799521157,-1,1,-2,0,-2,0,0,-1
1528185799522154,0,0,0,0,-1,1,-1,0
1528185799522154,-1,-1,-1,0,-1,0,-1,1
1528185799543107,1,0,0,-1,1,0,0,0
1528185799543107,0,-1,-1,-1,0,-1,-2,-2
1528185799544096,0,-1,0,-1,0,0,0,-1
1528185799544096,0,-1,0,0,-1,0,0,0
1528185799566037,-1,-1,-1,0,-2,-1,-1,0
1528185799566037,0,0,-1,-1,-1,-1,0,1
1528185799567034,-1,-1,-1,-1,-1,-1,-1,-2
1528185799567034,0,1,-1,-1,1,-2,0,-2
1528185799580996,2,-1,0,-1,-1,0,-2,0
1528185799580996,1,-1,-2,0,-1,-1,-1,-1
1528185799581995,-1,-1,-3,-2,0,-1,-2,2
1528185799581995,-1,-1,-1,-1,-1,0,1,-1
1528185799603936,-1,0,-1,-2,1,0,-2,-1
1528185799603936,-1,-2,1,-1,-1,0,0,0
1528185799603936,-1,0,1,0,0,-1,0,-1
1528185799603936,-1,0,-1,-1,0,-2,-1,0
1528185799625877,-1,-1,-1,-1,0,1,0,-2
1528185799625877,0,0,0,-1,-1,-1,2,-1
1528185799626874,-1,0,0,-1,1,0,-1,0
1528185799626874,-2,-2,0,-1,-2,-2,0,1
1528185799640837,0,0,1,0,-1,-3,-1,-1
1528185799640837,-2,0,-2,-2,-2,-2,-2,-2
1528185799648853,0,-1,-1,-1,0,-1,1,-1
1528185799648853,-1,-2,-2,-1,0,-2,-2,-2
1528185799663827,-1,-1,0,-1,-1,-1,1,1
1528185799663827,-2,-2,0,1,-1,0,-1,0
1528185799664834,0,0,0,0,-3,1,-2,-1
1528185799664834,1,0,-1,-2,1,1,-2,-2
1528185799694693,-1,0,-1,0,-1,-1,0,-2
1528185799694693,0,-2,-1,0,1,0,-1,0
1528185799694693,-1,-1,-1,-2,-1,1,1,1
1528185799694693,-1,-1,0,0,-1,1,-1,-1
1528185799700704,-2,-1,-1,0,-4,0,0,-1
1528185799700704,-1,0,-1,-1,0,0,-1,-2
1528185799708708,-1,-1,-1,0,0,-1,-2,-1
1528185799708708,1,1,-2,-1,1,0,0,-1
1528185799723617,-1,-2,0,1,-1,-1,-2,0
1528185799723617,-1,0,-2,-1,0,0,0,0
1528185799724641,-2,-2,0,0,-1,-1,0,-3
1528185799724641,0,1,-1,0,-2,0,0,-1
1528185799746566,0,-1,-1,-1,1,-1,0,0
1528185799746566,1,-1,-1,0,1,-1,0,-2
1528185799746566,0,0,-1,0,0,-1,-1,-1
1528185799746566,0,-3,-1,-1,-2,0,0,-1
1528185799769493,0,0,0,-2,0,0,0,-1
1528185799769493,0,1,0,0,0,-1,0,0
1528185799770491,0,0,-1,-1,-1,-2,0,-1
1528185799770491,0,-1,-2,1,0,-1,2,0
1528185799783507,-2,1,-1,-2,-1,0,0,0
1528185799783507,1,-1,-2,0,-1,-1,-1,1
1528185799784454,-1,-2,-1,-1,-1,-2,-1,2
1528185799784454,-1,-1,1,1,-1,0,0,1
1528185799806396,1,0,-1,-2,-1,1,-3,-1
1528185799806396,-1,0,-1,0,-2,0,0,-1
1528185799807394,0,0,1,-2,0,-1,2,-1
1528185799807394,0,-1,-3,-1,1,0,-1,-2
1528185799820358,0,-1,2,-1,-1,-1,2,0
1528185799820358,-1,-1,-2,1,0,-2,0,-1
1528185799828383,1,0,-3,1,-1,0,-2,-1
1528185799828383,0,1,1,-1,0,-1,-2,1
1528185799843297,0,0,-2,0,-1,-1,0,-1
1528185799843297,1,1,0,-1,0,-1,0,0
1528185799844293,-1,0,-1,0,0,-1,0,0
1528185799844293,-2,-2,-1,-3,-2,-2,-1,-3
1528185799866282,-1,1,-2,0,-1,-1,-3,-2
1528185799866282,-2,0,0,-1,-1,0,-1,-1
1528185799867232,0,-1,-3,-1,-1,-2,-1,-2
1528185799867232,0,-1,-1,-1,-1,0,0,-1
1528185799880212,-1,0,-1,-1,-2,-1,-1,0
1528185799880212,-2,-2,-2,-1,-2,1,-2,-1
1528185799888175,-1,-1,0,1,1,2,0,-1
1528185799888175,-1,0,0,1,-1,0,-2,0
1528185799904134,-2,0,0,0,-1,0,-2,-1
1528185799904134,-2,1,0,1,-1,0,-2,0
1528185799911117,0,-1,1,-1,0,-2,-1,-1
1528185799911117,-1,-1,0,0,-1,-1,0,0
1528185799926075,0,-1,-2,0,0,0,0,0
1528185799926075,1,0,0,-1,-1,-2,0,1
1528185799927072,0,-1,-1,-2,0,2,0,-2
1528185799927072,-1,-1,-1,-2,0,-1,-1,-2
1528185799940075,0,-1,-1,0,-1,-1,-1,-2
1528185799940075,1,0,0,-1,0,0,-1,-1
1528185799949291,0,0,-3,-1,-2,-1,-1,-1
1528185799949291,-1,-1,0,0,0,-1,-2,0
1528185799971952,1,-1,0,0,1,0,-1,0
1528185799971952,0,-1,1,-1,1,-1,-1,-1
1528185799972949,-1,-1,1,0,0,-1,-1,0
1528185799972949,1,0,0,-1,-1,1,-1,-1
1528185799994906,0,0,0,0,-1,-1,-1,-1
1528185799994906,0,-1,-2,1,-1,0,-1,-1
1528185799996171,0,1,-1,-1,0,0,0,1
1528185799996171,0,-2,0,0,0,0,1,0
1528185800001095,-1,0,-1,0,2,-1,-1,-1
1528185800001095,0,-2,-1,0,0,-1,-1,0
1528185800009106,0,0,0,-1,-1,-4,-1,-1
1528185800009106,-1,0,-2,0,0,-1,0,0
1528185800024074,1,0,-2,0,0,0,0,1
1528185800024074,-2,0,-1,-2,-1,1,-2,-1
1528185800024811,-2,-1,-1,-1,1,0,-1,-3
1528185800024811,-2,-1,-1,-2,1,0,0,0
1528185800045792,-1,0,-1,-2,-1,-1,-1,-1
1528185800045792,-1,0,-1,-1,0,-2,0,-1
1528185800046752,-1,-1,0,0,-1,-1,0,-1
1528185800046752,-1,0,-2,-1,-1,-1,-1,-1
1528185800069744,-1,-3,0,-1,0,0,0,-1
1528185800069744,-1,0,-1,0,0,-1,0,-1
1528185800069744,-1,0,0,-1,-1,1,-2,-1
1528185800069744,1,-1,-1,0,0,0,1,0
1528185800083984,-1,-1,0,-1,-1,0,0,0
1528185800083984,-1,-2,1,0,1,0,0,-1
1528185800084652,0,-1,0,1,0,2,-2,1
1528185800084652,1,0,-2,-1,-3,-3,0,-1
1528185800106592,-2,-1,-2,1,-1,-1,-1,0
1528185800106592,-1,-1,0,1,-1,0,-1,-1
1528185800106592,-1,-1,-2,-1,-2,-1,0,0
1528185800106592,1,-1,-1,-1,-2,-1,-2,-1
1528185800129770,-1,-2,0,-1,-1,-1,-1,-2
1528185800129770,-1,-2,-1,-1,1,-1,0,-1
1528185800130734,0,-1,-2,-2,1,0,0,0
1528185800130734,0,0,0,1,2,0,-1,-1
1528185800143796,0,0,0,0,-3,0,0,-1
1528185800143796,-2,-2,0,-2,-1,0,-1,-2
1528185800144802,0,-1,0,0,-1,-2,-1,-2
1528185800144802,0,-1,0,-2,0,0,-1,0
1528185800166762,-2,0,-1,-1,-1,-2,1,-1
1528185800166762,1,-1,-2,0,-2,-1,-1,-1
1528185800166762,-2,-1,0,0,-1,0,0,-1
1528185800166762,-1,0,-1,-2,0,-2,-1,1
1528185800196947,-2,-3,1,-1,-1,1,-1,-1
1528185800196947,-1,0,-1,-1,-1,-1,0,1
1528185800197652,-1,-1,-1,-1,-1,0,0,-1
1528185800197652,-1,-1,-2,0,-1,-1,0,-1
1528185800203857,-1,0,-2,-2,0,-1,-1,0
1528185800203857,-1,0,1,-2,-1,-2,0,0
1528185800204899,0,-1,0,0,1,0,-1,0
1528185800204899,0,0,1,1,0,0,0,-3
1528185800226835,1,-3,-3,-2,-3,-1,-1,0
1528185800226835,1,-2,0,0,0,1,-1,-2
1528185800226835,0,1,0,-1,-1,-1,0,-1
1528185800226835,-1,-1,0,0,0,0,0,-2
1528185800249512,-3,0,-1,0,1,0,-2,-1
1528185800249512,-1,-2,-2,-2,-1,-2,-1,0
1528185800250510,0,0,-1,-1,0,-1,1,-2
1528185800250510,-2,-2,0,0,0,0,-2,0
1528185800271864,0,0,-1,0,-2,0,-1,0
1528185800271864,-1,0,-1,0,-1,-2,0,0
1528185800273489,-2,-1,-1,0,0,-2,0,-1
1528185800273489,0,-1,1,0,-1,-1,0,0
1528185800286461,1,1,1,-1,0,-1,0,0
1528185800286461,0,0,-2,0,1,0,0,-1
1528185800287612,-1,0,0,-2,0,-1,-2,0
1528185800287612,-2,-1,0,0,-2,0,-2,0
1528185800309376,-1,-1,-2,0,1,-1,-1,0
1528185800309376,-1,0,0,-1,0,-2,1,-1
1528185800310033,0,-1,-1,-1,-1,-1,0,-2
1528185800310033,-1,-1,-1,-1,-2,-1,-2,-3
1528185800324233,-1,-2,1,0,-1,-1,0,0
1528185800324233,-1,-1,1,-1,-1,0,-1,0
1528185800325030,0,-1,0,0,-2,0,0,-2
1528185800325030,0,-2,-4,-1,-1,0,-1,0
1528185800346972,0,0,1,0,-2,-1,-1,-1
1528185800346972,-3,-1,-1,0,-1,-1,-2,-1
1528185800346972,-1,1,0,0,0,-3,0,0
1528185800346972,-2,0,1,-1,0,-1,1,-1
1528185800369766,-1,-1,-1,-1,-1,-2,-1,-2
1528185800369766,0,-2,0,0,0,0,-2,-2
1528185800369766,-1,1,0,-2,-1,1,-2,-1
1528185800369766,1,-1,-1,0,-1,1,0,-1
1528185800384360,-1,1,-3,-1,0,-1,-1,-2
1528185800384360,0,-1,-2,-1,-1,-1,0,1
1528185800384360,-1,-2,-1,-1,0,-1,-2,-1
1528185800384360,0,0,0,-2,0,-2,0,-1
1528185800406232,1,0,0,0,0,0,-2,-1
1528185800406232,-1,0,-1,0,0,-1,-1,-1
1528185800414929,0,-1,-2,-1,0,-1,0,0
1528185800414929,-1,-2,-1,-1,-1,-2,-1,-2
1528185800429130,0,1,-1,1,0,0,0,-1
1528185800429130,-1,-3,0,-1,-1,0,-1,-1
1528185800435873,-1,-1,-1,1,0,1,-2,0
1528185800435873,-1,-1,-1,-1,1,0,-2,1
1528185800452123,-2,-1,-1,-1,0,0,-1,0
1528185800452123,1,1,-1,1,-1,-2,-2,-2
1528185800453118,-1,-1,-1,-1,-1,0,0,1
1528185800453118,-2,-2,-2,-2,-1,0,1,0
1528185800474365,-1,0,0,0,2,-1,0,-1
1528185800474365,1,-1,-1,0,0,1,0,0
1528185800476058,0,-1,1,0,0,0,0,0
1528185800476058,0,2,0,-2,-1,-1,-2,-1
1528185800489365,0,-2,-1,-1,-1,-1,0,2
1528185800489365,0,1,-1,-1,1,-1,-1,-1
1528185800496122,0,-1,0,0,-2,-2,0,0
1528185800496122,-2,-1,1,1,0,0,-1,0
1528185800512224,0,-1,-2,-2,-2,0,-1,-1
1528185800512224,-1,0,0,0,-1,-2,-1,-1
1528185800514169,0,-2,-2,0,-2,0,-1,0
1528185800514169,0,0,-1,0,-1,-1,2,0
1528185800526062,-2,0,-1,-1,-1,-1,-1,0
1528185800526062,-1,-3,0,-1,0,0,0,0
1528185800535023,-2,-2,0,-2,0,0,-1,0
1528185800535023,0,0,0,-1,-1,-1,-1,-2
1528185800548862,0,0,0,1,0,0,-1,-2
1528185800548862,0,-1,-2,0,1,0,-1,1
1528185800555844,0,-1,-3,-1,-1,-1,1,0
1528185800555844,0,-1,0,-1,0,-1,-1,0
1528185800571807,-1,-1,-1,0,-1,1,-1,-1
1528185800571807,-1,0,0,-1,0,0,0,1
1528185800573795,0,0,1,0,1,0,-1,-2
1528185800573795,0,2,-1,-1,-1,0,0,-1
1528185800601721,-1,-1,1,-1,0,-2,-1,-2
1528185800601721,0,-2,-3,-1,0,-1,-2,-1
1528185800603715,2,0,-1,0,-1,-1,0,0
1528185800603715,1,0,-1,-1,0,1,-1,0
1528185800608702,-1,-2,-1,0,1,1,0,0
1528185800608702,-1,-1,1,-1,-1,-1,-1,0
1528185800615683,-1,-2,0,0,-2,-1,1,-1
1528185800615683,-2,-1,-2,-1,0,0,-2,0
1528185800631641,-1,0,-1,-2,-2,0,0,-1
1528185800631641,-1,0,-2,-1,-1,1,0,1
1528185800633635,1,0,-1,-1,-1,-1,-1,0
1528185800633635,0,-3,0,1,-1,0,0,-1
1528185800654580,-2,-2,-1,0,0,-1,1,-1
1528185800654580,0,0,0,0,-1,-1,-1,0
1528185800655578,0,0,-1,0,0,1,0,-1
1528185800655578,0,-1,0,-1,-1,-1,0,-1
1528185800668542,-1,-1,0,-1,0,0,1,2
1528185800668542,-2,-2,-2,0,-1,1,0,0
1528185800675577,-2,-1,-2,-1,-1,0,0,1
1528185800675577,-1,-1,0,-1,-1,0,-1,-2
1528185800691535,2,-2,-1,-1,-1,-1,1,0
1528185800691535,-1,-1,0,-1,-1,1,0,-1
1528185800693476,-2,-2,-1,-1,0,0,-2,-1
1528185800693476,-2,0,-1,0,-2,0,0,0
1528185800714474,0,-1,1,-1,-1,0,-2,0
1528185800714474,0,1,-1,0,-1,0,0,-2
1528185800716420,0,0,-1,0,0,-2,0,-2
1528185800716420,0,-1,0,-1,0,-3,-2,0
1528185800728437,-2,0,-3,0,0,-1,1,-1
1528185800728437,0,-1,-2,0,-1,0,0,-1
1528185800735365,-2,0,0,-1,0,0,-1,-1
1528185800735365,-1,-1,-1,2,-1,-1,0,1
1528185800751364,0,-2,0,0,1,0,-1,0
1528185800751364,-1,-1,0,-2,-1,-1,-1,-1
1528185800753317,0,-1,-1,-2,0,0,-2,0
1528185800753317,-1,-2,-1,-1,1,-1,0,-2
1528185800774315,-1,0,1,-1,-2,-1,-2,-1
1528185800774315,-1,-2,0,-2,0,-2,0,0
1528185800776302,1,0,0,-1,-2,-1,-1,-1
1528185800776302,-1,1,0,-1,1,-1,0,-1
1528185800788277,1,1,-2,0,-2,0,-1,0
1528185800788277,-1,-2,1,-1,-1,-2,-1,0
1528185800797253,1,-1,0,0,-1,-1,-1,-1
1528185800797253,0,-2,-1,-1,-2,-2,-2,-1
1528185800812213,-1,-1,-3,0,-1,-1,-1,-1
1528185800812213,1,-2,0,-2,0,-1,0,1
1528185800813157,-1,0,-1,1,-1,-1,-1,1
1528185800813157,-1,0,-1,0,-1,1,0,-1
1528185800834154,-1,-2,0,0,-1,1,-1,-1
1528185800834154,0,0,-1,0,0,-1,0,1
1528185800836121,0,-1,-1,-2,0,-2,-1,-1
1528185800836121,0,-1,0,-2,-1,0,-1,0
1528185800857039,0,0,-1,0,0,0,1,0
1528185800857039,-2,1,0,0,-3,-1,-1,-3
1528185800858036,-1,-1,0,-1,-1,0,0,-1
1528185800858036,-1,0,0,0,0,-3,0,1
1528185800879979,0,-3,-1,-2,0,-2,-1,0
1528185800879979,1,0,-1,0,0,1,-1,-1
1528185800880976,0,-1,-1,0,-1,0,0,0
1528185800880976,0,-1,-1,-2,-2,1,0,-1
1528185800894473,-1,1,-2,-2,-1,-1,-1,-1
1528185800894473,0,0,-1,0,-1,0,0,-1
1528185800896571,-2,1,-1,-1,-2,-1,0,0
1528185800896571,0,-2,-1,-1,-1,1,-1,0
1528185800908139,-2,-1,-2,0,0,-1,0,1
1528185800908139,2,-2,-1,-1,-1,-1,-1,-1
1528185800916984,-1,-2,2,0,0,1,0,-3
1528185800916984,1,-1,-1,1,0,0,0,-1
1528185800932676,-1,0,0,-1,-1,-2,-1,-1
1528185800932676,-1,-1,-1,-1,0,-2,-1,1
1528185800933666,0,-2,0,-2,-2,0,-1,1
1528185800933666,0,-1,0,-3,-1,-1,-2,-2
1528185800954609,0,-2,0,0,-1,-1,-1,-1
1528185800954609,0,0,0,-1,-1,0,-2,0
1528185800955851,0,-1,0,0,0,0,-1,-1
1528185800955851,-2,0,0,-1,-2,-1,1,0
1528185800967577,-3,0,0,-1,0,-2,0,-2
1528185800967577,-1,1,-1,0,0,-1,0,-2
1528185800976896,-1,1,-2,-1,-1,0,0,0
1528185800976896,1,0,-1,0,0,1,-3,0
1528185800992000,0,-2,-1,0,-1,-2,-1,-1
1528185800992000,-2,-1,-1,0,-2,-1,-1,-1
1528185800994209,0,0,1,0,-1,-2,-1,-1
1528185800994209,0,0,-2,0,0,0,-1,-1
1528185801014667,1,0,-1,-1,-2,-1,-1,-1
1528185801014667,-3,-3,0,-2,0,0,-1,0
1528185801016722,-1,0,-1,-2,-1,-1,1,0
1528185801016722,-1,0,0,1,-1,-2,-1,-2
1528185801028371,0,0,0,-1,-2,0,0,-1
1528185801028371,0,0,0,0,-1,-2,2,1
1528185801035366,-2,-1,-2,0,0,0,-1,-1
1528185801035366,0,-1,-1,-2,2,-1,0,2
1528185801051309,-2,-1,-2,-1,1,0,0,-1
1528185801051309,0,-1,-1,0,-1,0,-1,-2
1528185801053311,1,-1,-2,0,-2,-1,-1,0
1528185801053311,0,0,-1,1,-1,-1,-1,-2
1528185801074494,0,-1,0,-2,0,1,-1,0
1528185801074494,-1,0,-2,-1,-1,-1,0,-1
1528185801076260,-1,-1,-1,0,-1,0,0,0
1528185801076260,-2,0,-2,-1,-1,-3,0,0
1528185801088482,0,-1,0,0,-1,0,0,-1
1528185801088482,0,-1,0,0,-1,-1,0,-1
1528185801096463,-1,-2,0,-1,-2,0,-1,1
1528185801096463,-1,-1,-1,-1,0,0,0,0
1528185801112471,-1,0,0,-1,0,0,-1,1
1528185801112471,1,0,-1,1,0,-1,-1,-2
1528185801113416,-2,0,-1,1,-2,-3,-1,0
1528185801113416,-1,-2,-1,-1,-2,-1,-2,-1
1528185801141626,-2,1,-1,-3,-1,0,-1,-1
1528185801141626,-1,-2,0,-1,-1,1,-1,0
1528185801143621,-2,-1,-2,-1,-1,-1,-1,-3
1528185801143621,-1,-1,0,-1,0,-1,0,-1
1528185801148642,1,0,-2,0,-1,0,-1,0
1528185801148642,-1,-1,-1,0,0,-1,-1,0
1528185801156591,1,-1,0,-1,1,-1,-1,-1
1528185801156591,-2,0,-1,0,-1,1,-1,-2
1528185801172600,-1,-1,0,0,-1,-1,0,0
1528185801172600,-1,0,0,0,0,0,1,0
1528185801173551,-1,-1,-1,0,0,0,1,0
1528185801173551,-1,0,-1,0,-1,0,-1,-1
1528185801194886,-2,-1,0,-2,0,-1,0,-1
1528185801194886,-2,1,-1,-2,0,-1,-1,-1
1528185801195933,0,0,0,0,-1,-1,-1,-1
1528185801195933,0,0,-2,1,0,1,0,0
1528185801208177,2,0,0,0,-1,-2,-2,-1
1528185801208177,-1,-1,-1,-1,-2,-2,-1,-1
1528185801216841,-1,-1,1,0,1,1,-2,-2
1528185801216841,-2,-1,0,0,-1,0,-1,1
1528185801232031,0,-1,-2,1,1,0,0,-1
1528185801232031,0,0,0,1,-1,-1,0,-2
1528185801233784,1,-1,-2,-1,-2,1,-2,0
1528185801233784,-1,-2,-2,0,0,-1,-1,-1
1528185801254728,2,-2,-1,2,0,-4,1,0
1528185801254728,0,1,-1,-2,-1,-2,-2,-1
1528185801255726,-1,-1,1,-1,0,0,-2,2
1528185801255726,-2,0,0,0,-1,-2,-2,0
1528185801267694,-1,-2,0,-1,-1,0,1,-1
1528185801267694,-1,-1,-1,0,0,-1,0,-1
1528185801284649,0,1,-2,-1,0,-1,0,-1
1528185801284649,-3,0,0,-2,-1,-1,0,0
1528185801291650,-1,1,-1,-1,-2,-1,-1,0
1528185801291650,0,-1,-1,-1,0,-1,-2,1
1528185801298671,-2,0,-2,-2,-1,0,1,-1
1528185801298671,-1,-1,0,0,-1,0,-1,-1
1528185801316564,0,-2,0,0,0,-1,-1,-1
1528185801316564,0,-2,0,-1,-1,0,0,0
1528185801318584,0,-1,-1,0,0,-1,-1,-1
1528185801318584,1,0,-1,0,-2,0,0,-1
1528185801321550,-1,-1,0,-1,-1,0,-1,0
1528185801321550,-1,-1,0,0,1,0,0,1
1528185801332003,-1,-1,0,-2,-1,-1,-1,0
1528185801332003,0,-1,-1,-1,-1,-1,0,0
1528185801342981,-1,-1,0,-1,-1,0,-1,-2
1528185801342981,0,-1,0,-1,-2,1,-1,-1
1528185801359928,-1,-3,-1,-1,-2,-1,0,-3
1528185801359928,0,-1,-1,-1,-2,0,0,0
1528185801366164,0,0,0,-2,-1,0,-1,-1
1528185801366164,1,-1,-3,0,-1,-1,-1,-1
1528185801381879,-2,0,0,-1,0,-1,1,0
1528185801381879,-1,-2,-1,-2,0,-1,-1,0
1528185801381879,-2,0,-2,0,-1,-2,-3,0
1528185801381879,-2,0,1,0,0,1,-1,-1
1528185801389848,1,0,-1,-1,0,-1,0,0
1528185801389848,1,0,0,0,-1,-1,0,-1
1528185801412129,-1,0,-1,-1,-3,1,-1,0
1528185801412129,-2,0,0,-2,1,-1,-2,0
1528185801413784,1,0,0,-1,-1,-1,-1,1
1528185801413784,0,-1,0,0,-1,-2,0,0
1528185801434989,-1,0,-1,-2,1,-1,0,2
1528185801434989,1,-2,0,0,-2,0,0,0
1528185801435726,0,0,-2,0,-1,-1,1,2
1528185801435726,-1,-3,0,1,1,-2,-1,0
1528185801440715,1,1,-2,0,-1,0,0,0
1528185801440715,0,-1,-2,-2,-3,0,0,0
1528185801449690,-1,-1,1,-1,-1,1,-1,0
1528185801449690,0,0,-1,1,-1,-1,-1,-1
1528185801463677,0,-2,-1,0,1,0,-1,-2
1528185801463677,0,-1,0,1,-1,0,-1,-2
1528185801471888,0,-1,-1,0,-1,-1,-1,-3
1528185801471888,0,-1,0,-2,1,-2,-1,0
1528185801485919,0,-1,0,1,-1,-2,1,-2
1528185801485919,-1,2,-1,-1,0,-3,-1,1
1528185801492951,-1,-1,-1,-1,-1,-1,0,-1
1528185801492951,0,0,0,-1,-2,0,-1,0
1528185801500930,-1,-2,0,0,0,-1,0,-1
1528185801500930,-1,-2,0,0,0,0,0,-2
1528185801509855,-1,0,0,-1,0,-1,-1,0
1528185801509855,-1,0,-1,-1,0,0,0,-2
1528185801523084,-1,-1,1,-1,-1,-2,1,-1
1528185801523084,1,-1,0,1,-1,-1,2,-1
1528185801531845,-1,-1,0,0,-2,0,0,-2
1528185801531845,0,-3,-2,0,1,1,-1,0
1528185801546821,0,-2,-2,-1,1,-1,-1,0
1528185801546821,-1,-1,0,-1,0,-1,0,0
1528185801560980,-1,-1,1,0,1,-1,0,-2
1528185801560980,-2,0,-1,-1,0,-1,-1,0
1528185801561724,0,-1,0,-1,-1,-1,-1,-2
1528185801561724,-1,-1,-2,0,-1,-1,0,0
1528185801569716,1,-2,-2,-1,0,1,-1,0
1528185801569716,-1,1,-1,-1,-1,-1,-1,0
1528185801583742,-1,-1,-1,0,0,0,-1,-2
1528185801583742,-2,-1,-1,-2,-2,-2,-1,-1
1528185801591646,0,0,-1,-1,-1,0,0,-1
1528185801591646,0,-1,0,0,-1,-1,-2,-1
1528185801606928,-1,0,0,1,-1,2,0,-2
1528185801606928,-1,-1,0,0,-1,-1,-1,-1
1528185801613392,-2,-1,-1,-1,-1,0,-1,-1
1528185801613392,-1,-2,-2,-1,-1,1,1,-1
1528185801620758,1,1,0,-1,-2,-2,0,-1
1528185801620758,-1,1,0,0,0,0,-1,-1
1528185801629396,-2,-1,-1,0,0,-1,-1,1
1528185801629396,-1,0,-2,1,-1,1,-1,-1
1528185801643325,1,-1,0,0,-2,-1,-1,-1
1528185801643325,0,-1,-1,-1,-1,-2,0,0
1528185801658274,0,0,-1,0,-1,-2,-1,0
1528185801658274,-1,1,0,-2,1,-2,0,-1
1528185801666568,-2,-2,0,-1,-1,-1,-1,0
1528185801666568,0,0,-1,0,0,-1,-1,-2
1528185801673235,0,-1,-1,-1,-1,0,-1,0
1528185801673235,0,-1,-1,-1,-1,0,-1,0
1528185801673235,0,-1,-1,-1,-1,0,-1,0
1528185801673235,0,-1,-1,-1,-1,0,-1,0
1528185801673235,0,-1,-1,-1,-1,0,-1,0
1528185801673235,0,-1,-1,-1,-1,0,-1,0
1528185801673235,0,-1,-1,-1,-1,0,-1,0
1528185801673235,0,-1,-1,-1,-1,0,-1,0
1528185801673235,0,-1,-1,-1,-1,0,-1,0
1528185801673235,0,-1,-1,-1,-1,0,-1,0
1528185801673235,0,-1,-1,-1,-1,0,-1,0
1528185801673235,0,-1,-1,-1,-1,0,-1,0
1528185801673235,0,-1,-1,-1,-1,0,-1,0
1528185801673235,0,-1,-1,-1,-1,0,-1,0
1528185801673235,0,-1,-1,-1,-1,0,-1,0
1528185801673235,0,-1,-1,-1,-1,0,-1,0
1528185801673235,0,-1,-1,-1,-1,0,-1,0
1528185801673235,0,-1,-1,-1,-1,0,-1,0
1528185801673235,0,-1,-1,-1,-1,0,-1,0
1528185801673235,0,-1,-1,-1,-1,0,-1,0
1528185801673235,0,-1,-1,-1,-1,0,-1,0
1528185801673235,0,-1,-1,-1,-1,0,-1,0
1528185801673235,0,-1,-1,-1,-1,0,-1,0
1528185801673235,0,-1,-1,-1,-1,0,-1,0
1528185801673235,0,-1,-1,-1,-1,0,-1,0
1528185801673235,0,-1,-1,-1,-1,0,-1,0
1528185801673235,0,-1,-1,-1,-1,0,-1,0
1528185801673235,0,-1,-1,-1,-1,0,-1,0
1528185801673235,0,-1,-1,-1,-1,0,-1,0
1528185801673235,0,-1,-1,-1,-1,0,-1,0
1528185801673235,0,-1,-1,-1,-1,0,-1,0
1528185801673235,0,-1,-1,-1,-1,0,-1,0
1528185801673235,0,-1,-1,-1,-1,0,-1,0
1528185801673235,0,-1,-1,-1,-1,0,-1,0
1528185801673235,0,-1,-1,-1,-1,0,-1,0
1528185801673235,0,-1,-1,-1,-1,0,-1,0
1528185801673235,0,-1,-1,-1,-1,0,-1,0
1528185801673235,0,-1,-1,-1,-1,0,-1,0
1528185801673235,0,-1,-1,-1,-1,0,-1,0
1528185801673235,0,-1,-1,-1,-1,0,-1,0
1528185801673235,0,-1,-1,-1,-1,0,-1,0
1528185801673235,0,-1,-1,-1,-1,0,-1,0
1528185801673235,0,-1,-1,-1,-1,0,-1,0
1528185801673235,0,-1,-1,-1,-1,0,-1,0
1528185801673235,0,-1,-1,-1,-1,0,-1,0
1528185801673235,0,-1,-1,-1,-1,0,-1,0
1528185801673235,0,-1,-1,-1,-1,0,-1,0
1528185801673235,0,-1,-1,-1,-1,0,-1,0
1528185801673235,0,-1,-1,-1,-1,0,-1,0
1528185801673235,0,-1,-1,-1,-1,0,-1,0
1528185801673235,0,-1,-1,-1,-1,0,-1,0
1528185801673235,0,-1,-1,-1,-1,0,-1,0
1528185801673235,0,-1,-1,-1,-1,0,-1,0
1528185801673235,0,-1,-1,-1,-1,0,-1,0
1528185801673235,0,-1,-1,-1,-1,0,-1,0
1528185801673235,0,-1,-1,-1,-1,0,-1,0
1528185801673235,0,-1,-1,-1,-1,0,-1,0
1528185801673235,0,-1,-1,-1,-1,0,-1,0
1528185801673235,0,-1,-1,-1,-1,0,-1,0
1528185801673235,0,-1,-1,-1,-1,0,-1,0
1528185801673235,0,-1,-1,-1,-1,0,-1,0
1528185801673235,0,-1,-1,-1,-1,0,-1,0
1528185801673235,0,-1,-1,-1,-1,0,-1,0
1528185801673235,0,-1,-1,-1,-1,0,-1,0
1528185801673235,0,-1,-1,-1,-1,0,-1,0
1528185801673235,0,-1,-1,-1,-1,0,-1,0
1528185801673235,0,-1,-1,-1,-1,0,-1,0
1528185801673235,0,-1,-1,-1,-1,0,-1,0
1528185801673235,0,-1,-1,-1,-1,0,-1,0
1528185801673235,0,-1,-1,-1,-1,0,-1,0
1528185801673235,0,-1,-1,-1,-1,0,-1,0
1528185801673235,0,-1,-1,-1,-1,0,-1,0
1528185801673235,0,-1,-1,-1,-1,0,-1,0
1528185801673235,0,-1,-1,-1,-1,0,-1,0
1528185801673235,0,-1,-1,-1,-1,0,-1,0
1528185801673235,0,-1,-1,-1,-1,0,-1,0
1528185801673235,0,-1,-1,-1,-1,0,-1,0
1528185801673235,0,-1,-1,-1,-1,0,-1,0
1528185801673235,0,-1,-1,-1,-1,0,-1,0
1528185801673235,0,-1,-1,-1,-1,0,-1,0
1528185801673235,0,-1,-1,-1,-1,0,-1,0
1528185801673235,0,-1,-1,-1,-1,0,-1,0
1528185801673235,0,-1,-1,-1,-1,0,-1,0
1528185801673235,0,-1,-1,-1,-1,0,-1,0
1528185801673235,0,-1,-1,-1,-1,0,-1,0
1528185801673235,0,-1,-1,-1,-1,0,-1,0
1528185801673235,0,-1,-1,-1,-1,0,-1,0
1528185801673235,0,-1,-1,-1,-1,0,-1,0
1528185801673235,0,-1,-1,-1,-1,0,-1,0
1528185801673235,0,-1,-1,-1,-1,0,-1,0
1528185801673235,0,-1,-1,-1,-1,0,-1,0
1528185801673235,0,-1,-1,-1,-1,0,-1,0
1528185801673235,0,-1,-1,-1,-1,0,-1,0
1528185801673235,0,-1,-1,-1,-1,0,-1,0
1528185801673235,0,-1,-1,-1,-1,0,-1,0
1528185801673235,0,-1,-1,-1,-1,0,-1,0
1528185801673235,0,-1,-1,-1,-1,0,-1,0
1528185801673235,0,-1,-1,-1,-1,0,-1,0
1528185801673235,0,-1,-1,-1,-1,0,-1,0
1528185801673235,0,-1,-1,-1,-1,0,-1,0
1528185801673235,0,-1,-1,-1,-1,0,-1,0
1528185801673235,0,-1,-1,-1,-1,0,-1,0
1528185801673235,0,-1,-1,-1,-1,0,-1,0
1528185801673235,0,-1,-1,-1,-1,0,-1,0
1528185801673235,0,-1,-1,-1,-1,0,-1,0
1528185801673235,0,-1,-1,-1,-1,0,-1,0
1528185801673235,0,-1,-1,-1,-1,0,-1,0
1528185801673235,0,-1,-1,-1,-1,0,-1,0
1528185801673235,0,-1,-1,-1,-1,0,-1,0
1528185801673235,0,-1,-1,-1,-1,0,-1,0
1528185801673235,0,-1,-1,-1,-1,0,-1,0
1528185801673235,0,-1,-1,-1,-1,0,-1,0
1528185801673235,0,-1,-1,-1,-1,0,-1,0
1528185801673235,0,-1,-1,-1,-1,0,-1,0
1528185801673235,0,-1,-1,-1,-1,0,-1,0
1528185801673235,0,-1,-1,-1,-1,0,-1,0
1528185801673235,0,-1,-1,-1,-1,0,-1,0
1528185801673235,0,-1,-1,-1,-1,0,-1,0
1528185801673235,0,-1,-1,-1,-1,0,-1,0
1528185801673235,0,-1,-1,-1,-1,0,-1,0
1528185801673235,0,-1,-1,-1,-1,0,-1,0
1528185801673235,0,-1,-1,-1,-1,0,-1,0
1528185801673235,0,-1,-1,-1,-1,0,-1,0
1528185801673235,0,-1,-1,-1,-1,0,-1,0
1528185801673235,0,-1,-1,-1,-1,0,-1,0
1528185801673235,0,-1,-1,-1,-1,0,-1,0
1528185801673235,0,-1,-1,-1,-1,0,-1,0
1528185801673235,0,-1,-1,-1,-1,0,-1,0
1528185801673235,0,-1,-1,-1,-1,0,-1,0
1528185801673235,0,-1,-1,-1,-1,0,-1,0
1528185801673235,0,-1,-1,-1,-1,0,-1,0
1528185801673235,0,-1,-1,-1,-1,0,-1,0
1528185801673235,0,-1,-1,-1,-1,0,-1,0
1528185801673235,0,-1,-1,-1,-1,0,-1,0
1528185801673235,0,-1,-1,-1,-1,0,-1,0
1528185801673235,0,-1,-1,-1,-1,0,-1,0
1528185801673235,0,-1,-1,-1,-1,0,-1,0
1528185801673235,0,-1,-1,-1,-1,0,-1,0
1528185801673235,0,-1,-1,-1,-1,0,-1,0
1528185801673235,0,-1,-1,-1,-1,0,-1,0
1528185801673235,0,-1,-1,-1,-1,0,-1,0
1528185801673235,0,-1,-1,-1,-1,0,-1,0
1528185801673235,0,-1,-1,-1,-1,0,-1,0
1528185801673235,0,-1,-1,-1,-1,0,-1,0
1528185801673235,0,-1,-1,-1,-1,0,-1,0
1528185801673235,0,-1,-1,-1,-1,0,-1,0
1528185801673235,0,-1,-1,-1,-1,0,-1,0
1528185801673235,0,-1,-1,-1,-1,0,-1,0
1528185801673235,0,-1,-1,-1,-1,0,-1,0
1528185801673235,0,-1,-1,-1,-1,0,-1,0
1528185801673235,0,-1,-1,-1,-1,0,-1,0
1528185801673235,0,-1,-1,-1,-1,0,-1,0
1528185801673235,0,-1,-1,-1,-1,0,-1,0
1528185801673235,0,-1,-1,-1,-1,0,-1,0
1528185801673235,0,-1,-1,-1,-1,0,-1,0
1528185801673235,0,-1,-1,-1,-1,0,-1,0
1528185801673235,0,-1,-1,-1,-1,0,-1,0
1528185801673235,0,-1,-1,-1,-1,0,-1,0
1528185801673235,0,-1,-1,-1,-1,0,-1,0
1528185801673235,0,-1,-1,-1,-1,0,-1,0
1528185801673235,0,-1,-1,-1,-1,0,-1,0
1528185801673235,0,-1,-1,-1,-1,0,-1,0
1528185801673235,0,-1,-1,-1,-1,0,-1,0
1528185801673235,0,-1,-1,-1,-1,0,-1,0
1528185801673235,0,-1,-1,-1,-1,0,-1,0
1528185801673235,0,-1,-1,-1,-1,0,-1,0
1528185801673235,0,-1,-1,-1,-1,0,-1,0
1528185801673235,0,-1,-1,-1,-1,0,-1,0
1528185801673235,0,-1,-1,-1,-1,0,-1,0
