timestamp,emg1,emg2,emg3,emg4,emg5,emg6,emg7,emg8
1528279087355471,0,-1,0,-1,0,0,0,-1
1528279087355471,-1,-1,1,0,-1,1,0,0
1528279087356473,-1,-1,1,0,-1,-1,-1,0
1528279087356473,1,0,1,0,0,-1,0,0
1528279087359463,0,-2,-1,0,0,1,1,-1
1528279087359463,0,0,-1,0,-1,-1,1,-1
1528279087360460,-1,-1,-1,-2,0,-2,-1,2
1528279087360460,0,-2,-2,0,0,-2,-1,-2
1528279087365447,0,0,0,-2,-1,-1,-1,0
1528279087365447,0,1,0,-2,-2,-1,-1,0
1528279087373451,0,-1,-1,-2,0,0,2,-2
1528279087373451,-2,-1,-3,-1,-1,-1,-2,0
1528279087382401,-1,-1,0,0,-2,-2,-1,-1
1528279087382401,0,-1,-1,-2,0,-1,-1,-1
1528279087396363,-1,0,-3,2,0,1,-2,0
1528279087396363,-1,-1,-1,-2,-1,0,-2,-1
1528279087405339,-2,1,-2,-1,-2,0,1,-1
1528279087405339,1,0,-3,1,1,-1,-1,1
1528279087427313,0,0,-2,0,-2,-1,0,-1
1528279087427313,0,0,0,1,0,0,0,-1
1528279087429311,-1,0,-1,0,-1,-1,-1,0
1528279087429311,0,-2,-1,-3,0,-2,0,-3
1528279087441242,0,0,-1,-1,-1,-1,-1,-1
1528279087441242,-1,-1,-1,0,-2,-2,-1,1
1528279087450220,0,-1,1,0,0,-1,0,0
1528279087450220,-1,-1,-2,-1,0,-2,-2,-1
1528279087465178,-1,-2,0,0,-1,0,-1,-1
1528279087465178,-1,-3,0,-3,-1,-1,0,0
1528279087466175,1,-1,-2,0,0,-1,-1,-1
1528279087466175,-1,-1,0,1,-1,0,0,1
1528279087487119,0,0,-1,-2,-1,0,2,-1
1528279087487119,0,-1,-1,0,1,-1,1,2
1528279087489114,0,1,0,-1,1,-1,0,1
1528279087489114,0,0,0,0,0,-1,-1,-1
1528279087501082,-1,-1,-1,0,0,0,0,-1
1528279087501082,-1,0,-2,-1,-1,1,-1,-2
1528279087510058,0,0,-2,1,1,-1,0,0
1528279087510058,0,0,1,0,0,0,1,0
1528279087525019,0,1,1,1,-2,-1,0,0
1528279087525019,0,0,-1,-1,0,-2,1,0
1528279087526021,0,-2,0,-1,-2,-2,-1,0
1528279087526021,0,-1,-2,1,-3,1,-1,-1
1528279087546960,0,-2,-1,0,-1,0,-2,-2
1528279087546960,1,0,0,-1,-2,-1,-1,0
1528279087548954,-1,0,-1,0,-1,-1,0,0
1528279087548954,-1,-1,-1,-1,0,-2,-1,0
1528279087560933,-1,-1,1,-2,0,-2,-1,0
1528279087560933,-1,0,-2,-2,0,0,-2,-1
1528279087569898,-1,-1,0,0,-1,-2,-1,-1
1528279087569898,-1,-1,1,0,-1,-2,0,-2
1528279087584884,1,-1,0,0,-3,0,0,-3
1528279087584884,1,0,-1,0,-1,0,1,-2
1528279087586877,1,-1,-1,-2,0,-1,0,0
1528279087586877,-1,0,0,0,1,0,-2,-1
1528279087613795,0,-1,0,-1,-1,-2,1,2
1528279087613795,-1,1,-1,-1,0,0,-1,0
1528279087622756,-2,-1,-2,1,-2,0,-2,-1
1528279087622756,0,-2,-1,-1,-2,1,0,0
1528279087623754,-2,-1,1,-1,0,0,0,-1
1528279087623754,-1,-2,1,-2,-2,0,-1,0
1528279087629777,1,-1,-1,0,-2,1,0,-1
1528279087629777,-2,2,0,0,0,-1,0,-2
1528279087644698,0,-1,-1,0,-1,0,-1,-2
1528279087644698,-1,-1,1,-1,0,0,1,-1
1528279087646692,0,-1,1,-1,-1,-1,0,-1
1528279087646692,0,0,-1,-2,-2,0,0,0
1528279087667636,-2,-1,-1,1,0,-1,0,-1
1528279087667636,0,1,0,1,-2,-2,-1,0
1528279087668676,0,0,-1,0,-1,0,-1,-1
1528279087668676,0,-2,-1,-1,-1,0,-1,0
1528279087680601,0,0,-1,0,0,-1,0,1
1528279087680601,-1,-2,0,0,-3,-1,-1,-2
1528279087689578,-2,0,0,-2,-1,-2,-1,0
1528279087689578,0,-1,-1,-1,-1,1,-1,0
1528279087704574,1,-1,1,0,-1,-1,-1,-1
1528279087704574,-2,0,0,0,-1,-1,-1,-3
1528279087706533,0,-1,-1,-1,-1,-1,0,0
1528279087706533,-1,0,0,-2,1,-2,0,0
1528279087734510,-1,-1,-1,-1,0,0,1,0
1528279087734510,1,0,-1,-1,-1,-3,0,-1
1528279087736453,-2,0,1,1,0,1,0,-1
1528279087736453,-2,0,-1,-1,-2,-1,0,-2
1528279087749417,0,-1,-1,-2,0,0,-1,-1
1528279087749417,-1,-1,0,0,1,0,0,-3
1528279087751413,0,-1,0,-1,-1,0,-1,0
1528279087751413,1,-1,-1,-1,0,-1,-1,-1
1528279087764428,-1,0,0,-1,-1,-2,0,0
1528279087764428,0,-1,0,0,0,1,1,0
1528279087766373,1,-2,1,-1,1,-2,-1,-2
1528279087766373,-1,0,-1,-1,0,0,-2,-1
1528279087787365,0,-1,-1,-2,0,-1,-1,1
1528279087787365,1,0,-2,-2,0,-2,-1,0
1528279087789311,-1,-1,0,0,-1,-1,0,-2
1528279087789311,0,-1,-3,-1,-2,0,-1,-1
1528279087801334,-1,-1,-2,0,-3,-1,-2,0
1528279087801334,0,-1,0,1,1,1,-1,1
1528279087810304,-1,-2,-2,-2,0,-1,0,1
1528279087810304,0,-1,0,-1,0,-1,1,0
1528279087824221,-1,1,0,0,-1,-1,0,-1
1528279087824221,0,-2,-1,-1,-1,-1,0,0
1528279087826213,-2,0,-2,-2,-1,-1,-1,-1
1528279087826213,1,-2,-2,1,-2,-1,-1,0
1528279087847158,0,0,0,-3,1,-1,0,-2
1528279087847158,-1,-1,-1,0,-1,0,0,0
1528279087849192,-2,-1,-2,-2,-1,1,-3,0
1528279087849192,-1,-1,0,-1,-1,0,1,1
1528279087861173,0,0,0,-1,1,1,-2,0
1528279087861173,0,-2,1,-2,-1,-1,-1,-2
1528279087870095,0,1,1,1,0,-1,-2,-1
1528279087870095,-1,-1,-2,0,-2,-2,0,0
1528279087885106,-1,-1,0,-1,-1,-1,-2,0
1528279087885106,0,1,-2,0,-1,1,-2,-1
1528279087886056,1,-2,0,1,-1,0,0,1
1528279087886056,-1,1,0,0,1,-1,-2,-1
1528279087907996,2,0,-1,1,0,0,0,-1
1528279087907996,-2,-1,-1,-1,-1,-1,-1,-1
1528279087908992,0,-1,-3,-2,-1,-1,-1,0
1528279087908992,0,0,1,-1,0,0,0,-1
1528279087920961,-1,-1,-4,-2,-1,0,0,-1
1528279087920961,-1,0,-1,1,-1,0,0,-2
1528279087929936,0,-1,-2,0,-1,1,0,0
1528279087929936,1,1,1,-1,0,-1,1,0
1528279087943898,0,-1,0,0,0,1,-2,0
1528279087943898,-1,-1,-2,-2,-3,-1,-1,-1
1528279087951903,0,0,-1,-1,-1,0,0,0
1528279087951903,-2,0,-1,-1,-2,-1,-1,0
1528279087966838,-1,-1,-2,1,-1,-2,-1,1
1528279087966838,-2,-1,-1,1,0,-1,0,-1
1528279087968831,-2,-2,-1,-1,-2,-2,-2,-2
1528279087968831,0,-1,0,-1,-1,1,0,0
1528279087981047,0,-1,-1,-3,-1,0,0,2
1528279087981047,-1,-1,-2,0,0,1,-1,1
1528279087989786,-1,0,0,0,0,0,0,0
1528279087989786,-1,0,0,0,-1,0,-1,-2
1528279088003740,-1,0,-1,0,0,-1,-2,-2
1528279088003740,1,-1,-1,0,2,-2,1,0
1528279088011311,0,2,0,0,-1,-2,-1,-1
1528279088011311,-2,1,0,-1,-1,-1,0,-1
1528279088027024,0,-2,-1,-1,-1,-1,0,-1
1528279088027024,0,-1,-1,-2,0,-1,-2,-1
1528279088028989,-2,-1,0,1,-1,-1,-1,-2
1528279088028989,-1,-2,0,0,0,-2,-1,0
1528279088040985,0,0,-1,0,-2,-1,0,0
1528279088040985,0,0,0,0,-1,-1,-1,-2
1528279088049925,1,-1,0,0,0,-2,0,1
1528279088049925,1,-2,0,1,-2,0,-2,-1
1528279088063925,-1,-1,1,-1,2,-1,-1,-2
1528279088063925,-1,-2,1,-1,0,-1,-2,0
1528279088070908,-3,0,-2,-2,1,-1,-2,-1
1528279088070908,-1,-1,0,1,-1,0,0,-2
1528279088086825,-1,1,-1,0,-1,1,0,-1
1528279088086825,-1,0,-1,-2,-1,0,-2,-1
1528279088088821,-1,-1,0,1,0,0,0,-2
1528279088088821,0,-2,-3,0,0,0,0,-1
1528279088100788,0,-1,1,-1,1,-1,0,-2
1528279088100788,-2,1,-1,0,-1,-1,1,-2
1528279088109764,0,-1,-1,1,0,1,1,0
1528279088109764,0,-1,-1,-1,0,0,-2,-2
1528279088123744,1,0,0,0,0,-1,0,-2
1528279088123744,-1,-2,0,-1,-2,-2,-1,1
1528279088130708,-1,-1,-1,-2,-2,-1,-1,1
1528279088130708,-2,1,1,-1,-2,-2,-2,0
1528279088147663,0,-1,0,-1,-1,-1,0,0
1528279088147663,0,-2,-1,-1,-2,-1,0,-1
1528279088148898,-1,-1,-2,-1,0,0,1,-1
1528279088148898,-1,-1,0,-2,0,-1,0,-1
1528279088177809,1,0,-1,0,0,-1,-1,-1
1528279088177809,-1,0,-2,1,-1,-2,-1,-1
1528279088178718,0,-1,0,-1,1,-2,0,-3
1528279088178718,-1,0,-2,0,-1,0,-2,-1
1528279088183853,-2,0,0,0,-2,0,-1,0
1528279088183853,-1,1,-1,0,-1,0,-1,-1
1528279088190860,-2,-1,-1,-1,1,0,0,-1
1528279088190860,0,0,-2,-1,-1,-1,0,0
1528279088206787,-1,-1,1,0,0,-2,1,0
1528279088206787,-1,-1,-2,0,0,0,-1,-1
1528279088208781,1,1,-1,0,-2,0,-1,-1
1528279088208781,-1,-1,-1,-3,0,-2,0,-1
1528279088236707,0,-2,-2,1,0,-1,0,-2
1528279088236707,1,1,2,-1,-1,0,0,0
1528279088238701,-1,-2,0,-1,0,-1,-2,0
1528279088238701,0,0,-2,-1,-1,0,-1,0
1528279088243735,-1,0,0,-1,-1,-1,0,-1
1528279088243735,-2,0,0,-1,0,-1,0,-1
1528279088252664,-1,0,-1,0,-3,-1,-2,-2
1528279088252664,1,0,0,0,-1,-1,-1,1
1528279088267624,-2,-1,-1,-2,0,0,-1,1
1528279088267624,0,0,0,-1,0,0,1,0
1528279088268622,0,1,1,-1,0,-1,-2,0
1528279088268622,0,-1,-1,2,-1,0,0,-1
1528279088289567,-1,1,-2,-1,0,0,-1,0
1528279088289567,0,-1,0,0,1,-1,0,-1
1528279088291561,-1,-1,-1,-2,-2,0,-1,0
1528279088291561,-1,1,-1,-1,-1,-1,-1,-1
1528279088303584,0,-1,0,0,0,0,-1,2
1528279088303584,-1,-1,1,-2,-1,0,1,-1
1528279088312506,1,-1,-1,-2,-1,1,0,-2
1528279088312506,0,-1,-1,0,1,0,1,0
1528279088325522,1,-1,-2,-2,-1,0,0,-2
1528279088325522,0,0,-1,0,-2,-3,-2,0
1528279088334488,-1,-1,-3,1,-1,-1,1,0
1528279088334488,-1,-1,0,-2,-1,-2,-2,1
1528279088349419,0,0,-1,-1,-1,-1,0,-1
1528279088349419,-1,-1,-1,-1,-1,0,-1,0
1528279088351400,-1,0,-1,-1,0,-2,0,-1
1528279088351400,0,-1,1,1,0,0,-1,-1
1528279088372397,-1,-1,1,-1,-1,1,0,-1
1528279088372397,-1,1,-2,-1,0,0,-1,-2
1528279088374369,0,-1,0,-1,1,-1,-1,0
1528279088374369,-1,-1,-2,-1,-2,-1,0,-1
1528279088386350,-1,-1,0,0,-1,-2,-1,0
1528279088386350,-2,1,-1,-1,-1,-1,0,1
1528279088395337,-1,-2,-1,0,-2,1,1,0
1528279088395337,-1,0,-2,-1,0,-1,-1,0
1528279088410244,0,-1,-2,0,0,0,-1,-2
1528279088410244,-1,-1,0,1,0,0,0,-1
1528279088411255,0,0,-1,0,-1,-1,-1,-1
1528279088411255,-1,-1,0,-2,-1,-1,0,0
1528279088432232,0,0,-1,-3,0,0,-3,-1
1528279088432232,1,-3,-1,-3,-1,0,0,0
1528279088434179,0,-1,-2,0,-1,-1,-3,-1
1528279088434179,-2,-1,0,0,-1,-1,0,0
1528279088454180,0,0,-2,1,-1,-1,0,0
1528279088454180,0,-2,-2,1,0,-1,-1,0
1528279088455123,-1,-1,0,-1,-1,0,-1,1
1528279088455123,1,0,-2,-1,0,0,-1,-1
1528279088468142,-1,1,-1,-1,0,-1,-1,0
1528279088468142,0,1,0,-2,1,0,-1,-1
1528279088477084,0,-1,0,0,-1,-2,1,-2
1528279088477084,-1,-1,0,0,1,-1,-1,-1
1528279088492026,-1,-2,-1,-1,-2,-1,0,0
1528279088492026,0,-2,-1,-2,-3,0,0,-2
1528279088492026,0,-1,0,0,-2,-1,0,0
1528279088492026,0,-1,1,0,-1,-1,-2,-1
1528279088514220,-2,-1,-1,1,1,-1,-1,0
1528279088514220,1,-2,-1,-2,-3,-2,0,1
1528279088514964,-1,-3,-1,0,1,-1,0,0
1528279088514964,0,0,0,-2,-3,-1,0,0
1528279088529104,0,-1,-1,1,0,-3,1,0
1528279088529104,-1,-1,1,1,1,-2,-2,-1
1528279088537286,0,1,-1,-1,-1,-2,-2,-2
1528279088537286,0,-1,-1,0,1,-1,-2,-1
1528279088551764,0,0,0,-1,-1,0,-1,0
1528279088551764,-1,-2,0,-1,0,0,-2,-1
1528279088552514,0,-1,0,0,-2,0,-1,0
1528279088552514,-1,-1,-3,-3,1,-1,-1,-1
1528279088574868,0,-2,1,-1,-2,-1,-1,1
1528279088574868,-1,-1,-3,-1,-1,0,1,0
1528279088574868,0,-1,-1,0,0,-1,-1,0
1528279088574868,-1,-3,-1,0,-1,-1,0,-1
1528279088588780,-2,1,0,-2,-1,0,0,-1
1528279088588780,0,-1,0,1,0,-2,-2,-1
1528279088589740,-1,1,-1,-2,-1,-1,0,-1
1528279088589740,-1,1,-1,0,-1,1,0,0
1528279088611946,1,-1,0,0,0,0,-1,-1
1528279088611946,0,-1,-1,1,1,0,0,-1
1528279088612686,-2,-2,-1,0,0,-2,1,1
1528279088612686,-1,-1,-1,1,-1,-1,-1,0
1528279088633631,-1,-3,-2,-1,-1,1,-2,-2
1528279088633631,0,0,-1,-1,-1,-2,1,1
1528279088634626,-1,0,0,0,-1,0,1,-1
1528279088634626,1,1,1,-2,-1,0,-1,0
1528279088657993,-1,0,-2,0,0,-1,-1,-1
1528279088657993,0,-1,0,-1,-2,0,0,-2
1528279088657993,-1,0,-1,1,-1,-1,-1,-2
1528279088657993,0,-2,0,-1,0,-2,-1,0
1528279088672034,-1,0,0,0,-2,-1,0,-1
1528279088672034,0,0,-1,-1,-2,-1,-2,0
1528279088672670,2,0,0,-1,0,0,0,-2
1528279088672670,1,-1,-2,-1,-1,1,-1,-2
1528279088693616,0,-3,-1,-2,-1,0,-1,0
1528279088693616,-2,-1,-1,-1,0,-1,-1,0
1528279088694610,-1,-1,-1,-2,-1,0,-1,1
1528279088694610,-2,-2,0,0,-1,-1,0,-2
1528279088709570,0,1,-1,-1,1,-1,-1,-1
1528279088709570,0,0,-3,0,0,0,-1,-1
1528279088716552,-1,-1,-1,-2,-1,0,-1,1
1528279088716552,0,1,1,-1,-2,-2,1,0
1528279088739526,-2,0,-1,-1,-1,0,0,0
1528279088739526,-1,0,-1,0,-1,0,-1,-2
1528279088740488,-1,-2,0,-1,-1,0,-1,-2
1528279088740488,-2,-2,-2,1,-1,-1,0,0
1528279088754451,0,-3,-1,-1,-1,0,-2,-1
1528279088754451,-2,0,0,1,0,-2,0,0
1528279088754451,-1,0,-3,-2,0,-2,0,-2
1528279088754451,-2,0,-1,0,0,0,1,0
1528279088769701,0,0,-2,0,-1,-1,-1,-1
1528279088769701,0,0,0,-2,1,0,-1,-1
1528279088769701,-1,0,-1,0,-1,-1,-1,-1
1528279088769701,1,-2,-1,-3,-2,0,0,-1
1528279088791752,1,-1,-1,0,-1,-1,-1,1
1528279088791752,-1,-1,-1,-1,-1,-1,1,0
1528279088792750,-2,-1,-2,-1,0,0,-1,-1
1528279088792750,-1,-1,0,-2,-2,-1,-1,-2
1528279088814838,0,0,-1,0,0,0,1,0
1528279088814838,-1,0,-1,-1,-3,-1,-2,0
1528279088814838,-1,0,0,0,0,0,0,0
1528279088814838,-1,-1,-1,1,-1,0,-2,0
1528279088829798,-1,-1,-1,-2,-1,0,-1,-1
1528279088829798,0,0,-1,0,0,1,0,0
1528279088829798,1,0,0,0,-1,-1,-1,1
1528279088829798,0,1,-3,1,-1,-1,0,-1
1528279088851889,0,-1,-1,-1,-1,-2,-1,-1
1528279088851889,0,-1,-1,-1,-1,0,-2,-1
1528279088852589,-1,-1,-1,-2,0,-1,-2,-1
1528279088852589,0,-1,0,0,1,0,-1,0
1528279088874902,-1,0,0,-1,-2,-1,-1,-1
1528279088874902,-1,0,0,0,0,-1,-1,-3
1528279088874902,-1,-1,-1,-2,-1,-1,-1,1
1528279088874902,1,2,-1,0,0,-3,0,1
1528279088905355,-1,-2,-1,-2,-1,-1,1,-1
1528279088905355,-1,-2,1,0,-1,0,0,-1
1528279088905355,-2,0,-1,0,-1,-1,-1,-1
1528279088905355,0,-1,-1,0,-2,0,-2,-1
1528279088911073,-1,0,0,0,1,-1,0,-1
1528279088911073,-2,-2,-1,-1,-1,-1,0,1
1528279088912071,0,0,1,-1,-1,-1,-1,-2
1528279088912071,0,-1,-1,-2,2,1,1,1
1528279088934012,-2,0,-1,0,0,0,0,0
1528279088934012,-2,0,-1,-1,-1,-2,-2,-1
1528279088935011,-1,-2,0,0,0,-1,0,0
1528279088935011,-1,0,0,-2,-3,-2,-1,0
1528279088949216,1,-2,-1,-1,0,-2,0,-1
1528279088949216,-1,-2,-2,0,0,0,-1,0
1528279088949982,0,0,-1,-1,0,0,-1,-2
1528279088949982,-1,-1,-2,-1,-1,1,-1,-1
1528279088971771,-1,1,-2,2,-1,0,1,0
1528279088971771,-1,0,-1,-1,-3,-2,-1,0
1528279088972446,0,-2,-2,2,0,-2,0,1
1528279088972446,-1,-2,-2,-1,-1,-2,-2,0
1528279088993725,-1,1,-2,-2,-1,-1,0,0
1528279088993725,0,-1,-1,-1,-1,-1,0,0
1528279088995705,0,-1,-1,-2,-1,-1,0,-2
1528279088995705,-1,0,1,0,0,-1,-2,-1
1528279089009804,-1,-1,-1,0,0,-1,-1,0
1528279089009804,1,1,-1,-1,-1,-2,-1,-1
1528279089009804,-1,0,-1,-1,-1,0,0,2
1528279089009804,0,2,1,-1,0,-1,1,0
1528279089032353,-1,0,0,-1,-1,-1,-1,0
1528279089032353,-1,0,-1,-1,0,-1,0,0
1528279089032353,-2,-1,-1,0,1,-1,-1,-1
1528279089032353,1,0,-1,-1,-2,-2,1,-2
1528279089062229,0,-2,2,-1,-1,2,-1,-2
1528279089062229,0,-3,-1,0,0,-1,-1,-1
1528279089071329,-2,1,-3,0,-1,0,1,1
1528279089071329,-2,-1,0,0,-1,-1,-1,-1
1528279089072042,-1,0,0,-2,-2,-2,0,-1
1528279089072042,-1,-2,-1,-1,-1,-1,1,0
1528279089073038,1,0,0,1,0,-1,0,-1
1528279089073038,-1,-1,-1,0,0,-1,0,0
1528279089092373,-1,0,0,0,1,-1,-2,0
1528279089092373,1,-1,1,-1,-1,1,-2,0
1528279089092373,0,-1,0,-1,0,0,-1,1
1528279089092373,-1,-3,-1,-1,-1,-2,-1,-1
1528279089113929,1,0,-1,-1,-1,-1,-2,-1
1528279089113929,0,0,0,-1,0,0,-2,0
1528279089121907,0,-2,0,-1,0,-1,0,-1
1528279089121907,0,-1,-2,-1,-1,-2,-1,0
1528279089138101,-1,-1,-1,0,0,-1,1,2
1528279089138101,-2,-1,0,-1,-1,0,0,-1
1528279089138101,1,0,-1,1,-2,-1,0,-2
1528279089138101,-1,-1,1,-1,0,-1,0,0
1528279089152202,-2,-1,0,0,0,-1,-1,-1
1528279089152202,0,2,0,0,0,-1,1,-1
1528279089152202,0,-2,-2,-2,-2,0,1,0
1528279089152202,0,-1,-2,-2,0,1,-1,-1
1528279089174579,-1,-1,-1,-1,0,-1,-2,-2
1528279089174579,1,-1,-1,-1,-1,-1,0,0
1528279089175144,0,-1,0,0,-2,0,0,-1
1528279089175144,0,0,-1,0,-1,0,-1,0
1528279089189106,-1,-2,-2,-2,-2,-2,-1,0
1528279089189106,-1,-1,0,0,-1,0,0,-1
1528279089190103,-2,0,1,0,0,-1,-1,-2
1528279089190103,-1,1,0,0,-1,0,-1,-1
1528279089212048,-1,0,-2,-1,-1,-1,-1,-2
1528279089212048,-2,0,-1,-1,-1,-1,0,-1
1528279089213048,-1,-2,-2,-2,-1,0,-2,-2
1528279089213048,-1,0,0,-2,0,-2,0,0
1528279089234986,0,-2,1,1,-1,0,-1,-1
1528279089234986,0,0,-2,1,-1,0,1,0
1528279089234986,-1,0,0,-1,-2,-1,-1,-1
1528279089234986,0,-1,-2,0,-1,1,0,-1
1528279089248189,-1,-1,-2,0,-1,0,0,1
1528279089248189,0,0,-1,-1,0,0,-3,-1
1528279089256925,0,0,0,-1,-1,-2,0,0
1528279089256925,-1,-2,-1,-1,-2,-2,-2,-1
1528279089272882,-1,1,1,0,-1,-1,0,0
1528279089272882,0,-1,-1,0,-1,-2,-2,0
1528279089273879,-2,1,-3,-1,0,0,0,0
1528279089273879,0,-2,-1,0,2,1,-1,-1
1528279089294572,0,0,0,0,0,0,0,-1
1528279089294572,-1,-1,-1,0,0,-1,0,0
1528279089295256,0,0,0,-1,-2,-3,-1,0
1528279089295256,-1,0,0,-1,-1,-2,-1,0
1528279089308220,0,-2,0,-2,1,0,-1,-1
1528279089308220,-2,0,-2,-1,-1,-2,0,0
1528279089316199,0,-1,-1,0,-1,1,-1,0
1528279089316199,-1,0,0,-1,1,1,-1,0
1528279089340138,1,-2,-1,0,1,-2,0,0
1528279089340138,-1,-1,1,-1,0,1,1,-2
1528279089340138,-2,-1,-1,-1,0,-1,-1,0
1528279089340138,-1,0,-2,0,-2,-2,0,-3
1528279089354102,0,0,-1,-2,-1,-1,-1,0
1528279089354102,0,-1,0,0,-1,-1,-1,0
1528279089355095,0,1,0,-1,-1,-3,-1,0
1528279089355095,-1,-1,0,-1,-1,0,-1,0
1528279089369069,0,-1,0,0,0,-2,-1,-1
1528279089369069,-2,-1,-2,-1,-1,0,-1,-1
1528279089377037,-1,-1,-3,-2,0,1,1,-1
1528279089377037,0,-1,0,0,0,0,-1,0
1528279089391613,-1,0,-1,-2,-2,0,0,0
1528279089391613,0,-1,-1,-2,-2,-2,0,0
1528279089392235,-1,-1,1,0,-2,-1,-2,1
1528279089392235,-1,-2,-1,0,-2,-1,0,-2
1528279089414412,-2,-1,-1,1,-2,-4,0,-1
1528279089414412,-1,-1,-1,0,-1,-1,-1,-2
1528279089415162,-1,-1,-1,-1,0,-1,1,-1
1528279089415162,-1,0,0,-1,1,0,0,1
1528279089428130,-1,-1,0,0,-1,0,1,0
1528279089428130,0,-2,0,0,-1,0,-2,1
1528279089437327,-2,-2,1,-1,-1,-2,-1,-3
1528279089437327,-2,0,0,-1,1,-1,1,-1
1528279089452288,0,0,-1,-2,-3,0,-1,-1
1528279089452288,0,0,0,-2,0,-1,-1,0
1528279089452288,0,-1,-1,0,-1,-1,0,-1
1528279089452288,-1,-2,-1,0,-1,-2,-1,0
1528279089474005,0,1,-2,-1,-1,0,0,-1
1528279089474005,0,-1,-1,1,0,-2,0,0
1528279089475015,-1,0,0,-1,0,0,-2,-1
1528279089475015,2,-1,-2,0,0,1,0,0
1528279089487972,0,-1,1,0,-1,-1,0,-1
1528279089487972,-1,-1,0,0,-1,-1,0,-2
1528279089496945,0,-1,-1,1,-1,-1,-1,0
1528279089496945,-1,-1,-1,0,-2,-1,0,0
1528279089511906,-1,1,-2,-1,0,0,0,0
1528279089511906,-1,-2,-1,0,-1,1,0,0
1528279089511906,0,-1,-2,0,0,-1,-1,0
1528279089511906,-1,-1,-2,-1,-1,0,-1,-1
1528279089534842,0,-2,0,-2,-1,0,-2,-2
1528279089534842,-1,0,1,-1,-2,-1,-1,0
1528279089535853,-2,-1,-1,0,-1,0,-1,-1
1528279089535853,-1,0,-1,-1,0,-2,0,0
1528279089548805,-2,-1,-1,1,0,0,-1,0
1528279089548805,0,0,0,0,0,0,-2,0
1528279089557030,-1,-1,0,-1,-1,-2,1,1
1528279089557030,0,-1,-1,-1,-1,1,-2,-1
1528279089571983,-2,0,-1,-1,-1,2,1,0
1528279089571983,0,0,-2,-1,-1,-1,-1,-2
1528279089572983,1,-1,1,0,-1,-1,-1,0
1528279089572983,-2,0,0,0,-2,0,0,0
1528279089595287,0,-2,0,1,0,-1,0,0
1528279089595287,0,-1,-1,-1,0,-1,-2,0
1528279089595977,1,-1,-2,1,-2,0,0,0
1528279089595977,0,-1,0,-1,-1,0,0,-1
1528279089616920,0,-1,0,-1,-1,-1,0,-1
1528279089616920,0,0,-1,-1,0,-2,0,0
1528279089617917,-2,-2,0,-1,-2,-1,-2,-1
1528279089617917,0,0,-1,-1,-1,-1,0,-1
1528279089631880,0,0,-1,-1,-1,0,-2,0
1528279089631880,-2,-1,-1,0,0,0,0,-1
1528279089631880,-1,-1,-1,-2,0,0,-1,-1
1528279089631880,-1,0,-1,0,-1,-1,-1,1
1528279089655167,1,0,-1,0,-2,-1,-1,-1
1528279089655167,-2,0,-2,-1,0,-1,-3,-1
1528279089655818,0,0,0,0,-1,0,3,0
1528279089655818,0,-1,0,-1,0,-1,-1,-1
1528279089678121,0,-1,0,0,0,-1,-1,-1
1528279089678121,0,0,0,-2,-2,0,0,-1
1528279089678121,0,1,-1,1,1,0,-1,-1
1528279089678121,-1,-1,-2,1,-1,0,-2,0
1528279089692291,0,0,-1,0,-2,-2,-1,-2
1528279089692291,0,-2,0,-2,-2,0,0,-2
1528279089692291,0,1,0,-1,0,0,-1,-1
1528279089692291,-1,0,0,0,0,0,-1,-2
1528279089715020,0,-1,-1,-2,0,-1,-2,1
1528279089715020,-2,-1,-1,1,0,-1,0,0
1528279089715020,1,0,1,-2,-1,-1,0,0
1528279089715020,-2,0,-1,0,-1,0,-1,0
1528279089736958,-2,-1,0,-1,-3,0,0,-1
1528279089736958,1,-2,0,-2,0,-1,-1,0
1528279089737956,0,-2,-1,-1,-1,-1,-1,-2
1528279089737956,-1,-1,1,-2,0,-1,-2,-2
1528279089751918,-1,-1,-2,0,1,-1,-1,-2
