timestamp,emg1,emg2,emg3,emg4,emg5,emg6,emg7,emg8
1529309496522003,0,4,-2,-9,1,-5,-5,0
1529309496522003,-4,1,7,-21,-35,-25,-4,-5
1529309496525993,-1,-1,4,13,3,-12,-6,-3
1529309496525993,0,-2,-22,-45,5,7,-9,1
1529309496525993,-3,-3,23,49,9,17,18,1
1529309496525993,8,7,-16,-13,24,6,-2,4
1529309496528987,-10,-7,14,3,-35,-25,-17,-8
1529309496528987,4,5,4,18,11,3,0,1
1529309496531977,-2,-1,-4,-20,-7,-5,-2,-8
1529309496531977,-1,-2,3,21,-1,7,9,5
1529309496539957,2,2,-2,-17,5,10,4,2
1529309496539957,-2,1,8,11,1,-6,-14,-4
1529309496548933,-1,-2,-7,-34,-11,-11,-1,2
1529309496548933,-2,-3,5,28,9,3,-9,-4
1529309496563892,2,3,0,-6,-3,-15,-22,-2
1529309496563892,-3,-5,-4,17,-25,-10,16,0
1529309496568904,2,4,10,-14,13,10,-11,1
1529309496568904,-5,-6,-29,-29,14,20,11,3
1529309496593812,0,0,-3,11,10,16,12,4
1529309496593812,0,1,-8,-16,-9,-11,-5,-4
1529309496595806,-2,-6,-5,3,-10,-12,-7,-3
1529309496595806,-2,-8,5,-17,-14,-8,-6,-3
1529309496607791,-1,-2,-7,-4,7,10,9,4
1529309496607791,-4,0,-8,-8,-9,-8,3,0
1529309496648666,0,1,-3,-13,-3,-5,-10,0
1529309496648666,3,1,-9,0,3,-3,-35,-2
1529309496649663,-2,-5,-4,2,-16,-2,45,4
1529309496649663,0,-2,-14,-6,5,6,7,1
1529309496651687,2,3,14,25,7,0,-4,1
1529309496651687,-4,-5,-15,-18,-18,-7,1,-5
1529309496652656,0,1,5,-2,13,3,-15,0
1529309496652656,1,3,2,-5,0,5,3,0
1529309496660635,-1,-1,-12,-9,3,3,16,2
1529309496660635,-2,1,15,14,-4,-3,30,1
1529309496666618,1,6,6,-3,-15,-6,-17,-3
1529309496666618,-1,-3,1,5,7,7,12,2
1529309496681577,-2,-3,12,-11,1,-2,-12,-2
1529309496681577,-5,-6,5,11,-13,-7,-20,-11
1529309496688557,1,5,6,13,12,-2,-1,-2
1529309496688557,-1,-3,4,-16,-5,-3,-6,0
1529309496699528,0,1,-23,-22,-5,2,6,-3
1529309496699528,-2,-4,-2,2,0,-4,-3,-4
1529309496720473,-4,-12,-10,16,-7,-4,-1,-4
1529309496720473,-2,-6,-9,-32,-11,-10,-12,-2
1529309496721470,4,-1,7,21,13,-2,-3,4
1529309496721470,2,0,-18,-27,-4,9,23,10
1529309496733438,-5,-2,-11,7,5,-9,-37,-9
1529309496733438,3,7,11,29,13,11,26,4
1529309496743411,-1,-1,1,-11,-8,0,-6,-2
1529309496743411,1,4,9,2,10,6,2,3
1529309496757374,2,3,5,-4,1,3,-11,-1
1529309496757374,-3,0,10,-5,-17,-19,-1,-3
1529309496763385,0,3,23,27,5,7,-9,-2
1529309496763385,0,1,12,-13,3,6,6,4
1529309496780314,-4,-7,-11,-18,-2,-1,5,-2
1529309496780314,-4,-7,2,20,-8,-12,-15,-6
1529309496781311,0,-5,-14,-23,-11,-7,-11,-2
1529309496781311,1,-1,-17,-17,2,1,9,1
1529309496794277,-1,-1,2,-4,-7,3,0,0
1529309496794277,-1,2,-1,9,9,10,12,2
1529309496803254,1,5,8,30,14,3,-4,1
1529309496803254,-3,-3,1,-3,-6,-2,9,-1
1529309496817215,1,0,-10,-27,1,4,16,4
1529309496817215,-2,3,18,60,10,-5,-3,-2
1529309496823200,-7,-5,-20,-59,-23,-3,4,-2
1529309496823200,0,-1,-2,-1,0,-7,-15,-5
1529309496840153,2,5,1,-10,-15,-29,6,1
1529309496840153,0,-2,9,22,7,10,17,3
1529309496842149,1,-1,2,11,24,19,-3,-1
1529309496842149,-1,-3,-6,-6,-4,9,-14,-3
1529309496854116,0,-5,0,0,2,-3,10,1
1529309496854116,-2,-3,-6,-20,-12,-12,-22,-7
1529309496863092,-2,1,5,12,-4,-7,-2,-5
1529309496863092,-1,3,0,3,-4,-7,-13,-3
1529309496877081,1,1,7,4,3,10,-1,1
1529309496877081,-4,-4,-17,-37,-10,-5,-13,-4
1529309496884036,0,-3,-8,-5,0,2,10,2
1529309496884036,0,1,15,34,7,-4,-4,-2
1529309496900040,-2,-2,-9,-24,-8,1,-8,-2
1529309496900040,0,-1,-15,-34,-10,-3,-11,-1
1529309496902015,-2,-3,-4,15,-3,-10,4,-2
1529309496902015,-1,-1,5,7,3,7,9,3
1529309496913982,0,-5,0,15,4,2,-8,-3
1529309496913982,4,3,-10,-16,13,2,-16,-2
1529309496922933,0,2,4,30,1,-7,-6,0
1529309496922933,-5,-7,-13,-51,-21,-5,-5,-2
1529309496937893,-5,-4,7,15,4,8,34,1
1529309496937893,0,1,5,8,-5,1,-12,-4
1529309496938889,-2,-3,-14,-7,-9,-6,1,-3
1529309496938889,-3,-1,14,31,8,-5,-6,-4
1529309496959835,1,-4,0,-4,0,0,-4,1
1529309496959835,-1,0,-4,-7,-6,-4,0,-1
1529309496961829,0,-1,-9,-27,-10,-3,10,3
1529309496961829,1,3,-4,-5,5,4,6,-1
1529309496982772,-2,1,3,-1,0,-7,-21,-1
1529309496982772,-1,-2,-2,10,3,1,3,-3
1529309496983773,0,-2,-2,8,2,7,3,0
1529309496983773,1,-3,-4,-17,-9,-8,-5,0
1529309496996734,0,4,11,3,2,6,-4,-4
1529309496996734,-2,-4,-3,-1,-2,-3,-6,-1
1529309497003719,-2,-1,6,-13,-6,-2,-9,-3
1529309497003719,-2,-3,-6,17,4,-3,6,-1
1529309497019675,-1,0,-8,7,1,5,15,3
1529309497019675,0,-2,-9,-8,-8,-8,-4,1
1529309497021670,-2,-1,-2,-2,4,5,8,-5
1529309497021670,-2,-1,17,-1,1,0,-9,-1
1529309497042640,1,1,24,-14,1,1,-5,-1
1529309497042640,-1,-1,1,-1,3,3,3,-2
1529309497044627,-1,-2,-8,-1,-5,-7,-3,2
1529309497044627,1,1,-15,11,4,-3,0,0
1529309497056628,-1,-2,-7,6,1,-1,-4,-2
1529309497056628,-1,-2,1,-9,-4,-2,-2,1
1529309497063593,-3,-1,8,6,3,-1,5,2
1529309497063593,0,0,-5,-1,1,4,1,-3
1529309497080534,1,0,-11,4,-5,-4,-11,0
1529309497080534,1,5,-9,5,4,0,2,-3
1529309497081508,-1,-1,-9,-1,-2,-3,-6,0
1529309497081508,0,0,6,12,5,2,1,1
1529309497102453,0,-2,1,-8,-2,1,-3,0
1529309497102453,-2,-4,-2,1,-1,4,12,-1
1529309497104473,-1,2,-9,-5,-3,-3,-1,-2
1529309497104473,0,1,-5,-43,-6,-1,0,1
1529309497116415,-2,-7,14,30,1,-4,-11,-2
1529309497116415,-2,2,7,12,1,3,2,-1
1529309497125392,-3,2,-4,-10,-7,-6,-6,-5
1529309497125392,0,0,3,3,3,2,3,1
1529309497140405,-1,4,-18,-10,1,0,4,-1
1529309497140405,-2,-3,-3,8,10,-1,-1,0
1529309497141347,1,-4,6,3,-12,-8,-1,-2
1529309497141347,4,3,0,-5,-1,1,-1,3
1529309497162319,-1,-5,-11,2,-1,2,3,0
1529309497162319,2,4,0,-3,-1,4,0,-1
1529309497164289,-6,-22,-8,-8,0,3,-1,-4
1529309497164289,1,15,-12,7,-8,-10,-5,-7
1529309497176257,-1,-6,-8,-10,-6,-9,-4,0
1529309497176257,0,5,4,19,10,10,2,1
1529309497185231,5,3,-7,-12,-4,0,3,7
1529309497185231,2,4,8,5,2,5,0,2
1529309497200192,-2,-5,-28,-20,-6,1,-1,-3
1529309497200192,-3,1,4,2,-5,-5,-5,-5
1529309497201190,-3,7,5,-5,0,-2,-5,-5
1529309497201190,-4,-12,-7,6,10,15,7,1
1529309497222132,-3,-3,1,5,0,-6,-8,-4
1529309497222132,3,-8,-14,-17,0,2,3,3
1529309497224140,4,2,13,47,6,-6,-4,0
1529309497224140,-4,-5,-6,-13,-10,-15,-11,-8
1529309497236094,0,6,30,1,2,4,12,2
1529309497236094,-10,-8,-13,-15,-16,-20,-23,-10
1529309497245072,3,18,-2,14,15,18,21,5
1529309497245072,1,1,8,-18,-1,-6,-11,-1
1529309497260040,-2,14,-30,0,-10,-4,-2,-2
1529309497260040,0,-2,30,4,1,-5,3,5
1529309497262027,4,3,8,-11,-3,-6,-15,6
1529309497262027,-9,-29,-33,-10,-18,-19,-1,-4
1529309497282969,1,0,16,-3,7,10,10,-2
1529309497282969,-3,3,-14,0,-11,-5,-3,-1
1529309497283977,2,3,-12,-8,-6,-6,-6,-6
1529309497283977,0,-2,-4,8,1,14,12,4
1529309497296973,-4,-6,3,6,11,2,11,-2
1529309497296973,1,1,1,7,5,11,9,-3
1529309497305157,-4,-11,24,13,1,-1,-4,-1
1529309497305157,3,9,3,-9,-5,-3,-13,0
1529309497319870,0,18,-18,-39,-27,-20,-5,-4
1529309497319870,-5,-34,-17,-21,-10,-13,-26,-3
1529309497321865,1,9,-47,-1,7,8,19,8
1529309497321865,2,16,43,8,-6,-4,-1,-6
1529309497342810,-2,-22,-17,-39,-8,0,-18,-5
1529309497342810,2,4,-1,-2,-5,-5,-6,0
1529309497343838,2,10,48,14,12,11,1,1
1529309497343838,-10,-26,-66,-10,-2,-4,7,-2
1529309497356776,0,0,31,13,6,8,-1,3
1529309497356776,5,8,30,33,11,11,18,12
1529309497366043,-5,-17,-14,-40,-20,-22,-2,-3
1529309497366043,-7,-6,7,49,-4,2,2,-3
1529309497380818,-1,18,29,23,12,-1,-22,-7
1529309497380818,-5,-10,-19,-18,1,9,7,-8
1529309497381706,-8,-6,-5,-16,-8,-10,1,-8
1529309497381706,6,4,20,1,2,-24,-3,11
1529309497402702,-4,-14,-12,-27,-13,8,1,-3
1529309497402702,1,5,24,10,-9,-23,8,14
1529309497404697,-3,0,-6,-4,9,22,21,-1
1529309497404697,-4,-12,-13,-14,-11,-14,-23,-5
1529309497416649,0,-7,-2,15,13,8,11,6
1529309497416649,3,4,-31,-21,-9,-7,-1,2
1529309497425589,7,5,-39,-54,-16,-10,-4,0
1529309497425589,-5,7,23,61,22,9,-5,-7
1529309497440825,1,4,14,-3,5,-7,-13,1
1529309497440825,-8,-14,-10,23,-1,5,2,-8
1529309497441556,-1,-3,16,-8,-8,10,12,0
1529309497441556,5,7,-29,-36,3,15,4,4
1529309497462536,-1,-3,25,52,6,-9,1,1
1529309497462536,-4,3,-6,-14,-8,-22,-2,-6
1529309497464484,-4,-9,-40,22,13,10,-9,-5
1529309497464484,6,29,66,24,-5,-11,13,6
1529309497476499,-2,3,4,-27,-29,-39,-50,-17
1529309497476499,1,0,14,5,6,11,-4,-5
1529309497485428,-8,-28,-10,5,-6,-6,-7,2
1529309497485428,14,23,49,12,9,5,1,10
1529309497500612,-10,-26,-55,-13,8,20,16,6
1529309497500612,1,5,34,-15,-9,-1,-16,-1
1529309497502414,-1,5,27,25,5,-10,-25,-9
1529309497502414,1,-7,-52,22,10,15,13,2
1529309497522570,2,8,25,9,-6,-3,1,-8
1529309497522570,0,-2,-11,-3,-3,-3,13,9
1529309497524342,6,8,21,14,12,21,11,6
1529309497524342,-11,-28,-10,-15,3,-5,-16,-9
1529309497536300,1,13,11,29,9,12,27,8
1529309497536300,-11,-5,-23,-32,-21,-22,-24,-18
1529309497545268,2,6,13,-11,-5,2,22,2
1529309497545268,-4,-3,-5,-22,-14,-9,1,-9
1529309497560230,5,-3,-6,-17,-11,-13,-14,6
1529309497560230,5,-2,-16,16,12,1,-51,-3
1529309497562239,0,8,25,21,12,12,17,4
1529309497562239,-11,-19,-33,-42,-7,7,5,-6
1529309497582221,6,3,10,7,0,9,34,9
1529309497582221,5,1,-8,9,14,12,29,5
1529309497584183,1,9,-20,-17,-7,-12,-21,-5
1529309497584183,1,-8,-6,1,-3,-1,1,3
1529309497596187,-5,8,29,-43,6,1,0,1
1529309497596187,-1,5,34,53,-18,-11,17,9
1529309497605123,-6,-27,-59,0,-13,-17,-8,-5
1529309497605123,2,2,-4,4,15,11,7,4
1529309497628047,5,-1,-11,-46,-26,-9,-11,1
1529309497628047,5,5,-10,-50,16,28,22,2
1529309497629044,-7,-6,-4,3,-39,-51,-76,-17
1529309497629044,1,0,5,-5,2,8,24,12
1529309497641066,5,-2,-31,27,14,3,-11,0
1529309497641066,-8,0,18,-2,8,5,3,-11
1529309497649992,-1,0,-11,-1,1,-2,5,-3
1529309497649992,-1,3,-11,-15,-9,-10,-17,-6
1529309497665002,3,1,0,27,16,9,3,1
1529309497665002,5,2,10,4,2,21,42,11
1529309497666943,-5,-12,8,-5,6,1,-9,-4
1529309497666943,-6,4,12,7,1,8,-3,-9
1529309497687943,-3,-1,4,23,6,-8,-21,-2
1529309497687943,-3,-12,-68,-87,-22,-3,16,3
1529309497688892,-7,-3,-14,30,-2,-10,-6,-4
1529309497688892,-5,-16,7,-11,1,10,7,-2
1529309497700887,2,1,-20,-33,4,-8,-17,-3
1529309497700887,-8,-4,27,63,-1,-5,-21,-14
1529309497709829,9,10,14,-5,5,10,23,10
1529309497709829,1,6,23,-13,-5,2,-2,2
1529309497724799,-9,-14,-35,1,-8,-1,-1,-10
1529309497724799,-2,4,9,-12,1,-13,-21,-2
1529309497726783,-3,3,29,-5,-13,-9,-5,1
1529309497726783,0,-3,-25,-1,1,1,1,-4
1529309497748724,-2,-12,2,3,-3,-6,3,-3
1529309497748724,5,9,15,10,18,15,9,1
1529309497750719,-6,-6,8,15,-2,-3,-7,-7
1529309497750719,-1,7,0,-1,5,3,0,-6
1529309497761697,0,2,4,14,9,15,26,7
1529309497761697,0,-5,-11,-5,-13,-12,-8,4
1529309497770711,9,11,0,-30,7,17,23,9
1529309497770711,0,-5,-4,5,-12,-17,-21,-5
1529309497784675,0,-7,-14,-5,-8,-11,4,-2
1529309497784675,-1,14,25,50,20,7,-4,-3
1529309497786622,-2,-8,-12,-12,4,11,10,-8
1529309497786622,-2,-7,-27,-12,-7,-8,0,-2
1529309497807567,3,6,2,8,3,12,8,7
1529309497807567,3,5,0,-20,3,3,8,7
1529309497809563,-2,-7,-1,12,1,-3,-14,-5
1529309497809563,4,6,9,25,1,-15,-22,-1
1529309497821581,4,7,14,-29,11,26,33,6
1529309497821581,1,-7,-24,-9,-16,-5,-15,-4
1529309497830505,-5,4,17,-8,2,1,-1,-3
1529309497830505,3,1,10,15,2,0,7,5
1529309497845467,-5,-7,-7,-7,-15,-14,-11,-6
1529309497845467,3,3,11,10,9,1,-10,-3
1529309497846462,1,2,1,4,-2,-2,-1,1
1529309497846462,-3,2,5,-16,-6,-7,-7,-2
1529309497867669,-2,-1,-5,13,2,-4,2,-4
1529309497867669,-1,-7,-32,-22,5,0,-11,-8
1529309497869401,-4,-8,19,31,-20,-14,-11,-1
1529309497869401,1,-5,-1,10,3,0,0,-1
1529309497882622,-6,0,-12,-6,-4,2,-3,-3
1529309497882622,-8,-10,-17,-12,-16,-16,-14,-8
1529309497889516,3,1,4,-12,8,5,10,4
1529309497889516,-5,3,28,5,1,8,24,0
1529309497905563,-2,-8,-19,17,-4,-13,-12,-3
1529309497905563,3,2,-7,-1,3,5,10,1
1529309497907497,1,3,13,-14,2,3,4,3
1529309497907497,2,3,-1,5,-1,-3,-5,-1
1529309497928024,0,3,-3,-17,-11,-13,-22,-7
1529309497928024,-1,3,9,10,10,12,20,2
1529309497929651,1,-2,-3,0,2,2,-2,0
1529309497929651,1,3,-7,-9,-9,-6,4,2
1529309497941586,-2,-1,13,-2,-1,2,-3,-2
1529309497941586,-2,-3,9,11,-1,-3,0,0
1529309497948608,1,1,-10,-6,1,0,1,0
1529309497948608,-4,-5,-9,18,6,2,-2,-5
1529309497965522,-3,-5,1,8,-2,-3,-7,-6
1529309497965522,0,-2,9,3,0,-4,-1,4
1529309497966519,1,1,-12,-5,0,-4,-9,-3
1529309497966519,-2,-6,-10,-13,-7,-1,-3,0
1529309497988224,-1,-1,2,6,1,-2,-5,-1
1529309497988224,-2,1,7,-2,-1,0,-2,0
1529309497989937,-1,2,-2,-5,1,-3,1,1
1529309497989937,-2,-2,-4,-8,-1,-4,-5,-3
1529309498001916,0,-2,3,4,-6,-6,5,0
1529309498001916,-1,-4,-5,-10,-3,2,1,-3
1529309498010185,-3,-3,-5,-1,0,0,3,-1
1529309498010185,-1,-2,-4,1,1,0,-15,-2
1529309498025124,-1,-1,-2,-3,0,2,4,-1
1529309498025124,-1,-3,-9,-14,-6,-9,-11,-3
1529309498027109,-3,-4,2,13,1,1,1,-2
1529309498027109,-1,1,1,-3,0,-2,-3,0
1529309498048088,-2,-1,-2,-2,1,-2,0,-2
1529309498048088,0,1,-3,-4,-4,-5,-7,1
1529309498049202,-2,2,2,2,3,1,-3,-4
1529309498049202,1,2,-8,-18,-4,1,1,1
1529309498061324,-3,0,9,25,6,3,2,0
1529309498061324,-2,-4,-2,-12,-10,-4,0,0
1529309498070302,-1,-2,-4,-2,-1,1,2,0
1529309498070302,0,-4,-3,-5,-3,-3,0,-3
1529309498085641,2,-2,-3,-1,3,2,0,-1
1529309498085641,-3,0,6,8,0,-2,-5,-2
1529309498087537,0,-3,-3,-6,-3,-3,-1,0
1529309498087537,-2,-1,1,5,3,4,1,0
1529309498107509,0,1,-3,-12,-2,0,0,-1
1529309498107509,-2,-4,-3,1,-1,0,-4,-1
1529309498109267,-2,-4,-4,-5,-5,-3,-1,-1
1529309498109267,-1,-2,1,3,1,0,5,-1
1529309498130918,-2,-1,-1,0,-2,-2,1,-2
1529309498130918,2,-2,-2,-1,-1,-2,-2,-1
1529309498131756,-3,-2,-5,-6,-5,-8,-8,-3
1529309498131756,0,-1,-2,-2,-1,3,2,0
1529309498145772,-1,-1,-2,-2,0,4,1,2
1529309498145772,0,-1,2,-2,-1,3,0,-3
1529309498146725,-1,0,0,2,0,-1,3,0
1529309498146725,-1,-1,-2,0,2,0,2,-1
1529309498167663,1,0,-2,-6,1,1,1,-1
1529309498167663,-2,-1,0,2,0,-4,-4,0
1529309498169923,1,-1,-4,0,-3,-3,3,2
1529309498169923,-1,-2,-2,-5,-7,-8,-5,-4
1529309498181315,-4,-3,-1,1,-3,-1,0,-1
1529309498181315,-1,0,0,2,1,1,1,-1
1529309498190212,-2,1,-2,-1,0,1,-1,-1
1529309498190212,0,-2,-3,-2,-1,-3,-1,-1
1529309498205099,1,-1,-3,-3,-2,-1,0,-1
1529309498205099,-2,-1,0,-1,-1,-4,-2,-2
1529309498211117,0,-1,-2,0,1,-1,-5,1
1529309498211117,1,1,2,3,7,2,2,1
1529309498228249,1,0,0,-5,-5,-1,-2,4
1529309498228249,-2,-3,-1,-1,1,4,3,-1
1529309498229279,1,1,1,0,4,7,5,1
1529309498229279,0,1,0,0,-1,2,-1,-3
1529309498241281,-1,-1,2,3,-1,-3,1,-1
1529309498241281,1,-2,-6,-3,0,-1,1,-1
1529309498250192,0,-1,1,-1,0,-1,2,0
1529309498250192,-2,-2,-1,-1,-1,-2,-4,0
1529309498265182,-2,-3,-1,-1,-1,-2,-5,-3
1529309498265182,-2,-2,1,1,-2,-1,-2,-2
1529309498271381,-3,-3,-3,-2,0,-2,-6,-4
1529309498271381,-1,-4,-4,-1,0,4,-2,0
1529309498288334,-2,-1,2,1,1,1,-1,-3
1529309498288334,-2,1,2,1,-1,-4,-3,-2
1529309498289089,0,-1,-1,-2,-2,-3,-1,1
1529309498289089,-2,-1,0,-3,-3,-2,-3,-3
1529309498301056,1,0,-2,-1,0,-3,-3,0
1529309498301056,0,1,1,2,2,3,-2,-1
1529309498317042,-1,0,-4,0,0,3,5,-2
1529309498317042,-2,-5,0,-4,-7,-6,-1,1
1529309498324576,-3,-2,-3,-1,1,0,0,-2
1529309498324576,0,1,-2,3,3,-1,5,1
1529309498331998,1,0,-2,0,-2,-3,-1,-2
1529309498331998,-1,-1,-3,-3,-1,0,-1,-2
1529309498348306,-1,-2,-1,-1,1,2,0,-1
1529309498348306,-1,-1,1,-3,-2,-3,-1,0
1529309498349051,0,1,5,0,-1,1,-3,-1
1529309498349051,-2,-2,-3,0,-1,0,-2,0
1529309498369865,-1,-2,-1,-3,-4,-2,-3,-2
1529309498369865,-2,-2,-1,-3,-3,-2,2,-1
1529309498370862,-4,-3,-3,-2,-1,-4,-2,-2
1529309498370862,-1,2,-3,2,1,-3,-3,-2
1529309498384146,-1,1,1,2,2,0,1,1
1529309498384146,-1,-3,-3,-5,-4,-3,-4,1
1529309498391864,-1,0,-1,-4,-5,-5,-2,-1
1529309498391864,0,0,2,-2,-1,3,5,0
1529309498407360,-1,0,-1,-1,1,3,4,0
1529309498407360,-1,-1,-1,0,-2,-1,-1,-1
1529309498408094,0,-2,-1,-2,-3,-2,-1,-1
1529309498408094,0,0,-1,-1,-1,0,-1,1
1529309498429369,1,0,-3,-3,-3,-4,-1,-1
1529309498429369,0,-2,-1,0,0,-1,-2,-1
1529309498431051,-3,-3,-3,-2,0,0,-4,0
1529309498431051,1,1,-2,0,-2,-2,0,-1
1529309498444491,-2,-3,0,-2,-4,-4,-3,-1
1529309498444491,-1,0,-2,-1,-3,-2,-4,-2
1529309498452276,-2,0,-1,0,0,0,0,-1
1529309498452276,-2,0,-2,-3,-2,-3,-3,-1
1529309498467200,-2,1,-1,0,-1,-2,-1,-3
1529309498467200,1,-2,1,0,0,1,2,-1
1529309498468187,2,0,2,-1,0,1,1,-1
1529309498468187,-2,-1,0,0,-1,-2,0,-1
1529309498489367,-1,-1,-1,-3,-2,-3,0,-2
1529309498489367,-1,0,0,-1,2,1,1,-1
1529309498490122,0,-2,-2,-2,1,-1,-1,-1
1529309498490122,0,-1,-1,-1,-1,-2,-4,0
1529309498504088,-3,-2,-2,0,0,-1,-1,-2
1529309498504088,-2,0,-2,-2,0,-1,0,-2
1529309498512067,0,1,-1,-1,0,-2,1,-4
1529309498512067,-2,-1,-1,-1,1,-1,0,1
1529309498527023,1,-1,-2,-2,-3,0,-2,0
1529309498527023,-1,-1,-1,-1,-2,0,-3,-1
1529309498528021,-2,-1,-1,1,-1,-1,-2,-1
1529309498528021,-1,-1,-1,-1,-1,-1,1,-1
1529309498549934,0,-2,-1,-1,-1,-2,-2,1
1529309498549934,-2,1,-3,-2,0,-2,-2,1
1529309498550951,0,3,-2,-3,0,-1,-2,0
1529309498550951,-1,-1,1,-1,-2,0,-1,-2
1529309498563883,0,0,-2,-3,0,0,2,-1
1529309498563883,0,-2,0,-2,-3,-2,0,-2
1529309498572103,0,-4,0,0,-1,0,-2,-1
1529309498572103,0,-3,0,-1,-2,0,-1,-1
1529309498587361,-1,-2,-1,-1,-1,1,-2,-1
1529309498587361,-3,-1,-1,0,-2,0,0,-2
1529309498588388,-1,-2,0,-1,-2,0,-1,1
1529309498588388,-2,-2,-1,0,-2,-1,-2,0
1529309498609548,0,-2,-2,-2,0,-3,-2,0
1529309498609548,-1,-1,-1,0,0,-2,-2,0
1529309498610306,-2,-2,-1,2,-1,-1,1,0
1529309498610306,0,-2,-1,0,-1,-3,0,0
1529309498623833,-1,0,-1,-1,-1,-2,-2,-1
1529309498623833,-1,-3,-3,0,1,0,0,-2
1529309498632624,-2,-2,-1,-2,-1,1,2,-1
1529309498632624,0,-1,-2,-2,-1,0,-2,-2
1529309498647503,2,0,-1,0,-2,-2,-1,0
