timestamp,emg1,emg2,emg3,emg4,emg5,emg6,emg7,emg8
1528269663394896,12,-1,1,1,0,1,-3,2
1528269663394896,-4,-5,-7,-6,1,2,0,15
1528269663395894,4,0,-4,-1,3,2,-1,-23
1528269663395894,0,0,11,35,6,-1,0,0
1528269663396891,-4,-1,0,-8,0,-1,1,-2
1528269663396891,0,-3,-17,-64,-13,-6,-5,1
1528269663398885,-1,-3,-3,10,-3,-5,-1,4
1528269663398885,0,-1,-5,-11,-1,-4,2,-3
1528269663406864,-1,2,2,24,2,-2,2,-3
1528269663406864,-5,-2,5,20,4,2,4,-6
1528269663413844,-1,0,1,-12,-2,0,-1,3
1528269663413844,3,-1,-2,-4,-1,0,-3,-3
1528269663420825,-2,-2,4,8,1,-1,-3,4
1528269663420825,0,4,13,1,0,-3,-3,-2
1528269663438779,-5,-1,2,29,1,1,-4,0
1528269663438779,3,-6,-25,-35,-4,-3,-3,6
1528269663441769,1,0,-7,-41,-10,0,0,-1
1528269663441769,0,-4,-10,-15,-3,0,0,-6
1528269663466703,0,0,11,-4,-4,0,3,-1
1528269663466703,1,0,3,14,0,2,-2,-1
1528269663466703,-2,-3,-6,9,3,0,1,-3
1528269663466703,6,0,3,20,1,-4,1,-3
1528269663503620,-3,-1,2,-4,0,-5,0,-3
1528269663503620,-2,-2,2,6,1,-1,-2,2
1528269663504610,-3,-2,0,5,-1,0,-5,-3
1528269663504610,-2,-2,-1,-3,-2,-1,-3,-3
1528269663505601,-2,0,-7,-4,-1,3,-2,1
1528269663505601,-3,2,3,1,-2,0,-3,0
1528269663506596,-4,0,-3,32,3,-1,-3,1
1528269663506596,-2,0,-7,-51,-8,-4,1,0
1528269663516570,-2,-2,-3,-13,4,-4,-1,-2
1528269663516570,-3,-7,-4,-16,-5,-4,-2,-3
1528269663524550,4,1,7,-3,-4,1,-3,-2
1528269663524550,-2,-2,3,-2,-1,3,-3,-5
1528269663533524,3,3,-12,-5,6,3,4,1
1528269663533524,-1,-1,17,14,-8,-9,-2,-5
1528269663546492,-1,-5,-25,-51,-9,-9,0,-2
1528269663546492,0,-2,-1,3,-9,-4,1,0
1528269663555466,-3,-1,2,14,11,10,-2,-2
1528269663555466,-3,0,-6,-2,5,3,-1,-2
1528269663569429,-3,0,1,-6,-3,-5,-1,-1
1528269663569429,-3,-1,-2,9,1,0,-4,-1
1528269663578405,2,0,5,13,-3,6,0,0
1528269663578405,1,-1,-6,-5,7,6,1,2
1528269663600345,-1,-4,-7,-16,-8,-5,-2,1
1528269663600345,1,2,6,-7,-7,-8,-1,0
1528269663602340,-1,0,13,50,-3,-11,0,0
1528269663602340,2,3,-1,-14,9,8,3,1
1528269663615305,2,2,8,-1,10,5,0,1
1528269663615305,1,-5,-11,4,1,1,-3,1
1528269663617318,-1,-6,-1,4,-11,-11,-6,0
1528269663617318,-1,-2,-18,-62,-16,-10,0,-5
1528269663629268,-3,2,14,65,4,-5,0,-3
1528269663629268,-2,1,-15,-46,-5,9,1,0
1528269663638245,0,5,4,0,-8,5,1,1
1528269663638245,-4,0,0,9,-3,-6,-7,0
1528269663652207,-4,-1,1,6,15,4,-1,-3
1528269663652207,2,1,2,19,6,-5,1,2
1528269663659188,-1,-1,-1,4,10,11,3,-3
1528269663659188,-2,-2,4,-6,-12,-1,0,-2
1528269663676143,-1,0,0,-3,-5,0,-3,-2
1528269663676143,-2,-4,0,23,-7,-6,1,1
1528269663677140,2,-2,-2,-33,2,-5,2,2
1528269663677140,-1,-4,-8,23,14,-4,-1,-1
1528269663698085,2,-2,16,41,-7,5,3,-2
1528269663698085,1,0,-4,-34,1,0,-2,-2
1528269663700079,-4,-5,-11,6,-10,-9,-10,-5
1528269663700079,0,3,15,6,23,10,0,2
1528269663713044,0,2,4,22,-4,-1,-4,1
1528269663713044,-3,-4,-9,-3,5,-5,-4,-3
1528269663719028,0,1,9,-8,6,1,2,-2
1528269663719028,0,-5,-8,1,1,6,2,1
1528269663735983,1,0,-7,-44,-12,1,-1,3
1528269663735983,-1,2,19,77,-10,-8,-4,-2
1528269663736988,-6,-6,-38,-105,-22,-8,-3,-2
1528269663736988,-3,3,7,0,-10,-10,-4,-4
1528269663757925,-3,3,1,16,3,-3,5,-1
1528269663757925,1,-1,5,-11,10,17,3,-3
1528269663759920,0,-5,-3,18,15,7,-1,-1
1528269663759920,-1,1,-2,-1,-6,4,-1,2
1528269663772886,-4,-10,-20,-29,3,-1,-1,0
1528269663772886,-1,-2,-4,-1,-13,-14,-1,0
1528269663779865,1,1,-1,6,-8,0,1,0
1528269663779865,2,2,2,38,8,0,-2,-2
1528269663795852,1,7,13,-27,-12,-20,-6,0
1528269663795852,-4,-5,-6,1,21,14,2,3
1528269663797819,5,-4,4,41,7,1,1,5
1528269663797819,1,1,3,-65,-29,-11,-4,-2
1528269663817764,-4,-3,-9,39,-12,-7,-6,-7
1528269663817764,-3,0,2,-47,1,3,3,-3
1528269663819760,-2,2,9,17,-6,-10,-4,-3
1528269663819760,2,0,4,33,8,-1,-1,-2
1528269663832724,2,-3,-7,-14,14,19,5,1
1528269663832724,-1,8,8,20,-3,7,0,1
1528269663839735,-5,-7,-20,-55,5,4,-1,1
1528269663839735,-3,-2,11,21,-17,-13,-5,0
1528269663863690,-3,-4,5,9,4,-7,-1,-3
1528269663863690,-1,-6,5,26,8,3,2,-1
1528269663864640,-1,2,9,32,1,-2,-4,-2
1528269663864640,-2,-5,-22,-23,-5,2,-1,-1
1528269663885642,3,5,2,-35,-3,-3,-4,0
1528269663885642,-2,-15,-2,29,0,-4,-5,-5
1528269663887580,-4,-9,-11,-26,-11,-5,-1,-5
1528269663887580,0,6,4,24,5,-3,-2,1
1528269663892601,-1,8,-4,22,8,9,7,3
1528269663892601,3,16,-8,-92,-31,-11,-6,-1
1528269663899573,-1,12,-10,-13,-10,-5,-7,-1
1528269663899573,-6,-5,-10,-46,15,10,3,-1
1528269663915503,0,-1,-3,72,4,-3,0,-2
1528269663915503,1,3,2,-30,-3,-13,-2,-2
1528269663917499,-1,-1,7,13,3,1,1,-2
1528269663917499,0,-9,-16,-17,-6,-3,0,-1
1528269663938494,2,-6,2,11,1,6,2,0
1528269663938494,-1,0,13,-1,-1,1,-1,1
1528269663939475,-2,-3,10,15,-4,-3,1,-4
1528269663939475,-1,-1,-3,52,14,5,4,-1
1528269663960412,2,1,2,-67,-13,-3,-2,0
1528269663960412,1,1,3,54,2,-4,-7,-1
1528269663962378,-3,2,4,-9,10,4,-8,1
1528269663962378,-3,-4,-24,2,-7,3,7,0
1528269663975343,-7,-3,-5,-30,-3,-1,-7,-5
1528269663975343,-3,-4,6,23,-15,-13,-7,-3
1528269663977339,0,-1,6,-12,-3,-2,1,0
1528269663977339,2,0,16,33,0,0,-3,0
1528269664005265,-1,0,-5,19,4,4,1,1
1528269664005265,-1,0,-10,-7,13,6,0,-1
1528269664007260,-2,2,5,1,-11,-8,-9,-7
1528269664007260,1,-5,8,10,8,3,-4,-2
1528269664012249,-1,-4,20,62,-4,-6,6,1
1528269664012249,-3,-9,8,-29,-10,-4,0,0
1528269664021223,3,-13,-14,26,4,2,7,5
1528269664021223,-1,-2,11,-56,-19,-9,-6,-5
1528269664036209,-1,-6,-17,-40,8,3,-1,-4
1528269664036209,-2,2,1,51,13,5,1,-2
1528269664037179,1,1,-6,-17,-5,0,4,1
1528269664037179,-1,2,4,14,-5,-2,1,1
1528269664058182,0,3,8,64,13,1,-3,2
1528269664058182,-3,-1,-20,-99,-12,-2,2,1
1528269664060116,-2,4,7,22,-1,3,-2,1
1528269664060116,0,-4,-22,-30,-2,0,-2,1
1528269664072084,-3,-6,-15,-6,-2,0,-3,0
1528269664072084,1,-4,-10,20,2,-4,-18,-1
1528269664081060,1,-1,12,-4,-3,-5,17,-2
1528269664081060,-1,0,3,30,-4,-5,5,-3
1528269664096026,1,3,-5,-33,-1,-1,2,-3
1528269664096026,2,4,5,65,15,5,4,-1
1528269664097063,-1,-1,15,-26,-9,-5,-8,-1
1528269664097063,-4,-4,-30,-19,-11,-2,-1,-2
1528269664118019,0,2,3,-42,-6,-2,0,0
1528269664118019,-2,-2,-3,5,9,3,2,1
1528269664119958,-1,10,1,89,5,1,-4,-1
1528269664119958,-1,-5,4,-69,-8,3,0,-2
1528269664131924,-5,-6,0,-14,-8,-6,-8,-5
1528269664131924,-2,0,0,3,14,7,8,-4
1528269664140905,-2,-2,-9,0,-7,-1,-5,-1
1528269664140905,1,5,9,12,-1,-4,-7,3
1528269664155915,0,1,-1,17,8,5,1,1
1528269664155915,0,-3,1,-10,-9,-6,-3,-2
1528269664157861,1,1,-7,-15,9,4,2,1
1528269664157861,-1,0,7,27,-1,-1,-3,1
1528269664178800,0,-1,1,-11,-4,-1,0,0
1528269664178800,-2,-7,-17,-43,-22,-11,-1,-1
1528269664179797,-3,-1,-7,-6,11,5,3,-3
1528269664179797,0,-3,-15,-5,-7,-7,-2,-1
1528269664191777,2,1,1,0,4,-3,-1,0
1528269664191777,0,-3,-13,-2,-5,0,-4,-2
1528269664201425,-4,-6,7,25,1,3,-3,-5
1528269664201425,-3,-2,9,-7,11,7,3,-3
1528269664216431,-3,-8,-16,0,-4,-1,2,0
1528269664216431,-2,2,-6,-20,-6,-3,2,1
1528269664217384,1,-2,-9,-3,-2,-4,0,3
1528269664217384,0,5,12,23,-1,-8,4,0
1528269664238328,-2,1,-1,-11,-5,-5,-4,-2
1528269664238328,-1,-1,9,26,14,8,3,-1
1528269664240324,0,-2,12,2,-11,-5,-7,-2
1528269664240324,-3,-2,-9,-38,-2,0,-5,-5
1528269664252455,-1,0,-8,-18,-7,-4,-6,-2
1528269664252455,-1,2,1,19,1,5,9,3
1528269664261412,-1,1,10,15,7,4,-3,3
1528269664261412,0,2,15,72,-5,-2,-5,0
1528269664276230,0,0,-23,-97,-14,-8,-5,-3
1528269664276230,-3,-3,0,35,12,0,2,-3
1528269664277236,-1,1,-1,-32,-7,-3,0,0
1528269664277236,-3,-1,6,3,3,-1,-7,-3
1528269664298312,-6,-4,1,27,8,7,8,2
1528269664298312,0,-3,1,7,0,-3,-4,-1
1528269664300163,2,1,-1,22,0,-6,-3,-2
1528269664300163,-1,-2,-15,-88,-14,-6,-3,-4
1528269664312288,1,4,1,7,0,-3,-7,-3
1528269664312288,1,2,-1,-11,-2,-5,-2,1
1528269664321112,-1,1,3,28,2,-1,6,0
1528269664321112,0,-2,-22,-8,5,-2,-2,0
1528269664336322,0,-5,0,-14,-18,-2,-2,0
1528269664336322,1,-2,-1,44,-3,-3,-3,-2
1528269664337303,0,-4,-6,-29,-7,-1,-9,-5
1528269664337303,1,-1,12,24,16,9,9,0
1528269664358677,1,-1,-1,-60,-6,-2,0,3
1528269664358677,-3,-1,16,11,-6,-5,-2,-1
1528269664359685,-2,-4,-5,1,3,3,2,0
1528269664359685,0,3,0,6,5,6,-1,0
1528269664371509,0,10,15,42,8,2,1,1
1528269664371509,-5,1,-2,-2,-2,-2,-9,-4
1528269664380651,3,-2,-12,-31,0,-3,-1,1
1528269664380651,-2,-3,17,11,-9,-3,-2,0
1528269664403603,4,5,11,49,11,2,1,1
1528269664403603,-3,-16,-17,-29,-4,0,7,1
1528269664404420,6,-2,11,-4,-5,-6,1,0
1528269664404420,5,0,-7,12,-1,-4,-3,0
1528269664418525,2,-2,6,38,6,2,0,-1
1528269664418525,4,3,-8,-35,-1,11,5,1
1528269664420377,-10,-13,-12,-16,-8,-10,-3,-5
1528269664420377,-6,-9,10,20,-2,-1,-1,-1
1528269664432485,-6,-9,-18,-25,-6,-3,-11,-9
1528269664432485,-2,22,14,4,-2,-2,-5,-13
1528269664441353,20,45,33,1,11,3,3,0
1528269664441353,-18,-53,-42,-5,1,6,6,-2
1528269664454299,-6,-3,10,-3,0,2,5,10
1528269664454299,3,2,2,-8,-6,-12,-5,3
1528269664463462,-14,-24,6,9,-5,-1,-5,4
1528269664463462,14,9,-7,-7,-3,5,0,3
1528269664476427,-8,3,16,7,-6,-7,-12,-4
1528269664476427,4,15,14,7,4,-1,13,3
1528269664486477,5,20,-11,-28,-10,-5,-9,2
1528269664486477,1,27,22,19,9,10,-2,-1
1528269664501360,8,4,9,-9,-10,-11,-5,-7
1528269664501360,-1,-17,4,3,5,11,5,2
1528269664502372,-6,-19,-17,-35,-11,-6,15,-3
1528269664502372,1,16,29,11,-7,-1,-17,-1
1528269664523336,-4,-15,-10,10,-6,8,3,-1
1528269664523336,-1,-15,-18,-27,2,-3,-12,-4
1528269664525298,-5,-17,-12,21,6,1,-6,-2
1528269664525298,0,-7,-4,24,2,-8,-3,-3
1528269664537265,3,-7,-15,-33,-12,-5,-4,1
1528269664537265,2,-20,-41,-55,-12,-6,-2,2
1528269664546241,-6,-35,-15,3,3,-1,-3,-4
1528269664546241,5,6,-4,-28,2,-6,9,2
1528269664561201,2,12,21,62,13,4,7,1
1528269664561201,-4,6,-4,-20,-3,-1,-7,-4
1528269664562198,0,5,9,-8,-6,1,-4,-3
1528269664562198,-8,11,-33,1,-12,-9,-1,-4
1528269664591120,-2,13,13,0,5,5,8,1
1528269664591120,3,9,27,37,5,5,-1,4
1528269664592124,-9,16,-32,-38,-6,-8,-10,-10
1528269664592124,-4,3,9,1,4,-2,16,1
1528269664597104,-1,10,-21,-29,-3,-11,-9,-8
1528269664597104,0,11,9,7,-18,-2,2,4
1528269664606080,-4,9,26,26,5,-1,-11,-2
1528269664606080,0,17,-4,-10,1,6,3,-3
1528269664621041,-5,-5,-35,-5,11,0,0,-3
1528269664621041,0,0,40,46,8,5,4,-2
1528269664622039,-4,-14,-60,-32,-14,1,8,3
1528269664622039,-3,-10,-4,-47,-3,-6,-7,-3
1528269664643138,2,-2,3,43,-2,-2,-4,2
1528269664643138,-5,-3,-8,-57,0,1,2,-2
1528269664644993,0,7,-7,64,-5,-4,1,-2
1528269664644993,0,-4,1,9,0,-5,-9,-4
1528269664657109,-4,-14,2,4,-1,-1,-4,-1
1528269664657109,-5,-8,-13,32,1,-2,0,-2
1528269664665921,-2,-2,-28,-47,-9,-5,-11,-2
1528269664665921,-4,2,40,24,17,14,13,0
1528269664688191,-4,2,-30,-46,-9,-5,9,-1
1528269664688191,-3,24,12,-10,-3,-7,-13,-4
1528269664690038,6,4,5,1,8,3,13,1
1528269664690038,-1,-18,-12,9,-8,-9,-8,-6
1528269664703361,7,-21,1,-8,-3,1,22,3
1528269664703361,-1,-16,-23,-11,4,0,-6,-3
1528269664705194,-1,-1,-5,-8,-1,1,-5,1
1528269664705194,7,8,9,17,4,0,4,7
1528269664717323,6,-18,31,11,-1,2,-27,-1
1528269664717323,-19,-27,-18,11,-8,-7,-7,-7
1528269664726138,-1,-14,14,5,10,10,4,0
1528269664726138,-2,-3,-8,4,-4,-7,-8,-14
1528269664741098,-4,-17,-37,-25,-2,3,1,-1
1528269664741098,9,-6,8,12,3,-11,1,3
1528269664742134,8,10,24,4,1,-5,-6,9
1528269664742134,-9,-24,-20,-20,-9,2,6,4
1528269664763042,5,21,8,-1,2,-1,-1,0
1528269664763042,5,13,4,8,8,6,4,1
1528269664765035,-2,-4,7,27,9,4,8,-1
1528269664765035,5,12,2,-20,-4,-2,-8,3
1528269664777160,-4,4,6,-3,1,0,-7,-4
1528269664777160,-5,3,16,37,2,0,-3,1
1528269664785978,4,40,27,-23,-5,-1,-4,-2
1528269664785978,-10,-13,2,0,-3,-8,-3,-3
1528269664801100,-6,7,-9,-2,-5,-3,4,1
1528269664801100,-3,-5,-9,-10,-11,-7,-4,-6
1528269664802098,4,12,23,20,4,3,1,-2
1528269664802098,-1,-7,0,13,-7,3,-2,1
1528269664831020,0,-16,2,3,0,-7,-2,-3
1528269664831020,4,15,15,-4,-1,-4,1,0
1528269664832996,0,-13,-4,-43,-13,-3,-8,-3
1528269664832996,0,1,-13,-19,-2,1,-5,2
1528269664836881,-4,-9,4,22,-2,-5,-5,-2
1528269664836881,2,-16,-19,-3,-4,-5,-7,-4
1528269664845868,-1,-15,-9,5,12,8,9,0
1528269664845868,2,1,7,63,2,-2,0,-2
1528269664860984,0,13,-8,-101,-20,-1,0,-4
1528269664860984,0,1,5,19,0,-1,-1,-2
1528269664862979,-1,-4,6,-9,-12,-7,1,1
1528269664862979,-1,-4,11,42,8,-4,-1,-1
1528269664883269,2,3,8,15,20,5,-2,4
1528269664883269,-1,4,5,-26,-3,9,11,2
1528269664885099,-6,-4,6,55,13,1,-14,-4
1528269664885099,2,-3,-40,-106,-29,-9,-5,1
1528269664897222,-6,-16,-41,22,-6,-5,5,-3
1528269664897222,0,-13,-26,-18,-5,-2,-1,0
1528269664906043,2,-15,13,5,10,1,11,0
1528269664906043,-2,-2,10,43,7,0,-8,0
1528269664921003,-4,7,13,-23,1,1,14,1
1528269664921003,-8,-2,-72,-57,-7,-2,3,2
1528269664922156,-3,7,18,24,-12,-6,-9,-1
1528269664922156,-2,15,-13,-1,4,-3,-1,1
1528269664943101,0,11,6,19,4,-1,-3,0
1528269664943101,1,3,11,60,0,-1,-4,-4
1528269664944940,-1,-21,-14,-57,-13,0,4,-4
1528269664944940,3,-9,14,-23,-2,-2,-2,0
1528269664957063,0,12,21,19,6,3,15,0
1528269664957063,1,15,18,5,-3,-7,-24,-5
1528269664965883,-3,13,2,10,-1,-7,-7,-6
1528269664965883,3,3,7,-7,12,-1,1,2
1528269664981005,-2,-2,-1,-1,-14,-8,-9,-2
1528269664981005,0,-4,3,35,4,7,6,0
1528269664982946,2,-5,-14,-40,4,4,9,3
1528269664982946,-4,-20,2,28,9,15,10,0
1528269665002893,-4,-18,-7,-1,-5,-5,-11,-2
1528269665002893,6,4,23,-3,2,-1,-9,0
1528269665004780,-5,-31,-20,8,3,1,-9,2
1528269665004780,27,40,20,-4,10,-6,14,26
1528269665016886,-16,-23,6,24,-12,0,-5,-29
1528269665016886,22,23,20,-40,-4,-1,8,6
1528269665025765,-22,-3,-4,-4,-9,2,-1,-9
1528269665025765,-5,7,3,-9,-5,-9,-13,-6
1528269665040839,0,5,-3,19,10,0,-3,7
1528269665040839,-6,7,-2,-13,-10,-8,-7,-1
1528269665042712,6,27,10,33,1,2,5,1
1528269665042712,-7,-12,-33,-34,-9,-2,-5,-9
1528269665063656,-4,-6,14,13,-4,-1,-3,-3
1528269665063656,-3,-8,-1,7,8,9,10,-4
1528269665065616,4,4,-8,-20,-5,-3,-1,2
1528269665065616,-9,-4,10,23,0,1,-3,-4
1528269665076595,6,-2,3,19,1,-1,-7,2
1528269665076595,-6,-17,8,-14,-3,-4,0,3
1528269665085570,0,-23,-14,-50,-3,0,-1,2
1528269665085570,-3,-13,0,8,-3,2,-5,-2
1528269665100684,5,-2,-16,-18,6,0,-12,5
1528269665100684,-3,-11,-30,37,5,4,12,2
1528269665107536,2,19,2,23,-5,-10,6,-5
1528269665107536,-2,12,-21,-37,4,6,6,-9
1528269665123618,1,10,14,50,3,5,4,3
1528269665123618,-5,-8,-25,-90,-17,2,1,0
1528269665124615,4,-9,19,26,19,6,-2,-4
1528269665124615,-2,-6,-22,-24,-2,-4,-4,-1
1528269665145450,-1,2,23,11,-1,-2,-2,-1
1528269665145450,-3,1,-32,8,11,-3,-6,-2
1528269665147403,-1,4,10,-9,-14,-7,0,4
1528269665147403,-5,-2,27,41,-4,-3,0,0
1528269665160362,-1,3,-17,-45,8,0,4,-2
1528269665160362,-8,3,12,55,0,0,5,-3
1528269665167381,-7,8,-4,-2,6,7,3,-1
1528269665167381,-2,-2,-20,-63,-15,1,-1,1
1528269665183354,-2,11,26,10,-5,-5,-3,1
1528269665183354,-3,-3,-17,-21,-3,-3,-5,-1
1528269665185353,-2,-22,-10,47,10,1,0,1
1528269665185353,0,-3,3,76,4,-8,-4,-3
1528269665205296,-1,0,-22,-91,-9,4,6,-1
1528269665205296,-2,10,10,30,1,-1,-7,-7
1528269665206240,2,20,-13,-2,6,0,2,0
1528269665206240,-3,-5,-4,31,-2,-2,-2,-2
1528269665219262,6,3,-1,-1,-2,-7,4,5
1528269665219262,1,-9,13,5,9,11,-5,4
1528269665235217,13,26,17,1,-3,-11,-19,0
1528269665235217,-18,-55,3,-11,-8,2,2,-7
1528269665242192,1,-9,-11,2,-3,-3,-16,-5
1528269665242192,12,35,41,-4,-4,-4,1,8
1528269665243142,-1,-13,-3,0,-19,-3,7,-7
1528269665243142,8,28,36,-3,2,0,-2,-6
1528269665265137,-3,-8,-3,1,3,4,6,-1
1528269665265137,-7,-30,1,22,5,-1,0,-5
1528269665266081,-2,-2,-9,-8,1,-1,-3,2
1528269665266081,1,21,-1,-7,-4,-5,1,1
1528269665279100,5,17,-2,3,7,4,1,1
1528269665279100,-5,2,-7,-1,-8,-3,0,-3
1528269665288085,-8,0,-3,-2,0,-3,-7,-1
1528269665288085,-5,-13,-5,-7,-2,1,-4,-2
1528269665303021,2,1,13,20,2,-1,-9,0
1528269665303021,0,-20,-33,-12,5,4,6,1
1528269665303021,-5,-19,1,-53,-7,-6,-3,-6
1528269665303021,1,-11,-19,-6,1,-1,-2,0
1528269665324983,-2,-8,-1,-4,-4,2,-2,3
1528269665324983,-5,-9,6,4,0,-3,-2,-3
1528269665325922,0,-9,-12,7,2,4,2,0
1528269665325922,5,1,7,37,-2,-1,-1,-3
1528269665347916,-2,-13,-5,-25,-10,1,5,-2
1528269665347916,2,-12,-15,-27,2,-6,-4,-3
1528269665348866,1,5,-7,-13,1,-5,-5,-2
1528269665348866,4,5,26,24,-4,2,5,1
1528269665362876,0,-6,-10,38,29,7,8,2
1528269665362876,-3,-20,0,30,-4,-5,-5,-2
1528269665363865,-2,-59,6,15,4,5,-2,2
1528269665363865,-8,-23,24,-45,-7,-1,-4,-4
1528269665384816,2,-37,13,5,-18,1,0,4
1528269665384816,-2,16,36,-4,21,10,1,-5
1528269665385778,0,38,-18,56,7,1,9,4
1528269665385778,-4,29,-42,-57,-2,-7,1,2
1528269665400721,-6,55,-12,-6,-16,-18,-9,-3
1528269665400721,0,39,8,7,3,0,0,-3
1528269665407756,-3,32,6,-19,9,9,-6,-8
1528269665407756,3,18,-8,27,-8,0,-4,-1
1528269665422663,-3,-5,-13,1,-5,2,1,-1
1528269665422663,1,-12,0,-9,-2,-5,-6,5
1528269665423660,-4,7,16,24,-18,-12,-2,-1
1528269665423660,-4,11,-37,-20,3,-2,-2,0
1528269665444658,-7,17,8,-5,10,1,-3,-3
1528269665444658,-2,22,-9,2,-13,-6,-3,-3
1528269665445627,4,24,25,8,5,4,3,6
1528269665445627,-5,-14,-9,6,0,-5,-6,0
1528269665459615,-4,-20,-15,3,3,8,10,2
1528269665459615,1,-12,4,4,-2,-1,0,-1
1528269665467671,4,-20,16,-6,-4,4,-7,-13
1528269665467671,0,-67,-24,-16,-2,6,16,11
1528269665482666,-7,-61,-10,-2,-5,-5,-9,-9
1528269665482666,4,-15,4,-9,-12,-11,-5,1
1528269665483513,-2,-22,-9,-19,-15,-4,10,2
1528269665483513,-1,-11,0,2,-5,-3,-14,-9
1528269665505443,-9,-47,-29,-12,29,10,23,-6
1528269665505443,-7,-15,-2,-5,-2,-1,1,2
1528269665506485,3,45,-4,-7,-6,-4,-8,2
1528269665506485,-1,17,15,12,18,1,-2,-1
1528269665519591,-6,-27,8,-10,-15,-10,-5,0
1528269665519591,-5,-25,-1,-2,-10,0,-5,-6
1528269665527386,-3,-11,1,-2,1,-3,-3,3
1528269665527386,3,11,-2,-12,-3,2,9,0
1528269665542342,4,69,19,24,-6,-8,-9,-1
1528269665542342,0,0,-27,-8,2,0,3,-3
1528269665543339,0,57,-19,3,5,2,-5,-2
1528269665543339,3,46,-12,-3,8,3,0,-1
1528269665565423,5,48,1,21,-6,1,-8,0
1528269665565423,2,-95,61,-44,0,-5,-4,0
1528269665566444,2,40,64,-27,-6,0,5,2
1528269665566444,-5,2,-14,46,-5,-9,-7,-6
1528269665580240,0,7,-6,-21,-1,-1,0,-2
1528269665580240,-1,-25,2,50,2,2,2,0
1528269665581238,-9,-128,-80,-45,-5,0,-3,-4
1528269665581238,0,41,10,2,4,1,-5,-1
1528269665602182,3,-11,-37,-92,-6,3,6,4
1528269665602182,-1,-46,6,51,1,2,4,1
1528269665603180,-5,-125,-14,-2,12,-6,2,-2
1528269665603180,3,-62,31,72,-8,-9,-1,4
1528269665625261,-2,-57,41,-5,6,-5,6,-4
1528269665625261,2,33,0,-58,5,7,4,2
1528269665626117,-4,54,-26,37,7,5,5,-2
1528269665626117,-5,45,-31,-10,0,-5,-2,-2
1528269665640422,1,119,-10,51,-6,-3,-5,1
1528269665640422,-2,127,-18,-85,-13,-6,-9,-5
1528269665641416,-3,109,70,23,-2,3,-4,1
1528269665641416,-2,-5,74,-41,1,1,-2,-2
1528269665663218,-3,-43,38,22,-4,-4,-3,-3
1528269665663218,-1,51,7,21,-3,-5,2,-2
1528269665663218,0,51,63,2,-7,-7,-9,-5
1528269665663218,3,-85,117,-33,2,4,1,-3
1528269665685370,-1,-77,-44,18,4,-4,-7,-2
1528269665685370,-1,-39,-103,33,-4,-1,-5,1
1528269665686444,3,-86,8,-17,2,-1,-1,1
1528269665686444,-1,-57,-13,-13,1,1,-1,-2
1528269665699606,3,-45,-35,3,2,-3,-2,-1
1528269665699606,-5,-33,-99,-7,-6,-2,-2,3
1528269665707391,3,-13,-128,12,-2,3,7,3
1528269665707391,0,-25,-95,-4,-3,0,1,-2
1528269665722545,-3,47,-67,-6,-1,0,-4,-1
1528269665722545,2,24,-40,6,1,-1,0,-4
1528269665723349,-1,7,-29,-9,0,0,-4,0
1528269665723349,-1,23,-18,1,-3,1,-2,-2
1528269665745498,0,125,12,-13,1,1,-2,-2
1528269665745498,0,48,53,5,2,2,0,-2
1528269665745498,-1,-1,26,2,-4,-4,-3,-1
1528269665745498,-1,-56,26,-7,-4,-4,0,0
1528269665768577,0,57,55,5,-4,-4,-1,0
1528269665768577,-1,-8,49,6,-2,0,0,-3
1528269665769432,-4,-84,10,-2,-4,-2,0,-5
1528269665769432,0,35,-16,-7,-2,1,1,-1
1528269665782532,-2,-31,31,-6,-1,-2,-5,4
1528269665782532,11,68,34,1,-4,-10,-2,0
1528269665783394,-9,45,3,1,5,5,4,2
1528269665783394,-2,29,0,0,3,2,4,-2
1528269665805368,-1,-27,18,-4,-3,1,6,-3
1528269665805368,-7,-33,21,0,-1,2,-1,-7
1528269665806333,6,-58,5,3,-4,-3,-7,-3
1528269665806333,2,-57,7,0,2,-1,5,1
1528269665821316,1,-61,14,1,2,0,-5,1
1528269665821316,0,-52,18,-3,0,-5,-4,4
1528269665827634,-2,-5,21,-4,-1,-2,-7,0
1528269665827634,-6,18,7,2,0,1,-2,0
1528269665842439,1,1,-3,-3,-4,-4,-2,-5
1528269665842439,-5,1,-1,4,-1,-2,3,-1
1528269665843436,-2,35,-9,0,-2,-4,1,-1
1528269665843436,0,91,-16,-5,-2,2,-1,0
1528269665865386,2,77,-5,-2,-3,3,2,0
1528269665865386,-2,90,2,3,-2,7,0,0
1528269665866472,-1,33,-1,1,-3,-3,-4,1
1528269665866472,-1,-15,-7,-1,-2,-6,-4,0
1528269665879703,-1,-32,4,0,2,-2,-2,0
1528269665879703,-4,-12,12,0,1,-2,-2,0
1528269665887518,-1,-21,7,-5,-5,-5,0,-2
1528269665887518,1,-16,-4,-2,-6,-5,-2,-5
1528269665902619,2,-82,-6,-3,-1,0,3,-2
1528269665902619,-1,-80,-10,4,4,4,-4,0
1528269665903476,3,-42,-12,0,0,4,0,0
1528269665903476,-1,-33,-6,-1,-1,4,-1,2
1528269665924787,-6,-6,1,-2,-2,-2,-3,1
1528269665924787,-2,-17,6,-2,-1,-2,5,3
1528269665925624,-4,8,1,2,2,1,3,-2
1528269665925624,-4,6,2,-1,0,-3,-4,1
1528269665939747,0,26,5,-1,0,-2,11,-1
1528269665939747,-1,12,6,-2,-3,-1,-4,-1
1528269665947894,2,29,5,-3,-1,-1,2,1
1528269665947894,1,53,0,-2,-5,0,-5,-4
1528269665963114,2,40,2,-2,-3,-2,-7,-2
1528269665963114,-1,25,-2,-2,-3,-4,-2,-3
1528269665963114,0,8,-5,-2,-3,-6,-7,-5
1528269665963114,1,-18,0,2,1,0,3,0
1528269665985165,-2,-61,-7,-1,-2,-2,-3,-1
1528269665985165,-2,-50,-2,5,-2,0,3,2
1528269665986055,-2,-2,-7,1,-3,-2,-3,2
1528269665986055,-3,-2,-6,-5,-1,3,1,2
1528269666008158,0,-10,-7,-4,0,4,-2,-3
1528269666008158,2,-7,-4,3,2,6,1,0
1528269666008994,0,-1,-5,-1,-1,1,0,-2
1528269666008994,-2,6,-6,-2,1,-2,-1,1
1528269666022977,1,4,0,-2,-1,-8,-3,3
1528269666022977,-3,2,1,-4,-1,-11,-5,-2
1528269666022977,-4,5,-1,-4,4,-6,2,-2
1528269666022977,-3,10,0,-1,0,-2,2,-1
1528269666045043,-1,4,-4,-2,0,7,-2,-3
1528269666045043,-3,-10,-6,-5,-2,6,0,-2
1528269666045896,-2,5,-10,-7,0,2,-1,-1
1528269666045896,-4,7,-13,-1,5,0,-1,-3
1528269666068870,-2,0,-3,0,-1,-1,2,-2
1528269666068870,0,-9,-5,2,2,0,2,-2
1528269666068870,4,-33,-7,4,-1,-2,-2,4
1528269666068870,4,-16,-7,-3,-3,-5,-2,1
1528269666082956,-3,-8,-5,-7,-5,-4,-3,-1
1528269666082956,-2,-3,6,-5,-6,2,0,-4
1528269666083950,0,13,2,-5,-7,3,0,-2
1528269666083950,0,16,-1,-2,-4,4,0,-4
1528269666104896,-3,12,-7,2,-1,-2,-2,-1
1528269666104896,-5,7,-9,-1,1,-7,-3,2
1528269666105738,-3,0,0,4,1,-7,-2,3
1528269666105738,0,-1,0,2,-5,-2,-2,-1
1528269666128832,-2,4,2,2,-1,3,0,-3
1528269666128832,-1,-4,-1,-2,0,2,-2,-2
1528269666128832,1,2,1,0,-1,1,-1,-2
1528269666128832,2,-1,2,-1,-1,-4,1,-1
1528269666142640,1,-3,3,-2,0,-4,2,1
1528269666142640,0,-2,5,1,1,0,-1,0
1528269666143635,0,7,6,-1,0,2,-3,-2
1528269666143635,3,4,8,-1,1,-1,-2,0
1528269666164894,1,0,7,-1,-3,-3,-2,1
1528269666164894,-3,-2,4,-2,-5,-3,-3,-2
1528269666165768,-8,7,6,2,-1,3,-2,-1
1528269666165768,-9,4,4,1,-2,-1,-1,-4
1528269666188707,-3,1,-1,3,1,-4,-6,-1
1528269666188707,2,1,0,4,-1,-5,-4,0
1528269666189778,5,2,2,0,0,-1,1,1
1528269666189778,4,-3,5,1,3,5,3,2
1528269666203743,1,-3,-3,0,3,1,2,-1
1528269666203743,0,-4,-4,0,-3,0,-3,-5
1528269666204754,-2,-3,-5,-2,-4,-1,-6,-3
1528269666204754,-5,-4,-3,0,0,-4,-4,-1
1528269666224717,-3,-4,2,0,-1,-4,0,0
1528269666224717,-1,-3,-4,-5,1,2,4,2
1528269666225685,-4,-2,-4,-4,-1,-7,9,3
1528269666225685,-1,3,3,-1,-2,-2,-7,0
1528269666247753,-1,0,2,-3,-1,1,-4,-1
1528269666247753,-1,-6,-5,-3,0,0,-1,-4
1528269666254804,-4,-2,-4,-2,1,1,3,-4
1528269666254804,2,-2,-9,-4,-1,0,5,-2
1528269666262917,1,0,-5,3,-5,-2,-1,0
1528269666262917,3,1,2,1,-3,-3,-3,0
1528269666263779,3,3,0,2,-3,-2,-3,-4
1528269666263779,-1,1,3,2,-2,-1,1,1
1528269666284879,1,-1,3,-3,-2,5,-1,1
1528269666284879,-2,-1,-1,-6,1,2,1,2
1528269666285740,-1,-1,-2,-3,-4,0,-4,0
1528269666285740,-4,-1,-1,1,-4,-3,-5,-3
1528269666308662,-3,-5,-4,2,-2,-4,-1,-4
1528269666308662,-3,-1,-4,4,-3,-2,3,-4
1528269666308662,0,-8,-1,1,1,-1,-1,-1
1528269666308662,3,-6,-1,-2,-2,1,-2,0
1528269666323094,1,-6,-6,-7,0,5,-2,2
1528269666323094,0,-3,-6,-5,2,0,-3,1
1528269666323094,-3,-1,-1,-1,2,2,1,0
1528269666323094,-5,-3,-4,4,2,-7,3,-1
1528269666353146,-2,-1,-3,3,2,-3,-1,-3
1528269666353146,1,-2,-1,4,1,-2,-4,-4
1528269666354070,2,-2,-1,1,0,-1,0,0
1528269666354070,5,0,-2,-1,-5,0,-1,0
1528269666368035,5,1,1,-3,-5,0,-4,0
1528269666368035,0,-3,-5,-4,-5,3,1,-1
1528269666369028,2,-3,0,-1,-3,0,-3,3
1528269666369028,-5,-2,0,-4,0,0,-8,-3
1528269666382994,-4,3,0,-2,-1,-5,3,-5
1528269666382994,-4,-3,-2,-2,-4,-2,2,-2
1528269666382994,-4,1,-2,-1,-2,-3,-3,-4
1528269666382994,1,-2,-1,0,0,-4,2,1
1528269666405073,2,-2,-2,-4,2,-3,-8,0
1528269666405073,0,0,-5,1,1,-4,-4,-4
1528269666405930,-5,0,-7,1,-1,-3,2,-5
1528269666405930,-4,1,-6,0,1,0,0,0
1528269666427883,-3,0,1,4,-3,4,5,2
1528269666427883,-1,-1,7,1,-2,0,4,1
1528269666428871,0,-3,4,-1,-1,2,-2,-1
1528269666428871,0,0,2,-3,1,-1,-2,-2
1528269666442832,-2,-1,1,-3,1,-1,-1,3
1528269666442832,1,0,-3,0,0,-1,5,-1
1528269666443828,0,-5,-1,-2,-3,-2,-2,-3
1528269666443828,5,-3,4,-2,-3,3,-2,-3
1528269666464909,3,2,0,-2,-3,-2,-1,-2
1528269666464909,0,5,-1,-1,1,-5,-5,2
1528269666465775,-4,1,-5,-4,-2,-6,-5,1
1528269666465775,-4,-2,-8,-1,-3,-3,-2,3
1528269666488708,-2,-1,-4,-3,1,-1,2,2
1528269666488708,1,-2,4,-1,-2,2,-2,3
1528269666488708,1,1,3,0,-2,1,3,-2
1528269666488708,-2,-3,2,1,-2,-3,-1,-5
1528269666501814,-3,-4,1,6,-2,3,-3,-7
1528269666501814,-7,0,2,2,-3,-2,3,-2
1528269666510652,0,-2,-1,-2,3,1,0,-1
1528269666510652,1,3,-1,-2,0,0,1,-2
1528269666525638,-1,1,0,-5,-1,-2,1,2
1528269666525638,2,-1,-2,-6,-1,-2,-2,0
1528269666525638,-1,-1,-3,-2,2,4,-2,1
1528269666525638,0,0,1,0,-1,3,2,-1
1528269666548737,-2,-2,-2,4,0,1,5,-5
1528269666548737,-2,0,1,2,0,-1,-2,-2
1528269666548737,-1,4,0,-2,-5,-6,-6,-1
1528269666548737,-5,1,-1,0,0,-4,-3,-1
1528269666562835,-2,-3,0,-1,1,-1,-1,-1
1528269666562835,-2,-3,-3,-3,-3,1,-1,0
1528269666563697,-1,-1,0,-1,-6,-2,-3,-1
1528269666563697,-1,-2,3,0,-4,-2,-3,1
1528269666585680,-3,-1,3,1,1,-7,-5,1
1528269666585680,1,0,1,0,5,-4,-1,-4
1528269666586667,4,1,-9,-6,10,-4,4,-1
1528269666586667,3,2,-10,-6,0,0,1,-4
1528269666608886,0,0,-5,-2,-4,4,0,-2
1528269666608886,-4,-3,-2,3,-4,7,-5,2
1528269666608886,-3,-7,1,1,-10,8,-1,1
1528269666608886,-3,-4,-2,3,-4,0,-2,3
1528269666622909,-3,-3,-2,0,-2,-7,-2,-3
1528269666622909,-4,-1,6,0,1,-5,-1,-6
1528269666623904,-2,2,0,1,1,-6,0,-2
1528269666623904,2,-1,-3,-6,2,-2,5,-2
1528269666645710,0,3,-1,-3,1,3,-4,2
1528269666645710,2,2,-3,-1,0,0,0,3
1528269666646707,2,2,-3,-4,3,0,0,1
1528269666646707,1,2,-5,1,-2,-1,4,-4
1528269666668789,0,-2,-5,0,-3,-1,1,-2
1528269666668789,-5,-4,-1,-3,-3,0,-2,-2
1528269666668789,-4,-5,1,0,-6,-1,-3,0
1528269666668789,-3,-3,2,1,-3,1,-6,4
1528269666681749,0,-3,3,-3,-2,-1,3,-1
1528269666681749,1,-4,4,0,1,-3,-3,0
1528269666690593,-1,-3,2,0,4,0,-4,-2
1528269666690593,-2,2,2,-4,2,1,-2,-4
1528269666705641,-1,1,-3,-1,-2,0,-3,-5
1528269666705641,2,-1,-3,0,0,4,0,-4
1528269666706625,1,0,-1,-3,1,0,3,0
1528269666706625,-2,0,-2,-4,2,-3,2,0
1528269666728732,-3,-1,-2,-6,-1,-3,-2,4
1528269666728732,-2,0,0,-2,-4,-4,-2,4
1528269666729565,-1,1,2,0,-4,0,2,0
1528269666729565,-2,0,-1,-2,-1,-2,4,-2
1528269666741539,1,0,-3,-1,-3,-2,2,-1
1528269666741539,-1,0,-5,3,-3,-3,-4,-1
1528269666750646,-1,0,-2,-1,1,2,-5,-1
1528269666750646,2,-2,0,0,2,3,-3,1
1528269666765603,0,-2,-1,-2,2,0,-1,-3
1528269666765603,0,-3,-5,-2,-2,-3,-1,0
1528269666766468,2,-1,-5,4,-3,-1,-6,-3
1528269666766468,-3,-1,-3,0,-2,-1,-4,-4
1528269666788413,-5,-1,-4,-1,0,0,-5,-2
1528269666788413,-6,-2,0,1,1,1,5,-4
1528269666789420,-4,2,2,2,1,0,5,-1
1528269666789420,1,-3,3,-1,0,-4,1,1
1528269666802520,5,-1,1,-1,0,-5,2,3
1528269666802520,1,-1,0,-1,-4,-2,-4,2
1528269666810396,-2,-2,-4,-1,-5,0,-3,1
1528269666810396,-3,-1,1,-1,-5,0,-2,-5
1528269666825314,-6,-4,-1,1,-3,-2,0,-3
1528269666825314,-2,-3,-5,-4,-3,-1,2,-2
1528269666826318,-2,-5,-6,0,-1,-3,-1,-1
1528269666826318,1,-1,-3,-2,3,1,-2,3
1528269666856253,2,1,1,-2,-1,0,-6,-2
1528269666856253,3,2,2,3,0,-2,0,-3
1528269666857223,-1,3,0,1,-2,-2,1,-2
1528269666857223,-3,0,0,1,0,-3,-3,-2
1528269666862355,-1,-3,2,-1,-3,-2,-4,2
1528269666862355,-2,-2,2,-8,0,-3,-4,-2
1528269666871193,0,2,-1,-10,1,-3,-1,-1
1528269666871193,-3,-2,-4,-4,1,-2,0,-1
1528269666884307,-1,-3,-7,0,-4,3,0,3
1528269666884307,-1,-2,-5,0,-4,-1,2,-2
1528269666893324,2,-3,0,0,0,-2,-2,-4
1528269666893324,-1,-2,0,3,0,1,-7,2
1528269666908442,0,-3,1,2,1,0,-3,0
1528269666908442,-5,3,0,1,2,-3,-2,0
1528269666910280,-3,2,2,1,-1,0,2,-1
1528269666910280,0,1,-3,-2,-2,1,3,1
1528269666922410,0,1,-2,-2,-4,-2,5,-3
1528269666922410,3,-3,-2,0,-3,-2,5,-2
1528269666931224,1,-4,4,1,-4,-1,-4,0
1528269666931224,0,0,2,-1,0,1,-8,2
1528269666945324,-2,1,1,-5,0,1,-4,-3
1528269666945324,-2,3,-1,-4,2,2,-1,-3
1528269666952303,-1,-2,-1,-1,0,-1,3,-3
1528269666952303,-1,-2,0,1,-4,2,2,-3
1528269666968267,-3,-2,-3,-2,0,-3,-1,-1
1528269666968267,-4,0,-2,-4,1,-3,-1,2
1528269666970120,0,-2,-7,-4,1,-1,-6,2
1528269666970120,0,-1,-1,-4,0,-2,0,-1
1528269666982451,0,0,-2,1,2,4,-1,-3
1528269666982451,1,-2,-1,2,-2,0,-3,-1
1528269666991265,-1,-4,-1,3,-6,-5,2,-2
1528269666991265,-2,-3,-1,4,-3,-8,0,-4
1528269667005363,1,-1,-3,-3,-2,-5,-1,-2
1528269667005363,2,-3,-5,-2,-3,1,-6,-2
1528269667012344,-1,-3,1,1,-2,-1,2,0
1528269667012344,2,3,-1,-5,-4,1,1,0
1528269667028355,-2,-1,1,-3,-1,4,-3,2
1528269667028355,-4,0,0,-2,4,0,-3,2
1528269667030161,-5,-1,2,-5,2,-3,-2,-2
1528269667030161,-3,-2,3,-2,2,-2,-1,-1
1528269667051246,-1,2,0,-3,-1,-5,-1,3
1528269667051246,-2,2,-5,-4,3,-7,1,-1
1528269667052200,-2,0,-3,1,2,-3,-3,-1
1528269667052200,-6,-3,-4,0,-1,3,-4,-2
1528269667065143,-4,-3,-2,1,-5,8,2,0
