timestamp,emg1,emg2,emg3,emg4,emg5,emg6,emg7,emg8
1528183121879667,-1,-2,7,-6,1,-2,-3,0
1528183121879667,-1,1,2,-4,-8,0,3,1
1528183121880664,-2,2,7,1,-1,0,-2,-2
1528183121880664,0,-2,8,-1,3,-1,-2,-3
1528183121881663,0,-2,-4,8,-3,-1,-1,1
1528183121881663,-2,-2,1,-6,0,-3,-3,0
1528183121883657,0,1,38,-3,-1,1,1,1
1528183121883657,2,2,7,-1,-1,1,-1,-1
1528183121891637,-1,2,13,-5,1,2,0,-1
1528183121891637,-1,-4,-20,0,-1,-2,-3,-3
1528183121898617,-1,-5,-35,-1,-4,-1,0,-2
1528183121898617,-2,-3,12,2,1,0,-1,-2
1528183121905599,-1,-1,-2,3,0,-3,-1,-3
1528183121905599,1,1,19,3,-1,-2,0,-1
1528183121923550,-1,0,-28,-6,1,-1,0,-1
1528183121923550,-2,-6,-17,-2,-3,-2,-1,-1
1528183121926543,-1,0,5,2,-1,0,0,-1
1528183121926543,1,-1,1,0,1,-6,-20,-5
1528183121951475,-3,0,28,1,-4,1,6,-1
1528183121951475,-3,2,-26,-11,-8,1,17,-2
1528183121952482,0,0,0,-1,1,-6,-2,-1
1528183121952482,0,-1,2,2,8,11,-9,1
1528183121964440,3,-3,-58,9,-3,1,14,0
1528183121964440,-7,-3,29,4,11,-2,-6,1
1528183122004334,-1,-1,-11,-2,-5,-11,-6,-1
1528183122004334,-3,0,28,2,-2,4,-6,-2
1528183122019295,-4,-3,-64,3,-1,5,-3,-1
1528183122019295,-2,-1,4,4,-8,-2,-2,-2
1528183122020293,-1,0,-2,-7,12,0,-1,1
1528183122020293,0,0,-3,-10,8,-14,-3,-1
1528183122021290,-2,-2,2,-6,-43,11,0,-2
1528183122021290,0,1,6,6,21,-2,-3,-1
1528183122025279,0,-2,-10,11,2,6,0,-1
1528183122025279,-1,-1,-12,-9,-17,-13,-9,0
1528183122026275,0,1,20,2,52,12,18,3
1528183122026275,-2,-2,1,-4,-24,12,8,-1
1528183122041236,1,1,3,-3,0,-7,3,1
1528183122041236,0,-4,-21,2,-2,-9,-4,-2
1528183122047220,-4,0,11,-1,-47,-25,-15,-2
1528183122047220,-1,0,6,-3,3,-40,-9,-3
1528183122063177,-1,-2,2,0,4,40,-12,-1
1528183122063177,2,1,31,8,15,11,17,1
1528183122078136,1,-3,-34,-7,13,-19,2,-1
1528183122078136,0,0,-7,-3,-1,25,-20,4
1528183122080133,-3,-1,19,10,-38,-42,-2,-11
1528183122080133,-2,-3,-13,-11,5,8,3,3
1528183122101075,0,1,41,8,49,49,2,-1
1528183122101075,-3,-3,-13,-3,-19,-22,8,1
1528183122102072,-3,0,-11,-16,-9,3,-6,3
1528183122102072,-8,0,8,7,-49,-36,-14,-3
1528183122114085,-5,-2,4,-9,19,-2,9,-7
1528183122114085,-2,-2,-32,-3,-9,-15,0,0
1528183122123016,1,-2,-10,7,16,38,8,0
1528183122123016,-1,3,-3,9,14,43,5,-1
1528183122137977,0,1,13,-5,-15,-75,-18,0
1528183122137977,-1,-5,-4,0,6,26,0,-3
1528183122143961,-5,-3,-11,-8,-18,26,5,-1
1528183122143961,3,2,6,-5,45,1,5,2
1528183122160916,2,0,5,12,-29,6,-11,-2
1528183122160916,1,1,4,-1,-4,-28,8,-3
1528183122161913,1,-3,-55,-18,-28,-55,0,0
1528183122161913,-1,-6,-5,14,6,13,-13,-4
1528183122173880,2,0,6,-7,-4,37,1,4
1528183122173880,-2,2,4,-12,1,-24,-6,-3
1528183122182856,-2,-8,-15,10,29,32,5,1
1528183122182856,1,-1,10,-3,3,-6,0,-2
1528183122197817,-2,-2,-65,-8,-59,-37,-2,2
1528183122197817,5,0,0,-16,-14,-9,-18,-3
1528183122199821,-3,-1,29,8,19,37,20,0
1528183122199821,1,5,9,15,58,0,-4,1
1528183122228734,0,-3,10,5,-13,0,16,0
1528183122228734,1,3,10,-5,-50,-25,-10,1
1528183122229731,1,-3,-26,-17,57,-17,-17,-2
1528183122229731,-2,-5,-8,-4,-36,21,5,-1
1528183122234735,-2,1,12,5,19,30,1,0
1528183122234735,-2,-5,-2,-1,-34,-39,1,-3
1528183122243695,-1,4,13,5,-9,-9,-18,-2
1528183122243695,-1,-3,-31,-1,38,23,21,-1
1528183122258654,-1,-1,-14,-21,-16,-17,-8,-3
1528183122258654,-2,1,29,11,14,15,6,-2
1528183122259652,0,1,12,8,-28,-34,0,-1
1528183122259652,-1,-5,-7,-7,21,53,-5,-1
1528183122280596,0,-3,0,-2,6,-8,-6,-1
1528183122280596,-3,-2,-6,7,-15,0,13,2
1528183122282595,0,1,72,0,46,16,-3,-1
1528183122282595,1,1,-7,-8,-58,-35,-3,1
1528183122294603,-1,-2,2,-1,11,0,-4,-2
1528183122294603,-3,-3,10,21,42,21,0,0
1528183122303535,1,1,-9,-22,-47,-14,4,-3
1528183122303535,0,1,-25,-16,-5,-6,-5,0
1528183122318494,0,0,28,1,22,-3,-5,-1
1528183122318494,-2,0,-17,9,-2,6,-7,-3
1528183122319491,0,-2,-15,-9,-14,-9,30,2
1528183122319491,-3,-5,-10,-8,-7,-26,-32,-1
1528183122340481,-1,1,21,4,-30,8,32,-5
1528183122340481,-1,0,2,1,70,41,-19,0
1528183122342431,-1,1,44,21,2,14,14,-1
1528183122342431,1,3,-6,-12,-41,-29,6,2
1528183122354399,-8,-6,-20,8,16,-13,-22,-9
1528183122354399,1,-1,37,3,7,14,21,2
1528183122363375,0,-3,-33,-14,-14,-14,-23,-2
1528183122363375,-2,-1,-17,-1,0,0,1,-2
1528183122378386,2,0,-5,31,1,-4,9,3
1528183122378386,-2,1,-15,-33,4,19,-1,0
1528183122380328,-1,-6,16,26,5,4,15,0
1528183122380328,-2,1,22,-6,-18,-15,-12,-4
1528183122400276,0,-4,4,-3,39,33,9,4
1528183122400276,-3,-1,-39,5,-22,-8,-2,-1
1528183122402271,-2,1,33,-1,-5,-15,-6,-2
1528183122402271,-2,-4,-4,0,3,-1,-1,-3
1528183122423248,-1,-5,-63,-7,-13,-7,-16,0
1528183122423248,1,-1,23,2,13,2,9,-1
1528183122425210,-1,1,-4,5,-9,-6,-19,-3
1528183122425210,0,-3,-17,66,4,-2,-3,1
1528183122438221,1,1,13,-68,0,6,23,-2
1528183122438221,1,1,-9,-34,-5,5,6,1
1528183122440204,0,2,-16,-17,-2,5,-7,0
1528183122440204,2,0,-24,9,-9,-14,-4,1
1528183122468102,-3,1,39,49,4,-11,-31,-5
1528183122468102,0,2,19,8,1,2,4,-2
1528183122470125,-1,-4,22,10,7,7,24,2
1528183122470125,3,1,-48,-4,3,12,-1,4
1528183122474078,2,5,49,2,0,-1,-22,1
1528183122474078,-3,2,21,-16,-10,-6,8,-3
1528183122483055,-4,-3,5,-8,2,-12,-45,-3
1528183122483055,-3,-2,-5,3,-3,10,49,1
1528183122506045,-2,-9,-45,-1,0,-3,-20,4
1528183122506045,-2,-3,8,-10,-3,-6,12,-5
1528183122507021,1,4,-24,7,0,-8,10,0
1528183122507021,-1,0,31,4,3,24,33,0
1528183122520992,4,9,41,-55,-9,-3,-9,-2
1528183122520992,-3,-6,-25,31,4,-3,-18,-2
1528183122521950,2,1,-17,-19,-3,-2,-1,2
1528183122521950,-4,-7,25,0,-5,-14,-13,-6
1528183122533918,1,2,44,16,4,7,15,3
1528183122533918,1,-2,-52,-27,0,3,-8,2
1528183122542894,1,1,22,26,-6,-5,-6,-2
1528183122542894,-4,0,19,20,2,-15,-25,-4
1528183122557854,-4,-6,21,-24,-9,-5,4,-4
1528183122557854,-1,0,-30,-27,2,9,33,-3
1528183122571869,0,-1,9,3,7,5,16,5
1528183122571869,1,1,6,-19,-3,-3,-22,-3
1528183122580806,1,0,-3,16,5,5,25,4
1528183122580806,-2,-7,-46,16,-6,-16,-41,-5
1528183122582815,0,2,-17,-10,4,20,28,3
1528183122582815,-4,-1,25,-13,-1,-8,-3,-3
1528183122594792,0,1,1,-12,-3,-2,1,-3
1528183122594792,-4,-5,-51,27,0,-4,-3,1
1528183122603748,-1,1,14,-4,-5,-13,-26,-2
1528183122603748,0,-1,-25,-24,-7,2,8,-3
1528183122617694,1,1,-3,15,8,2,-1,0
1528183122617694,-1,-1,-1,0,2,6,7,2
1528183122624675,-1,-3,-15,11,-2,-11,-43,-4
1528183122624675,-2,-3,-5,-20,-3,-14,-12,-2
1528183122640635,-2,-1,-30,17,-5,12,62,-2
1528183122640635,2,1,44,24,-1,0,-6,0
1528183122642628,0,-2,3,-41,-8,-14,-55,-6
1528183122642628,0,2,9,-22,0,17,46,4
1528183122654623,-3,-2,-3,2,-7,-20,-43,-2
1528183122654623,-1,-1,44,13,0,11,25,1
1528183122663572,-2,-5,-1,7,-2,-8,-31,-4
1528183122663572,0,2,2,24,0,-13,-10,-2
1528183122677565,-3,-6,-27,-30,-8,-3,-19,1
1528183122677565,2,2,35,2,8,9,54,3
1528183122684559,-1,0,-37,6,3,17,-34,0
1528183122684559,0,-2,9,-7,-2,-1,2,-2
1528183122700493,-3,-3,-58,5,1,-10,-17,-4
1528183122700493,0,4,15,-10,-4,-10,-63,0
1528183122702468,-2,-1,21,-7,2,7,78,0
1528183122702468,0,0,-28,26,7,3,-19,-2
1528183122714595,1,4,30,-17,-6,-6,-19,-3
1528183122714595,-3,-2,23,13,-5,-10,-13,-6
1528183122723423,-2,-1,-10,18,-9,-21,2,0
1528183122723423,-2,0,0,-4,3,24,24,1
1528183122745359,-2,0,-39,3,3,-5,-17,1
1528183122745359,-4,-5,9,-19,-2,24,58,1
1528183122747369,-1,0,19,15,1,-6,-2,-1
1528183122747369,-2,-2,18,-1,0,-16,-46,-3
1528183122760314,-1,5,36,-17,-6,3,20,0
1528183122760314,-3,-4,-40,6,5,-11,-28,-5
1528183122762308,0,2,-17,-24,-1,2,9,0
1528183122762308,-3,-7,-21,-18,-8,-6,-5,-1
1528183122783395,-2,-1,5,12,-4,2,5,-3
1528183122783395,-1,-1,4,30,4,-35,-80,-9
1528183122785248,-1,2,-1,-48,-2,40,75,6
1528183122785248,1,-1,15,-13,-2,-3,14,1
1528183122797366,-2,-3,-6,9,3,2,24,0
1528183122797366,1,2,27,16,-1,16,5,2
1528183122806477,-2,-7,-71,2,1,-20,-49,-6
1528183122806477,0,2,13,-17,-8,-6,11,3
1528183122820473,-2,-5,36,40,4,0,-3,-3
1528183122820473,1,6,17,-26,-7,-6,-7,0
1528183122822346,-3,-3,16,7,2,1,10,-2
1528183122822346,-1,2,11,-5,-8,-1,12,-3
1528183122843289,1,-3,-50,12,16,6,-3,-1
1528183122843289,1,-2,4,-17,-6,2,8,0
1528183122845284,0,0,9,12,2,-1,1,-1
1528183122845284,0,-2,9,13,0,-3,-19,0
1528183122857393,-1,-1,1,-3,-4,-3,0,-3
1528183122857393,-2,1,3,-23,-3,-3,8,-2
1528183122866229,-1,2,19,4,-2,0,-8,-3
1528183122866229,-1,1,9,6,-2,-4,-5,-2
1528183122888540,1,0,-19,-9,0,4,8,2
1528183122888540,-3,-2,0,1,-4,-2,11,0
1528183122890412,-1,-2,-10,-5,-2,-8,3,-2
1528183122890412,1,-1,-25,12,9,-1,-12,-1
1528183122903473,-5,-1,73,2,-6,3,-2,-5
1528183122903473,0,-5,-67,12,1,-2,-3,5
1528183122905392,0,-2,-8,-10,-3,-1,-3,-2
1528183122905392,1,2,-1,-29,-4,3,7,1
1528183122917302,0,-2,-18,4,-3,-7,-12,-3
1528183122917302,-10,-11,-34,-23,4,8,-1,-1
1528183122926280,0,1,2,15,3,-4,-19,-1
1528183122926280,-7,-4,-5,0,-4,5,36,-5
1528183122941325,-1,-4,-9,-1,-3,-8,-9,0
1528183122941325,3,3,12,25,5,11,2,1
1528183122942232,4,3,29,-19,-9,-4,1,1
1528183122942232,-5,-7,-11,1,0,-5,-6,-1
1528183122963318,-4,-3,-2,1,-4,-10,-25,-4
1528183122963318,1,4,42,-8,-2,6,34,3
1528183122965170,-2,-1,35,9,3,6,-4,1
1528183122965170,4,5,29,2,0,5,-2,1
1528183122986271,4,3,-16,-11,-5,-1,9,0
1528183122986271,2,-2,-20,-5,1,-5,-17,0
1528183122987144,-10,-8,3,15,3,-1,7,-6
1528183122987144,6,2,-78,-18,-7,-6,-6,5
1528183122999966,0,3,54,3,3,2,-2,-2
1528183122999966,0,-2,1,-4,-6,-9,-11,-4
1528183123024902,5,6,-5,-14,-2,7,12,5
1528183123024902,-2,4,9,9,1,-3,-6,-4
1528183123025935,-1,0,-7,2,5,3,-1,2
1528183123025935,-11,-15,-13,-3,-3,-5,-4,-13
1528183123029963,7,-2,-46,0,-5,-9,-25,18
1528183123029963,4,5,11,8,7,5,33,4
1528183123045862,0,-7,4,-7,-1,-2,-2,-10
1528183123045862,-13,-5,-1,-11,-1,2,7,-16
1528183123046843,11,-1,-16,-10,-1,0,-19,3
1528183123046843,-2,3,24,34,1,6,19,18
1528183123059811,2,1,-11,-23,-3,3,9,2
1528183123059811,4,6,-18,6,0,-5,-7,1
1528183123068929,-9,9,-5,-1,0,-5,3,-15
1528183123068929,1,-16,26,-2,-4,-6,-26,-6
1528183123082906,3,-6,-37,-3,-2,-2,4,5
1528183123082906,8,2,4,1,-3,2,-3,-1
1528183123089729,-34,-10,-10,-1,3,3,9,-2
1528183123089729,-3,7,11,3,-1,-6,-16,-9
1528183123105698,-2,1,4,4,-1,-6,-7,-4
1528183123105698,7,0,6,-5,-3,7,-26,12
1528183123107681,1,-4,-5,5,-2,-11,34,-10
1528183123107681,-8,-5,-20,-12,-6,8,20,-9
1528183123128626,-7,-3,-12,-5,-3,-4,-13,0
1528183123128626,3,13,40,-3,2,-7,-1,2
1528183123129623,4,-1,18,-10,-2,9,3,0
1528183123129623,-5,-8,-78,-27,5,-2,-17,-4
1528183123142603,4,9,60,25,-7,-13,-16,-1
1528183123142603,1,-4,-33,19,3,0,20,5
1528183123149570,1,0,33,33,18,20,-3,-2
1528183123149570,3,-4,39,-21,-1,-9,-13,0
1528183123165527,-3,2,-44,-8,6,8,-5,0
1528183123165527,-5,0,30,-2,-10,-16,-13,-5
1528183123167520,2,-1,10,3,-12,-12,-14,0
1528183123167520,2,5,9,-14,-5,18,17,4
1528183123179490,-5,-6,-2,-9,4,1,-30,-1
1528183123179490,-3,-1,12,1,14,13,55,-5
1528183123194450,5,0,-27,6,2,8,19,2
1528183123194450,-8,-7,21,5,-3,-16,-33,-7
1528183123202428,-4,-1,-6,-20,-10,-7,5,-1
1528183123202428,-1,-6,-39,6,4,-3,-18,2
1528183123209410,3,-1,0,-20,-19,-19,-7,-2
1528183123209410,-4,-10,48,8,-12,13,18,1
1528183123225367,-3,-3,13,40,41,19,11,1
1528183123225367,-1,-1,-32,-14,0,0,-7,0
1528183123227361,-5,-2,21,-2,-2,-2,8,-5
1528183123227361,0,1,-6,4,-11,-19,-23,-4
1528183123248315,-1,-3,-20,-26,-16,4,12,0
1528183123248315,-3,3,59,-7,-7,-7,-54,-5
1528183123250301,-1,-5,19,3,-1,-4,64,0
1528183123250301,5,1,-37,-4,7,14,5,8
1528183123270247,-5,-1,0,13,-6,-13,-25,-2
1528183123270247,-4,2,21,3,3,17,35,5
1528183123272241,-1,0,-40,-13,-4,-9,-28,-4
1528183123272241,1,-9,8,10,8,1,-22,1
1528183123286204,5,0,-2,-8,-5,1,59,1
1528183123286204,-5,1,-14,-9,-9,0,-6,-2
1528183123287201,4,-6,11,11,6,2,-20,-2
1528183123287201,-1,2,4,10,4,-3,-3,-5
1528183123308145,-4,-2,-29,1,-2,-5,-15,-1
1528183123308145,3,-2,-31,-18,-11,-3,0,0
1528183123310140,1,1,-6,-4,-4,8,8,0
1528183123310140,1,3,4,3,6,-15,-53,-4
1528183123322108,0,-6,30,6,0,4,39,0
1528183123322108,-2,-3,-16,0,-8,2,4,-4
1528183123346044,0,-1,-2,9,5,2,-11,1
1528183123346044,-3,2,-25,-5,-2,-6,-2,-3
1528183123347057,2,4,35,2,-3,2,-3,0
1528183123347057,1,-2,-44,1,2,-4,-33,-2
1528183123349036,-6,-7,13,10,-2,-6,-4,-3
1528183123349036,-3,-2,-10,-31,-6,-5,8,-2
1528183123367985,0,1,24,-5,-1,14,14,1
1528183123367985,1,1,5,3,4,-10,-16,1
1528183123369980,-1,-4,-46,-11,0,4,14,1
1528183123369980,-1,0,0,13,1,-2,8,-3
1528183123381948,-1,-3,-14,-7,-7,-7,-9,-4
1528183123381948,-1,-1,25,3,0,-2,1,2
1528183123390924,-3,-1,-6,-1,-3,-4,-10,-2
1528183123390924,3,3,1,1,4,2,11,0
1528183123405884,-2,-6,-35,-7,-2,-7,-16,-1
1528183123405884,1,1,1,-9,0,7,15,1
1528183123407884,-2,-1,10,7,0,-3,-6,-2
1528183123407884,0,0,-28,4,1,0,3,-2
1528183123427825,-1,3,-7,4,-5,-1,0,1
1528183123427825,-3,-1,20,6,5,-4,6,-4
1528183123429820,1,0,12,-13,-1,3,2,-1
1528183123429820,-2,-1,5,1,-2,-1,-1,1
1528183123441788,-1,-3,-4,-2,-1,-3,-1,-1
1528183123441788,1,0,-17,0,-5,-4,2,1
1528183123450765,-1,3,17,-6,-3,-5,-13,-1
1528183123450765,1,1,10,9,0,5,13,0
1528183123465724,-5,-5,28,0,4,2,-5,-9
1528183123465724,1,-2,-16,-6,2,9,16,8
1528183123467719,4,1,-4,3,-1,-3,-17,0
1528183123467719,1,0,13,6,-2,0,-1,-1
1528183123488666,-6,3,-10,11,2,1,3,-1
1528183123488666,0,-5,2,-4,-2,-5,-5,-5
1528183123489661,-3,-1,-7,-17,-3,-7,-7,0
1528183123489661,1,-2,-37,-17,-7,3,6,-2
1528183123501631,4,3,0,0,1,4,2,2
1528183123501631,0,-1,11,8,0,2,6,8
1528183123510606,-1,-1,-14,1,-1,-2,-2,-2
1528183123510606,-2,-1,24,-1,1,-5,-1,1
1528183123525733,-1,0,-14,1,-3,-4,-7,-4
1528183123525733,-2,-3,-11,-1,7,0,1,-2
1528183123527560,-1,0,8,5,1,2,0,-1
1528183123527560,-3,0,15,-2,-2,-1,-2,-4
1528183123548644,-1,-6,-44,-8,-8,-4,-18,-2
1528183123548644,0,1,21,5,-1,-3,29,-3
1528183123549639,0,5,-8,0,0,2,-11,1
1528183123549639,-4,-3,3,-4,-2,-3,0,-2
1528183123561630,-1,4,-4,2,1,2,6,3
1528183123561630,1,0,30,6,-7,-6,-16,-1
1528183123571494,-1,-8,-49,-10,-1,-8,-3,-2
1528183123571494,0,4,-43,-3,2,7,1,0
1528183123585560,-6,-12,27,4,1,2,-9,2
1528183123585560,-5,-5,-27,-13,-5,5,21,-3
1528183123587398,-1,0,24,9,1,-3,-4,-6
1528183123587398,1,1,29,-2,-1,-23,-10,2
1528183123615685,-2,-6,-29,1,7,37,31,0
1528183123615685,-2,-2,34,3,-2,-6,-9,-2
1528183123617529,-2,1,10,2,-14,-14,-39,-2
1528183123617529,-3,-6,-29,-2,2,-2,0,-4
1528183123621889,3,3,9,-12,2,-10,-16,-4
1528183123621889,-2,-3,-16,4,-1,-1,3,-4
1528183123630908,-1,0,27,-6,-3,4,52,2
1528183123630908,-3,0,20,-2,-8,-2,-4,-3
1528183123646277,3,6,24,6,-1,-9,-3,3
1528183123646277,0,-2,-21,-7,0,3,-14,0
1528183123647154,-1,-1,20,3,0,-7,-1,-3
1528183123647154,-2,-2,21,4,-3,-6,-16,-4
1528183123668182,-1,-3,-10,-3,0,5,13,-1
1528183123668182,2,-2,7,1,-3,8,13,1
1528183123670019,-2,-3,-40,2,2,3,-8,6
1528183123670019,2,-1,-17,-7,2,6,4,2
1528183123682144,7,4,17,6,-2,-15,-7,-1
1528183123682144,-13,1,-4,-1,-3,-13,-24,-9
1528183123690973,-3,-6,2,-5,1,16,11,0
1528183123690973,-1,0,-29,4,2,-2,2,-3
1528183123706080,3,9,-4,-11,-3,-5,-2,-1
1528183123706080,-2,-27,-5,-11,-4,-9,-3,-1
1528183123707077,-2,4,20,6,1,8,-16,-4
1528183123707077,-5,-5,-38,-11,-1,-3,-7,-3
1528183123728020,-5,-3,-4,2,-3,0,21,-5
1528183123728020,1,10,29,3,-1,1,16,4
1528183123729533,0,-1,-28,5,1,-4,10,3
1528183123729533,1,-1,24,-1,-1,-9,-42,-2
1528183123742530,-1,-8,-17,-3,-1,7,14,-1
1528183123742530,2,2,0,0,1,-4,-17,-2
1528183123750482,-3,1,-30,-3,-1,-4,3,-4
1528183123750482,-1,4,91,8,-1,10,19,1
1528183123765596,-1,2,-29,-10,-2,-9,-15,-1
1528183123765596,1,5,2,3,-3,1,-5,-2
1528183123767434,-2,-6,-13,-3,1,-1,-23,-2
1528183123767434,0,-4,-29,4,0,1,26,-2
1528183123788535,-1,0,-2,-4,-2,-5,-17,-1
1528183123788535,1,-1,-2,-3,1,0,-10,-1
1528183123790447,-4,2,13,-6,-9,-15,3,-4
1528183123790447,4,1,24,14,4,8,8,2
1528183123802414,-1,-2,-14,-4,-2,13,48,2
1528183123802414,1,3,-29,-20,-3,-9,-44,-6
1528183123811317,2,0,19,-5,-1,2,2,0
1528183123811317,-2,-2,3,2,-4,-8,-6,0
1528183123825280,0,-1,58,10,-7,-20,-39,-6
1528183123825280,-1,3,-26,3,4,21,34,4
1528183123827274,-1,-3,-9,-1,1,-2,-7,-3
1528183123827274,-1,-1,-4,0,-1,4,17,0
1528183123848407,0,1,19,3,4,-2,-23,3
1528183123848407,-1,-1,-25,8,0,-5,13,-1
1528183123850212,-1,-1,16,1,3,4,4,0
1528183123850212,0,2,-27,-18,-6,0,0,-2
1528183123862315,-5,-1,-26,-5,-6,-5,-13,-4
1528183123862315,1,0,6,-3,1,-3,-24,6
1528183123871166,-2,3,2,2,1,1,16,-5
1528183123871166,-1,-1,-4,5,3,8,9,2
1528183123886263,-3,-6,13,-3,6,-3,-16,-3
1528183123886263,-3,-3,0,2,-6,-2,12,-4
1528183123887147,2,0,1,-2,-3,-3,-13,1
1528183123887147,-1,-4,-17,-8,-6,-5,-4,-1
1528183123908214,0,-2,-12,-5,-3,2,12,1
1528183123908214,0,1,17,6,3,-1,-4,0
1528183123910053,-1,-5,0,-7,-2,5,15,0
1528183123910053,-2,0,23,6,-1,-9,-26,-6
1528183123922162,-2,-2,-4,1,-3,0,10,0
1528183123922162,1,1,22,2,-1,-4,4,1
1528183123931016,-1,-2,-25,-2,-1,3,3,-2
1528183123931016,-1,-4,-40,7,2,3,4,-1
1528183123945327,-1,-1,2,-3,-1,-8,-36,-1
1528183123945327,-3,4,16,-9,1,3,18,-3
1528183123952311,0,3,27,-2,2,0,1,0
1528183123952311,-3,-4,2,0,-2,-4,-10,-1
1528183123968107,-1,-3,-13,3,0,2,-10,-1
1528183123968107,-4,-4,-5,3,0,-7,10,-7
1528183123970324,-1,-2,-1,-2,-5,1,2,1
1528183123970324,0,-1,-16,-11,-2,-3,-4,-1
1528183123982298,-1,1,22,0,-5,-5,5,0
1528183123982298,-1,-2,-7,-3,-4,3,-3,-1
1528183123997457,-2,-2,-6,6,7,2,-7,-1
1528183123997457,-2,2,11,-1,-1,-3,7,-1
1528183124005692,-3,-5,-15,-8,-1,6,1,-2
1528183124005692,-2,-3,-8,3,-2,-2,-5,-2
1528183124011761,1,1,12,-7,-2,-3,-17,0
1528183124011761,-1,0,-8,1,-1,-4,9,-3
1528183124028716,1,2,28,3,5,8,-2,5
1528183124028716,-2,-4,-26,-3,-6,-19,6,-4
1528183124029519,-2,-3,-7,1,1,6,12,-1
1528183124029519,0,0,-4,-5,2,13,7,0
1528183124042513,4,-4,15,11,-2,-9,-16,0
1528183124042513,-7,4,11,-3,-1,3,34,0
1528183124050658,-3,-4,11,-12,-4,-12,-22,-3
1528183124050658,-2,0,10,-3,-4,-5,-7,-3
1528183124065586,2,-3,-10,-1,-1,-1,19,-1
1528183124065586,3,-1,10,2,2,7,-15,3
1528183124072437,0,0,-24,1,-1,-3,3,-2
1528183124072437,-2,-2,10,0,-1,3,-1,3
1528183124088417,-3,-1,-18,-5,-4,-4,-4,-2
1528183124088417,0,0,-5,-6,-5,-3,-19,-4
1528183124090358,-3,0,4,7,2,5,10,-1
1528183124090358,0,-2,-9,1,3,1,-4,-2
1528183124102351,-1,0,-11,-7,-3,-6,5,-2
1528183124102351,-3,0,17,5,-3,0,-3,0
1528183124111300,-2,-4,-21,-4,-2,-6,-4,0
1528183124111300,0,0,26,7,-2,1,-7,-3
1528183124125405,-5,-3,-24,-10,-2,1,8,0
1528183124125405,0,4,2,-6,0,2,8,-4
1528183124132244,0,0,12,2,-2,-4,-15,0
1528183124132244,-1,-2,21,4,1,-3,-14,3
1528183124148359,-2,-4,-5,3,-1,4,-5,-3
1528183124148359,1,1,-1,-2,2,5,-3,3
1528183124150352,-3,0,12,7,-1,-3,11,-4
1528183124150352,-2,-4,-76,-23,-5,-6,-15,-1
1528183124162320,-3,1,30,3,1,-2,-3,0
1528183124162320,0,-7,-44,-3,-1,-5,-16,-2
1528183124171140,0,0,-4,-1,-1,-3,3,0
1528183124171140,0,-3,3,0,1,4,-2,0
1528183124185261,0,2,11,-4,-3,-4,20,-4
1528183124185261,0,-4,-18,7,3,-2,-15,-2
1528183124192241,1,1,-2,-2,-2,3,5,1
1528183124192241,-1,2,29,2,-2,-6,7,0
1528183124208401,0,0,-21,-3,-2,-1,-13,0
1528183124208401,1,1,22,-8,1,1,3,0
1528183124210234,0,-7,-12,0,0,-5,-16,2
1528183124210234,1,-1,11,4,2,9,32,1
1528183124231326,1,-2,1,-2,-2,-3,-7,-1
1528183124231326,-3,-5,-47,-3,-2,0,17,0
1528183124232325,2,2,9,4,-1,-3,-12,1
1528183124232325,-5,-5,-5,-1,-2,4,18,-4
1528183124244450,2,9,7,2,2,-5,-35,0
1528183124244450,2,-5,0,-11,-6,-6,-2,-3
1528183124253269,-8,-3,-1,-5,-1,0,7,-1
1528183124253269,-3,0,11,2,-1,-5,-10,-1
1528183124269261,-5,-7,-28,0,0,-6,-4,-1
1528183124269261,6,3,26,3,0,10,13,3
1528183124270224,2,-1,-33,-7,-2,-2,2,-4
1528183124270224,0,-2,29,5,-2,-3,-4,-1
1528183124291263,-1,-2,-4,1,-1,1,3,-2
1528183124291263,-3,-2,0,3,-1,-12,-6,0
1528183124292165,-1,-3,0,-7,-3,6,-9,1
1528183124292165,0,0,-7,-8,-1,2,13,-1
1528183124313272,2,5,-1,-3,-1,0,9,0
1528183124313272,-5,-4,6,6,-2,-6,-27,-2
1528183124314107,-1,0,31,14,3,5,28,-1
1528183124314107,0,-1,-28,-6,-1,-4,-11,-1
1528183124328108,-2,-4,1,-7,0,1,3,-1
1528183124328108,-2,-3,16,-3,-1,4,-26,4
1528183124328108,5,-1,-30,-4,-2,-4,15,-4
1528183124328108,-9,-1,5,2,-2,0,-1,-2
1528183124350366,-1,-2,-6,2,2,-1,17,-1
1528183124350366,0,-4,9,-1,0,-7,-29,0
1528183124351367,-1,-3,13,-2,-4,6,25,-2
1528183124351367,4,1,-6,-1,-1,0,-5,0
1528183124373340,-1,-1,-11,-2,-3,2,6,0
1528183124373340,-2,-8,-26,-5,-2,-5,-8,-2
1528183124374146,0,3,14,6,1,5,17,3
1528183124374146,-10,-2,-39,-2,-1,-8,-14,-1
1528183124388143,25,-3,10,-11,-4,-2,6,-8
1528183124388143,-2,0,5,2,0,2,4,1
1528183124388143,0,-1,-5,-5,-1,-1,-10,0
1528183124388143,1,9,11,3,0,-1,-42,0
1528183124410580,-10,-2,-14,4,0,0,36,-3
1528183124410580,-9,-3,-4,0,1,4,23,3
1528183124410580,13,-6,-5,-3,-2,-1,-22,-1
1528183124410580,-1,-2,9,-2,0,2,-4,-6
1528183124433049,-5,2,-1,2,-1,-4,-22,0
1528183124433049,6,4,9,-1,-2,-2,11,-4
1528183124433884,-12,-4,-3,-5,-1,-5,-6,3
1528183124433884,3,0,-2,-2,0,-3,-10,-1
1528183124448013,1,-3,5,0,-1,5,10,2
1528183124448013,-5,1,-3,0,0,4,14,0
1528183124448845,0,2,0,-1,0,-5,-76,-2
1528183124448845,2,-5,-6,-5,-4,0,59,-5
1528183124469902,-7,-1,6,-2,-1,-3,-17,-3
1528183124469902,2,-2,1,3,1,0,7,4
1528183124470786,-1,1,-3,-2,-2,3,3,-2
1528183124470786,2,-7,0,-5,-4,-6,-16,-2
1528183124484843,-5,0,1,3,1,4,14,2
1528183124484843,1,2,0,-2,-1,-6,-23,-7
1528183124492771,1,0,-12,0,2,1,5,-3
1528183124492771,-8,-4,3,0,-1,3,15,2
1528183124515724,-2,-4,0,-2,-4,-1,-4,1
1528183124515724,-2,1,-2,-9,-2,-9,-19,-2
1528183124516707,-14,0,12,2,0,0,1,-4
1528183124516707,5,-1,1,2,-1,2,20,0
1528183124530697,-2,2,-3,2,0,-1,-9,1
1528183124530697,2,1,-2,-1,-1,2,3,-3
1528183124530697,-8,-2,-4,-1,-1,-3,-1,1
1528183124530697,-1,0,4,-3,-2,-7,-16,0
1528183124544909,0,-1,-6,-1,0,2,-3,2
1528183124544909,-6,-3,4,1,-3,0,20,-3
1528183124553019,4,-2,0,-3,-2,-6,-4,1
1528183124553019,0,-3,-1,-1,-2,-1,-9,-2
1528183124568124,-1,-1,1,0,1,-1,2,-2
1528183124568124,3,-2,0,0,0,-4,-27,-4
1528183124568977,-2,0,-2,-3,-2,-7,10,1
1528183124568977,3,0,-3,-1,1,2,-22,3
1528183124589996,-6,-3,-7,-2,-2,3,35,-6
1528183124589996,-1,-7,-5,1,0,0,-10,2
1528183124590987,2,4,7,1,1,-3,-4,-2
1528183124590987,2,-3,-5,-1,-1,-5,12,-2
1528183124604435,-4,-1,4,0,-2,-3,4,1
1528183124604435,-5,1,0,1,0,-1,-41,-5
1528183124612589,3,1,-3,-2,-1,10,58,3
1528183124612589,5,-7,-8,-1,0,-3,-12,1
1528183124627570,4,3,13,-1,-2,-5,-10,-3
1528183124627570,-1,-3,-1,0,0,0,15,-1
1528183124628411,-4,0,0,-1,0,-2,-17,-3
1528183124628411,-8,1,9,1,-1,-1,0,-1
1528183124650700,3,-4,-5,-2,0,3,8,3
1528183124650700,-1,-1,-3,0,0,-3,4,-1
1528183124650700,-4,-3,-1,-3,-1,-1,-6,-3
1528183124650700,2,1,-2,1,-1,2,16,3
1528183124665691,-1,-3,1,4,-2,-4,-28,-2
1528183124665691,-1,1,-2,-2,-2,3,13,-2
1528183124665691,0,-4,1,-5,-3,-2,-27,-1
1528183124665691,1,0,-3,-7,-3,-9,3,-4
1528183124687590,1,1,5,0,2,6,5,5
1528183124687590,0,0,-4,2,1,10,30,3
1528183124688589,3,-5,2,2,-1,-5,-24,-3
1528183124688589,0,-1,-2,0,-1,-4,-4,-3
1528183124710530,1,-1,4,-3,-1,0,4,-2
1528183124710530,-4,-1,6,1,-1,-4,-4,-1
1528183124710530,-1,0,-10,-4,-1,-7,-11,0
1528183124710530,-4,-3,6,0,-1,2,1,-3
1528183124725686,-1,0,-4,0,-2,-2,-11,-2
1528183124725686,0,-2,-7,-4,-1,2,8,-2
1528183124725686,6,-2,-3,0,-2,-2,0,-1
1528183124725686,-6,0,0,-2,-1,-5,-29,0
1528183124747705,0,-5,-10,0,0,-1,15,-2
1528183124747705,-1,2,-1,1,-2,-2,-6,2
1528183124748691,-21,1,5,1,-2,-2,0,-3
1528183124748691,35,0,1,-4,1,5,25,-1
