timestamp,emg1,emg2,emg3,emg4,emg5,emg6,emg7,emg8
1529300662611083,-1,-17,-9,-5,-7,-4,-3,1
1529300662611083,-8,-21,-14,2,-7,-13,-6,-12
1529300662612080,1,8,31,13,-1,3,0,-4
1529300662612080,13,29,4,6,16,2,5,9
1529300662613077,12,4,-14,-18,1,3,-3,4
1529300662613077,-4,1,2,-2,-6,-9,-8,-7
1529300662616068,-14,-23,-9,4,-1,-2,-1,-13
1529300662616068,-12,-17,-8,-3,-10,-4,-1,-9
1529300662624046,0,8,21,17,3,2,8,8
1529300662624046,11,15,-20,-4,4,6,0,1
1529300662633023,4,-4,2,-11,-2,-2,-3,4
1529300662633023,-3,2,-10,-15,-3,-3,-6,-4
1529300662639006,-4,5,3,2,5,-2,0,-3
1529300662639006,3,-5,17,16,-3,2,2,4
1529300662652969,-2,-4,-5,-2,6,0,2,0
1529300662652969,-14,-13,0,1,5,3,3,2
1529300662661945,11,0,-14,-18,-20,1,-2,-5
1529300662661945,-1,2,-13,-17,12,8,8,8
1529300662666933,-2,3,9,0,-6,-10,-11,-1
1529300662666933,3,4,22,12,3,1,3,8
1529300662683888,-1,-1,2,9,3,-1,-7,-7
1529300662683888,1,6,-2,3,-1,2,0,-1
1529300662690868,2,1,-34,-28,-8,-9,-3,12
1529300662690868,-3,-7,-1,-3,-4,3,1,-11
1529300662730761,-2,-1,16,9,2,0,5,-2
1529300662730761,0,-5,-6,4,-1,-4,2,4
1529300662731758,-5,-9,-5,-1,0,-3,-7,-5
1529300662731758,2,-8,3,3,2,8,12,2
1529300662732756,-10,8,5,-1,-2,2,0,-3
1529300662732756,13,9,4,3,-3,1,-7,1
1529300662735747,-13,-7,10,2,-9,-10,-3,-4
1529300662735747,10,26,9,9,11,10,-1,4
1529300662742729,3,-12,-24,-20,-3,-1,3,2
1529300662742729,4,5,12,6,10,0,1,6
1529300662749711,8,3,-6,-4,-22,-9,-6,-8
1529300662749711,-16,-14,-11,-10,-5,-8,-3,-3
1529300662758687,-1,5,-4,4,4,2,-3,-2
1529300662758687,-5,-8,-11,-10,-3,-2,-7,-8
1529300662772650,7,4,6,-5,11,11,17,13
1529300662772650,-2,-2,12,2,-2,-5,1,8
1529300662781625,-3,-4,-11,-3,3,-5,-9,-7
1529300662781625,-9,-10,-15,-18,-15,-8,-3,-5
1529300662787609,-2,1,-8,-2,-9,-5,-14,-14
1529300662787609,3,3,14,9,0,1,-4,-16
1529300662802569,6,2,2,7,-1,-2,0,5
1529300662802569,2,-7,-4,-5,4,2,3,0
1529300662809551,-7,-2,-6,-3,-8,-1,4,8
1529300662809551,-1,-2,-11,-16,-10,-6,-7,-8
1529300662819525,10,6,30,18,15,7,1,3
1529300662819525,0,3,7,9,14,8,4,3
1529300662832489,-1,-3,-3,-9,-22,-4,0,2
1529300662832489,-9,-17,-40,-23,-23,-12,-8,-6
1529300662841465,-8,-6,-2,-3,-12,-6,-2,-3
1529300662841465,-2,5,4,0,7,5,5,-4
1529300662847451,7,2,-5,-6,23,7,1,7
1529300662847451,2,-1,4,0,-18,-3,-1,0
1529300662862410,0,-2,3,2,4,1,2,5
1529300662862410,-4,-3,3,6,-16,-6,-1,2
1529300662878367,-1,2,-9,-4,15,1,-1,-6
1529300662878367,1,-6,-8,-2,1,1,-4,-5
1529300662880361,4,9,3,1,8,1,2,8
1529300662880361,-14,-11,-3,-2,-1,-7,-5,-6
1529300662893328,-13,-3,3,2,0,1,3,-6
1529300662893328,23,17,7,2,10,7,10,25
1529300662899312,8,7,7,6,7,4,-7,-18
1529300662899312,2,2,1,-3,-10,-2,0,0
1529300662907305,-6,-4,1,3,4,1,-7,-9
1529300662907305,-18,-16,-15,-7,-18,-9,-4,-4
1529300662922266,-6,-4,-3,4,-6,-4,-1,1
1529300662922266,8,4,1,-16,4,3,4,1
1529300662930228,5,6,5,6,16,5,-2,-5
1529300662930228,3,-3,3,-2,4,0,2,2
1529300662939206,-10,-5,-8,-2,6,-2,0,0
1529300662939206,-9,-2,9,10,-19,-6,-2,-2
1529300662953168,4,7,-13,-7,14,4,3,7
1529300662953168,2,-2,13,5,-2,-3,-6,-14
1529300662960149,5,-6,-7,3,7,3,4,10
1529300662960149,2,7,4,4,-12,1,0,1
1529300662967131,-9,-4,2,0,-3,-6,-3,-3
1529300662967131,5,10,8,12,10,1,-2,-6
1529300662982090,2,0,0,-5,-7,3,4,7
1529300662982090,6,-5,-2,6,13,2,3,0
1529300662990070,-2,-8,7,12,-1,2,3,4
1529300662990070,-7,-1,12,19,5,2,2,-2
1529300662999045,-8,-16,-40,-37,-22,-12,-10,-15
1529300662999045,2,13,4,-6,2,0,-2,3
1529300663013046,-1,-7,2,10,-7,0,1,2
1529300663013046,2,10,3,-26,3,-4,-3,1
1529300663019988,3,5,9,14,14,2,4,4
1529300663019988,-3,-2,-2,3,-35,-2,-2,2
1529300663027012,4,-7,0,-1,13,-3,-3,-1
1529300663027012,-4,-5,1,17,15,5,4,6
1529300663041930,3,0,9,4,-1,2,0,-4
1529300663041930,-3,-4,-14,-5,25,4,2,-4
1529300663049936,-4,3,6,0,-5,-1,-7,-12
1529300663049936,-6,-2,-10,-6,-7,-2,-3,2
1529300663058886,5,3,-2,-6,-3,-2,-4,-3
1529300663058886,0,-2,4,5,0,-2,1,0
1529300663072888,3,4,-1,-1,-6,-1,1,1
1529300663072888,0,1,3,2,7,1,7,5
1529300663079867,-2,-2,-3,-3,-14,-1,0,3
1529300663079867,-7,-1,-1,7,14,-1,-11,-17
1529300663086811,4,7,0,-1,-3,1,4,4
1529300663086811,0,-5,-17,-26,-17,-3,-3,-4
1529300663101774,-1,0,9,10,18,3,4,3
1529300663101774,-1,-1,-5,-5,-14,-3,2,4
1529300663109751,2,5,8,9,2,1,-2,1
1529300663109751,-2,0,4,9,-4,4,-2,-3
1529300663118726,0,-1,-11,-14,6,-4,-4,-2
1529300663118726,0,-9,5,3,7,2,-1,1
1529300663132727,1,-1,-1,6,7,2,6,6
1529300663132727,-1,6,3,-9,-10,-5,-5,-4
1529300663139721,-6,-9,-31,-35,-14,-5,0,-3
1529300663139721,-13,-2,3,-2,-18,-5,-2,-5
1529300663155653,8,1,0,-2,-4,0,-2,5
1529300663155653,5,1,14,18,12,6,5,6
1529300663162607,8,9,15,14,-2,4,15,5
1529300663162607,0,0,-6,-2,5,-1,-21,-11
1529300663169589,0,-1,-5,-5,-3,0,7,18
1529300663169589,-4,-2,-7,-2,7,-1,5,6
1529300663178564,-9,-6,4,2,-10,-6,-18,-27
1529300663178564,3,0,-4,-3,9,1,6,8
1529300663192554,-14,0,0,-4,-6,0,1,-9
1529300663192554,-3,-5,-6,-1,4,-2,-15,-15
1529300663199553,0,2,4,5,-4,-1,1,8
1529300663199553,16,5,4,2,3,1,10,17
1529300663215468,-5,-4,1,-5,-4,-3,-6,-9
1529300663215468,6,4,7,5,6,2,11,13
1529300663222486,-8,-3,2,4,-1,1,0,-4
1529300663222486,-1,-1,-7,-4,0,-3,-3,-4
1529300663229442,1,-1,-4,-5,-3,1,4,-1
1529300663229442,-6,-4,1,2,4,-2,-2,-4
1529300663238405,4,-2,-1,0,-1,2,-3,2
1529300663238405,10,6,9,7,2,6,6,13
1529300663253364,6,-1,-5,-7,6,-4,-1,1
1529300663253364,-6,-5,-6,0,-17,-2,0,-9
1529300663259348,-7,-2,0,1,-2,-7,-12,-11
1529300663259348,-12,-2,-7,-6,-7,-3,-1,-7
1529300663275346,13,7,7,2,-3,3,-1,3
1529300663275346,-2,0,-3,1,13,1,1,3
1529300663282313,-1,2,3,2,1,2,7,8
1529300663282313,-5,-3,0,3,4,1,-2,3
1529300663289270,2,2,-1,3,3,-2,-7,-7
1529300663289270,0,-1,13,5,-3,1,-1,4
1529300663299241,-6,-9,-9,13,10,1,0,0
1529300663299241,-2,3,-1,-19,6,-7,-1,-4
1529300663313205,1,3,-1,-20,-1,-3,-1,0
1529300663313205,3,2,-2,5,10,1,-1,-1
1529300663320191,2,-2,5,-7,-1,2,1,5
1529300663320191,-5,-2,1,15,-3,-1,1,-8
1529300663335146,-4,-5,0,9,-7,-4,-2,-4
1529300663335146,-1,0,-22,-29,-8,-5,-5,-6
1529300663342127,0,-2,3,-1,-17,-1,1,3
1529300663342127,1,-5,-5,-4,-6,5,3,2
1529300663350158,5,3,8,2,-6,2,2,-3
1529300663350158,1,-3,1,5,-14,-7,-5,-5
1529300663359098,-5,-1,-2,2,26,4,0,3
1529300663359098,2,2,-4,-4,-8,-2,0,-3
1529300663373081,-9,-8,-7,8,7,-2,-2,-3
1529300663373081,-1,-4,2,6,11,5,4,4
1529300663380062,2,-2,-17,-22,-21,-2,2,2
1529300663380062,3,3,13,1,-8,-5,-9,-17
1529300663394986,2,1,7,12,9,2,0,-2
1529300663394986,-2,0,8,24,1,0,0,7
1529300663401968,-4,1,-25,-29,-16,-4,3,0
1529300663401968,-4,-4,-7,-9,8,-2,-3,1
1529300663409947,6,-3,14,4,-7,1,-2,3
1529300663409947,5,7,0,0,12,3,2,0
1529300663433913,1,4,20,19,-4,-2,-4,-7
1529300663433913,-1,-5,-14,0,14,1,4,6
1529300663434898,-10,-9,-12,-11,-18,-6,-3,-9
1529300663434898,-1,-2,11,4,-1,2,2,5
1529300663439891,5,5,7,7,3,2,0,5
1529300663439891,-15,-7,-8,-4,1,-1,-1,-3
1529300663455824,18,12,1,-1,-4,0,1,5
1529300663455824,-2,-8,-13,-14,-7,-5,-6,-15
1529300663461807,6,9,4,4,4,-2,-3,-4
1529300663461807,0,-4,10,7,-3,-2,2,7
1529300663469786,-9,-5,-9,-11,-7,-2,-2,0
1529300663469786,-1,1,-6,-2,-4,-3,-3,-2
1529300663485114,-1,-3,4,8,4,-1,2,2
1529300663485114,1,4,-3,-5,5,2,1,2
1529300663492929,-13,-2,-4,-8,-13,-6,-9,-14
1529300663492929,3,-4,-5,-4,13,2,-1,0
1529300663500077,-4,-9,7,5,-16,-4,0,0
1529300663500077,2,3,3,12,16,7,6,7
1529300663515871,3,-6,-14,-11,-25,-8,-1,-1
1529300663515871,-13,-8,0,-3,1,-1,-8,-17
1529300663521852,16,23,28,15,5,3,2,10
1529300663521852,4,2,-13,-8,-2,0,-1,1
1529300663529840,-4,0,4,-1,8,1,-2,3
1529300663529840,-5,-2,-15,-11,-5,-3,1,0
1529300663544920,-12,-14,-23,-10,-1,-3,-4,-6
1529300663544920,8,9,19,2,-10,-2,-2,-3
1529300663552818,4,5,13,10,14,5,3,3
1529300663552818,12,10,18,8,-2,0,1,4
1529300663560092,-7,-8,-3,-5,9,0,-1,-7
1529300663560092,-9,-9,-22,-14,-17,-7,-4,-3
1529300663576178,-4,-8,-6,3,6,0,2,-2
1529300663576178,-5,0,2,-2,-8,-2,-3,-7
1529300663582521,4,4,1,1,-7,1,-1,1
1529300663582521,2,-2,5,3,8,-2,-3,-3
1529300663598516,0,1,3,0,4,3,6,14
1529300663598516,1,0,1,1,6,-1,-2,-9
1529300663604503,-1,-1,10,12,19,1,-1,0
1529300663604503,1,-2,-12,-8,-33,-6,-3,-2
1529300663613484,-2,2,3,1,6,3,2,5
1529300663613484,3,5,0,6,14,5,4,10
1529300663619501,1,-3,-10,-6,-14,-8,-6,-7
1529300663619501,0,6,-3,-23,7,0,-1,-2
1529300663642785,-3,-4,-14,-5,2,1,-1,-2
1529300663642785,-3,-2,1,-5,-6,-8,-6,5
1529300663643781,12,4,14,14,10,5,2,3
1529300663643781,1,-2,6,16,5,1,-2,-3
1529300663665881,-2,-4,-6,-3,4,2,11,5
1529300663665881,-8,-5,-7,-5,-21,-8,-16,-6
1529300663666794,-4,1,-6,-5,7,0,0,-1
1529300663666794,-3,-1,0,2,4,-1,-3,-3
1529300663673701,2,-1,-1,-1,1,-1,0,-5
1529300663673701,-8,-4,-1,1,-2,0,8,11
1529300663679685,2,2,-2,-6,-10,-1,-3,-5
1529300663679685,-2,-3,2,0,1,-2,-9,-14
1529300663696640,-1,-1,4,6,-5,-2,-3,-1
1529300663696640,5,3,-3,-2,7,1,6,5
1529300663702647,-1,-2,-3,-7,-6,1,1,4
1529300663702647,1,0,6,6,4,0,-1,-4
1529300663717724,-1,1,0,3,1,0,-4,-1
1529300663717724,3,2,0,-2,-9,-2,0,0
1529300663732544,-8,-5,-6,-7,8,-1,-1,-4
1529300663732544,1,-2,7,7,4,2,6,5
1529300663740706,4,7,1,-2,-2,-3,-3,6
1529300663740706,4,1,-3,-2,1,5,0,-7
1529300663741758,-5,-6,-3,-1,-2,-2,-6,-5
1529300663741758,-2,-6,-4,3,4,1,1,-1
1529300663764199,1,-1,1,0,-7,-2,-2,-2
1529300663764199,1,3,3,2,3,1,3,3
1529300663765199,-4,-5,-4,-1,-3,0,-2,1
1529300663765199,-2,4,4,2,1,0,3,6
1529300663777168,3,0,-2,2,-1,-1,0,-3
1529300663777168,10,3,-1,0,3,4,6,8
1529300663785285,-9,-3,-3,-2,-10,-2,10,-3
1529300663785285,-1,1,2,0,-3,-4,-16,-4
1529300663800435,4,1,2,1,9,1,2,1
1529300663800435,-4,-2,-2,-4,-5,-1,-1,-6
1529300663801304,-4,1,3,5,3,-2,4,0
1529300663801304,7,1,10,9,-3,3,10,13
1529300663816264,0,5,2,-9,1,0,-4,-4
1529300663816264,-5,-1,6,3,1,-3,-6,-14
1529300663822825,1,-4,-8,-3,-1,-2,-2,2
1529300663822825,-5,-6,-7,-1,7,0,-1,-2
1529300663837630,-9,-5,-3,3,-2,0,3,6
1529300663837630,3,-1,-1,-1,6,0,1,-4
1529300663844776,7,5,11,6,1,-1,-6,1
1529300663844776,-10,-1,-2,0,1,2,0,-3
1529300663860974,8,-6,-1,3,4,-1,1,-2
1529300663860974,-4,-2,-6,-14,-7,-2,0,5
1529300663860974,12,7,5,1,-2,-2,-6,-8
1529300663860974,0,-1,-2,-5,-2,0,1,2
1529300663875974,-13,-5,-8,-5,-8,-7,-7,-10
1529300663875974,-4,-2,-2,4,1,-2,0,-1
1529300663882871,4,1,0,-2,-5,3,0,9
1529300663882871,2,-4,-5,-2,-5,-5,-3,-7
1529300663897839,-6,0,1,2,9,0,-6,-10
1529300663897839,-1,-3,2,5,-4,-2,0,7
1529300663905154,-9,-4,-9,-4,6,1,1,-5
1529300663905154,2,4,9,6,-4,0,-2,-3
1529300663920962,11,6,-4,-16,-5,1,2,8
1529300663920962,-8,-3,-1,-1,2,-2,-5,-12
1529300663920962,-3,-5,-8,-7,-18,-6,3,5
1529300663920962,-2,-2,-3,2,0,-2,-2,-6
1529300663935803,-6,-8,5,10,11,6,1,4
1529300663935803,17,10,10,9,-2,-1,3,8
1529300663941776,-9,3,3,-3,-1,0,0,-4
1529300663941776,9,-5,-18,-2,-4,-4,-2,-7
1529300663957757,0,2,7,-7,5,0,3,4
1529300663957757,-9,-6,1,6,-14,0,0,-8
1529300663964713,2,-1,-20,-24,-1,1,0,1
1529300663964713,3,6,9,-1,-7,-3,3,4
1529300663987651,-1,-3,-3,6,3,0,-3,-4
1529300663987651,-6,-6,-1,5,2,0,1,3
1529300663988649,-5,-2,0,4,2,-3,-4,-2
1529300663988649,0,0,-2,-5,-1,1,1,-1
1529300663996627,2,-8,6,9,-4,1,-1,1
1529300663996627,0,3,-10,-11,2,-3,-5,-4
1529300664002611,0,-2,6,-1,1,1,1,3
1529300664002611,-4,1,-6,-8,-9,-1,0,4
1529300664017571,-6,1,0,3,3,-3,0,-8
1529300664017571,-3,-1,3,0,-3,-5,-4,-1
1529300664024553,10,3,-1,6,8,1,-3,2
1529300664024553,-1,0,8,1,5,0,-4,-3
1529300664040510,1,1,4,8,-12,-3,-1,0
1529300664040510,-5,-6,-19,-9,-1,0,1,2
1529300664041508,-7,-9,-14,-22,-8,-4,-3,-8
1529300664041508,10,7,14,11,0,4,6,14
1529300664056467,-3,-2,1,2,2,-4,-3,-3
1529300664056467,1,2,-12,-9,4,-2,-4,-7
1529300664062452,0,-2,9,15,2,2,-2,-4
1529300664062452,-8,-6,-10,-2,5,-2,-1,-3
1529300664077412,-2,2,3,-1,6,1,2,4
1529300664077412,2,3,3,3,-11,-1,0,2
1529300664084393,1,3,9,3,0,-2,-3,-6
1529300664084393,1,13,0,-9,1,0,1,4
1529300664100350,2,0,-3,1,-9,-2,-4,-3
1529300664100350,-3,-8,2,-2,6,1,1,0
1529300664101348,7,3,6,6,-4,-1,1,5
1529300664101348,-2,-5,-5,-1,5,1,1,0
1529300664116317,-4,2,0,-2,-3,-3,-3,-6
1529300664116317,3,7,-1,-9,-7,0,2,1
1529300664122312,0,-5,-4,-2,5,1,0,2
1529300664122312,-8,-9,1,5,-9,-4,0,-2
1529300664137252,10,6,-4,-5,11,4,-1,1
1529300664137252,-9,-2,7,-3,-22,-3,-5,-9
1529300664144270,-1,4,4,11,12,1,-1,0
1529300664144270,-5,-3,-6,-7,-1,-2,-5,-6
1529300664160243,-2,-5,-11,-9,-26,-3,0,2
1529300664160243,2,-4,5,5,13,-1,3,5
1529300664161189,-3,1,1,0,-6,-2,-4,-12
1529300664161189,-5,-4,-3,-1,1,1,0,-1
1529300664176148,0,2,-1,-1,1,0,1,0
1529300664176148,9,8,8,5,5,0,-1,5
1529300664182187,-4,-5,0,2,-5,-2,-1,2
1529300664182187,2,-3,-2,0,7,1,0,-1
1529300664197147,-9,-8,-7,-9,2,-1,-1,-3
1529300664197147,0,2,-1,-4,-14,-3,-2,0
1529300664205128,0,-3,-3,0,0,-1,-1,-3
1529300664205128,5,7,15,3,0,0,1,2
1529300664220031,-3,-2,-8,2,-1,-5,-7,-9
1529300664220031,-3,-4,-15,-10,6,2,3,3
1529300664221032,4,3,3,6,5,-1,0,1
1529300664221032,-3,-12,-11,-5,-8,-4,-4,-3
1529300664235988,-1,-6,-12,-21,-4,-2,-1,2
1529300664235988,13,13,21,12,13,5,1,4
1529300664242028,-2,-3,-1,4,-11,-1,3,3
1529300664242028,-7,-3,-1,3,4,-4,0,-5
1529300664256987,-4,5,6,4,-13,-2,-1,-4
1529300664256987,3,-12,-4,3,25,2,-2,2
1529300664272889,4,10,7,-1,-1,2,1,2
1529300664272889,-1,-3,-4,-1,-2,2,-2,0
1529300664280951,-2,2,-2,-6,-5,0,-1,-1
1529300664280951,-6,-3,-7,-4,-8,-4,-1,-3
1529300664280951,-3,-4,-9,-9,-3,-3,0,-1
1529300664280951,0,0,-2,-2,-1,0,-1,-1
1529300664296043,2,-2,7,7,8,3,1,1
1529300664296043,2,3,10,4,-1,0,-2,1
1529300664310984,1,1,3,-2,2,0,0,1
1529300664310984,2,3,0,1,1,-1,0,0
1529300664317120,0,-3,-5,5,1,0,1,-1
1529300664317120,-5,0,-6,-4,0,1,1,-2
1529300664324929,-4,-4,-12,-12,-6,-3,-2,-2
1529300664324929,1,-2,1,-7,-2,-1,-1,-1
1529300664340462,2,2,7,8,4,1,0,1
1529300664340462,-2,-2,0,6,2,0,2,-1
1529300664341304,-2,-1,2,2,-4,-2,-1,-1
1529300664341304,2,2,1,0,2,3,16,2
1529300664356742,-1,-3,0,1,2,-3,-21,-2
1529300664356742,0,0,-2,-3,-4,-2,7,0
1529300664362738,0,0,1,-4,1,2,7,-1
1529300664362738,0,0,-3,0,-2,-1,-5,1
1529300664377703,1,1,-1,-5,-3,-1,3,3
1529300664377703,-3,-1,-1,1,-3,0,-3,-5
1529300664384679,-1,0,-4,-3,0,0,1,0
1529300664384679,1,2,0,1,1,3,13,6
1529300664399639,1,-1,-2,-2,-1,-8,3,4
1529300664399639,-6,-3,-3,-2,0,-6,-29,-22
1529300664407617,-2,0,2,4,3,0,-6,0
1529300664407617,0,0,1,1,3,8,35,6
1529300664416436,0,1,-2,-1,3,-5,-48,-7
1529300664416436,0,-2,-2,-3,-2,4,48,20
1529300664422578,1,2,1,5,4,1,-1,-11
1529300664422578,-2,-4,0,-7,5,-7,-35,-2
1529300664437538,-4,-5,-3,-4,-6,-1,29,-1
1529300664437538,-2,-2,-2,-12,0,2,-2,-2
1529300664444860,-1,0,1,3,-1,1,19,5
1529300664444860,4,5,4,10,1,-5,-21,0
1529300664459820,5,5,4,10,7,5,8,2
1529300664459820,1,-3,-4,-10,-5,-3,-5,-3
1529300664467848,-5,-7,-6,-12,-10,-3,3,1
1529300664467848,-2,-3,-4,-2,2,-2,-8,-4
1529300664484971,0,1,0,1,4,1,1,-2
1529300664484971,1,0,0,7,6,1,2,6
1529300664484971,-5,-2,-1,-1,3,-2,8,-3
1529300664484971,11,3,3,-1,-1,-9,-48,-7
1529300664497801,-7,2,3,1,3,7,42,-4
1529300664497801,-9,-4,-3,0,-2,-5,-13,-13
1529300664504909,-1,-2,-1,-2,-4,-4,-10,-2
1529300664504909,3,2,-3,-3,-2,2,-19,-2
1529300664519712,-14,-8,-6,-7,-4,3,43,5
1529300664519712,3,-2,1,0,-7,-12,-44,-12
1529300664526703,2,4,4,1,-2,-5,-11,2
1529300664526703,-1,-1,-3,-2,-4,0,12,2
1529300664536667,7,2,3,-1,-3,-1,-20,1
1529300664536667,-2,1,-1,0,-2,3,16,5
1529300664542680,0,-4,-1,3,-1,-1,-5,1
1529300664542680,-3,0,2,1,-2,2,7,-3
1529300664557748,0,0,0,5,-2,-1,-5,1
1529300664557748,-4,-4,-3,-12,-3,-2,3,0
1529300664564958,2,1,-2,5,-3,-1,-7,1
1529300664564958,-8,-3,-2,-4,-4,-1,16,-2
1529300664580258,-2,-1,-1,-1,-3,-2,-12,-3
1529300664580258,2,1,-1,2,-2,0,1,3
1529300664587279,-1,-1,-1,1,0,2,3,2
1529300664587279,-1,-3,3,-2,-4,-4,-4,-4
1529300664602493,3,3,-1,0,-6,-6,-7,0
1529300664602493,0,-1,-2,2,-3,1,13,4
1529300664603457,-8,-8,-7,0,0,-7,-4,1
1529300664603457,0,5,4,-5,-3,5,16,2
1529300664617773,9,5,7,-4,5,1,-28,-1
1529300664617773,6,2,3,5,3,5,6,7
1529300664624795,-1,-4,-2,-3,0,5,26,0
1529300664624795,-3,0,0,14,2,-5,-15,-6
1529300664639879,-4,-1,-2,-11,1,2,4,-1
1529300664639879,-3,-2,-5,-8,-4,-2,4,2
1529300664647018,0,0,0,3,1,-1,-9,0
1529300664647018,-4,-4,-6,-2,-1,2,16,3
1529300664663427,-1,-3,-5,3,-2,-1,-7,-5
1529300664663427,-3,-1,-2,6,1,0,0,-1
1529300664663427,3,3,0,-7,-2,-1,1,0
1529300664663427,-2,0,2,-4,-3,-2,4,-3
1529300664677441,1,4,6,0,1,-1,-2,-1
1529300664677441,6,2,4,9,7,5,-1,5
1529300664685303,-1,2,4,12,3,1,0,3
1529300664685303,-6,-9,-12,-32,-3,4,13,0
1529300664699800,-11,-10,-13,-19,-20,-10,16,-2
1529300664699800,6,7,4,-3,1,-3,-27,-6
1529300664707772,9,9,14,10,10,10,7,10
