timestamp,emg1,emg2,emg3,emg4,emg5,emg6,emg7,emg8
1528186419891429,0,-1,0,0,-1,0,-1,-1
1528186419891429,-1,-1,-1,0,-1,-1,-2,0
1528186419892413,-1,0,-1,0,0,-1,-2,-2
1528186419892413,0,0,1,0,0,-1,1,-1
1528186419893409,0,-1,-1,-2,-1,-1,0,1
1528186419893409,0,0,1,-1,0,0,0,-1
1528186419894406,-2,-1,-1,-1,-2,-1,1,0
1528186419894406,-2,-1,-1,0,0,-2,0,1
1528186419904380,-2,0,-2,0,0,-1,0,-1
1528186419904380,-1,0,1,-1,0,-2,1,0
1528186419908368,-1,0,-1,0,-2,0,-2,-1
1528186419908368,-1,0,-1,-3,-1,0,0,0
1528186419923328,-1,0,-1,0,-1,-1,0,-2
1528186419923328,0,0,-2,0,-1,-1,-1,-1
1528186419933303,1,-1,-1,-1,0,0,0,0
1528186419933303,-1,1,-2,0,-2,-1,-1,-1
1528186419939287,-3,1,-1,-1,-2,1,-1,0
1528186419939287,-1,-1,0,-2,-1,-1,-2,-3
1528186419963223,1,0,0,-2,0,0,-1,0
1528186419963223,1,-3,0,-1,-1,-2,0,-1
1528186419966216,0,-2,-2,1,-2,-1,0,0
1528186419966216,0,-1,0,1,0,-1,-1,1
1528186419983169,-2,0,-2,-1,-1,-1,1,-1
1528186419983169,2,-2,0,1,0,-1,-1,-1
1528186420023062,2,0,-2,0,0,-1,0,-2
1528186420023062,0,-3,-1,-2,-2,-1,-1,0
1528186420024064,0,-3,-2,0,-1,0,-1,-1
1528186420024064,0,-1,-1,-1,-1,0,-1,0
1528186420025059,-1,0,-1,-1,-1,-1,0,-1
1528186420025059,-1,0,-2,-1,0,-2,0,-2
1528186420028049,1,-1,0,-3,0,-1,0,-2
1528186420028049,-1,-2,-1,1,1,0,-2,1
1528186420029048,0,-1,0,0,-2,0,-2,-1
1528186420029048,0,-2,0,-1,-1,0,-2,0
1528186420044141,-1,0,-1,-1,-2,0,-1,0
1528186420044141,-1,-1,0,-1,0,-1,0,-2
1528186420050010,1,0,0,1,-2,-1,0,-1
1528186420050010,-1,-1,1,-1,-2,-1,-1,0
1528186420058966,-1,0,-2,0,-1,-1,0,0
1528186420058966,-1,0,-1,-1,-1,-1,-1,0
1528186420072930,-1,0,-1,-2,1,1,0,-1
1528186420072930,-2,0,-2,0,-1,-2,0,0
1528186420088887,-2,-1,0,0,1,-2,0,-2
1528186420088887,0,-2,0,-1,-1,-1,-1,-2
1528186420088887,-1,-1,0,0,1,-3,0,0
1528186420088887,0,1,-1,-2,-1,0,0,-1
1528186420110878,-1,0,-1,0,1,1,0,2
1528186420110878,-2,0,-1,0,-1,-2,-1,-2
1528186420111825,-1,-1,0,0,-1,0,-1,-1
1528186420111825,1,0,-2,0,0,0,-1,0
1528186420124840,0,-1,0,-1,-1,-1,0,0
1528186420124840,-1,0,-1,-1,1,-1,0,0
1528186420132821,-1,-1,-1,-1,0,0,0,0
1528186420132821,-1,-1,-1,0,0,0,-1,-1
1528186420148776,-1,-1,-1,-1,0,-1,0,-1
1528186420148776,1,-1,1,0,1,0,0,-1
1528186420148776,1,-1,-2,-1,-2,1,0,0
1528186420148776,-1,0,1,1,-1,-1,0,1
1528186420170707,-1,1,-1,2,-1,1,-1,0
1528186420170707,-1,0,-2,-2,0,0,0,-1
1528186420171670,-1,-1,-1,-1,-1,0,-1,-1
1528186420171670,-2,-1,0,-1,-2,-1,-1,-1
1528186420185668,0,-1,-1,-1,-2,-2,-1,-1
1528186420185668,-2,-1,-1,-1,0,0,1,0
1528186420192635,0,-2,-2,-1,0,0,-1,1
1528186420192635,0,0,-1,-1,-1,-2,0,0
1528186420208568,1,0,0,-1,0,0,0,0
1528186420208568,0,-1,-2,1,-2,-2,-1,1
1528186420209565,-1,-1,-1,-1,0,-1,-2,-1
1528186420209565,-2,-1,-1,1,1,0,-1,0
1528186420230560,-1,-1,0,0,-1,0,1,-2
1528186420230560,0,-1,-1,-2,-1,-2,0,-2
1528186420231505,0,0,1,-2,-1,-1,-1,-2
1528186420231505,0,-1,-1,-2,0,0,0,-2
1528186420253473,-1,1,-1,-2,2,-1,-3,1
1528186420253473,-1,1,1,-1,-2,-1,-1,0
1528186420260429,-2,0,-1,-1,-1,-2,0,-2
1528186420260429,0,-1,-2,-2,1,0,0,-1
1528186420268441,-2,-1,0,0,-1,-2,-1,0
1528186420268441,0,0,-2,-2,-1,1,-1,-1
1528186420269437,-1,-2,-1,0,1,-2,1,-1
1528186420269437,-1,0,0,0,0,2,-2,-2
1528186420291346,1,0,0,-1,-2,-1,-1,-1
1528186420291346,0,0,0,-1,-2,0,0,-1
1528186420291346,-2,-1,0,0,-1,0,0,-1
1528186420291346,-1,-1,-1,0,-1,-1,-1,1
1528186420313338,-1,-1,-1,0,0,-1,1,0
1528186420313338,-1,-2,0,0,0,-1,-2,0
1528186420314284,0,-1,0,-2,-3,-1,-1,-1
1528186420314284,0,-3,1,1,-1,0,-1,0
1528186420336227,-1,-2,-1,-1,0,-1,0,0
1528186420336227,1,1,-1,0,1,-1,0,-1
1528186420337222,1,0,-1,0,1,0,0,-2
1528186420337222,-1,-1,1,-1,-1,-2,0,0
1528186420351186,-1,-1,1,0,-2,1,-1,-1
1528186420351186,-1,-2,0,1,0,1,0,0
1528186420352191,1,0,-2,0,0,-2,-1,1
1528186420352191,-1,1,-1,-1,0,-1,0,0
1528186420373131,-1,0,-1,0,-1,-1,-3,0
1528186420373131,-3,-1,-1,-2,-1,-1,-1,-2
1528186420374132,0,1,1,1,-3,-1,-2,0
1528186420374132,0,-1,-3,-2,0,0,-2,-1
1528186420390083,0,-1,-2,-1,1,1,0,0
1528186420390083,0,-1,-1,-1,1,-2,0,1
1528186420391080,-2,0,-1,0,1,-1,-1,-1
1528186420391080,1,-2,-2,-1,0,-1,-1,1
1528186420411078,-1,0,0,-1,0,-2,-1,-1
1528186420411078,-1,-1,0,-1,-1,-2,0,0
1528186420412075,0,-1,-1,-2,-1,-1,0,-2
1528186420412075,-2,0,-1,0,1,-2,-1,-1
1528186420432968,0,-1,-1,-2,0,-1,-2,-2
1528186420432968,0,-1,-1,0,-2,-1,-1,0
1528186420433966,-1,0,-1,-2,0,0,-2,0
1528186420433966,0,0,1,0,-1,0,1,0
1528186420447927,0,-1,0,0,1,-1,-2,0
1528186420447927,-1,-1,-1,0,-1,0,-2,-1
1528186420448924,-1,-1,0,-1,0,0,0,1
1528186420448924,0,-1,-2,0,-1,0,-1,-1
1528186420470866,-1,-1,-1,0,-1,0,0,0
1528186420470866,0,0,-1,1,-1,0,0,0
1528186420471863,-2,-1,0,-1,-1,-1,-1,-1
1528186420471863,0,0,-1,-1,-1,-2,-1,-2
1528186420493806,-1,-2,-1,0,-1,0,0,0
1528186420493806,-1,0,-2,0,-2,0,-1,-1
1528186420493806,-1,-2,0,0,-2,-1,-2,-1
1528186420493806,-1,-1,-1,-1,-1,-2,-1,-2
1528186420508764,2,-2,1,-2,0,0,-1,-1
1528186420508764,-1,0,1,0,-1,-2,-1,-1
1528186420508764,1,0,-1,0,-1,0,-2,-1
1528186420508764,0,0,-2,-2,0,0,-2,1
1528186420530708,-2,-1,0,-2,0,-1,0,-1
1528186420530708,-2,-1,-2,-1,0,0,0,-2
1528186420531703,0,-2,0,-1,2,-1,0,1
1528186420531703,-2,-1,0,-1,2,0,-1,1
1528186420570629,-2,0,-1,1,-1,-1,1,-1
1528186420570629,-1,-2,-2,0,-1,-1,0,0
1528186420571641,-1,1,-1,-1,1,0,0,-1
1528186420571641,0,0,1,1,-2,0,-1,-1
1528186420572593,1,-1,0,0,-1,1,-2,1
1528186420572593,0,-1,0,-1,-1,0,-1,-1
1528186420575615,-1,0,-1,-1,-1,-1,-1,-1
1528186420575615,-1,-1,-1,-1,-1,0,-1,-1
1528186420590561,-1,1,-3,0,-2,-2,-2,-1
1528186420590561,1,-1,-1,0,0,-2,-1,0
1528186420591544,-1,-1,0,-1,0,0,-2,0
1528186420591544,0,-1,-1,0,0,-1,0,-1
1528186420613819,-2,-1,-1,0,-2,0,0,0
1528186420613819,-2,-1,0,-2,0,-1,-1,0
1528186420613819,-1,1,-1,0,-1,-1,-1,0
1528186420613819,-1,0,-2,1,-1,-1,-1,-2
1528186420628734,-1,0,-1,0,-1,-1,-1,-2
1528186420628734,0,1,0,-1,-2,-1,-2,0
1528186420629732,-1,-2,-2,-2,-1,0,-1,0
1528186420629732,1,-2,-1,-1,-1,0,-1,0
1528186420650708,-1,-1,-1,-2,0,0,0,0
1528186420650708,0,0,-1,-2,1,0,0,-2
1528186420651672,0,-1,0,0,-2,-3,0,-1
1528186420651672,-1,-1,1,-1,1,0,0,0
1528186420673614,1,1,-2,-1,0,-1,-1,1
1528186420673614,0,1,-1,0,0,0,0,-1
1528186420674637,-1,-1,-1,-1,-1,-1,-1,1
1528186420674637,-2,-2,0,-1,-1,-1,-2,0
1528186420689571,-1,-1,-1,0,0,0,1,-1
1528186420689571,-1,0,0,1,-2,0,-2,0
1528186420690587,0,0,-2,0,-1,-1,0,0
1528186420690587,0,0,-2,-1,-1,-2,0,-1
1528186420710569,-2,-1,0,-1,-1,0,0,-1
1528186420710569,-1,-1,-2,1,-1,0,-1,1
1528186420711511,-2,0,-2,-1,-1,-1,-1,-1
1528186420711511,0,-1,-1,-1,-1,-2,-1,1
1528186420741433,0,0,-1,-2,-2,0,-3,-1
1528186420741433,-1,-2,0,0,-1,-2,-1,0
1528186420742430,0,0,1,-1,0,0,1,-1
1528186420742430,-2,0,-1,0,0,0,-2,0
1528186420747416,2,-1,0,0,0,-2,0,0
1528186420747416,0,-1,-1,-2,-1,0,-1,-1
1528186420755395,-1,-1,-1,1,1,-2,0,0
1528186420755395,1,-1,0,-1,0,0,1,-3
1528186420771352,-3,0,0,-1,-2,0,0,-1
1528186420771352,-1,0,0,0,-2,-1,0,-1
1528186420771352,0,-1,-1,0,-1,1,-2,0
1528186420771352,-1,-1,0,-1,-2,-1,-1,-3
1528186420793347,1,0,-1,-1,0,-1,0,1
1528186420793347,1,0,-1,-2,-1,-1,-1,1
1528186420794303,-1,-1,-1,0,-2,-2,0,0
1528186420794303,-2,-2,-1,1,-2,0,-2,0
1528186420807283,0,0,0,0,1,-1,-1,-1
1528186420807283,-1,-1,-1,0,0,1,0,0
1528186420816286,1,-2,0,-2,-1,0,-2,-1
1528186420816286,0,0,0,-1,-2,-1,-2,0
1528186420831192,-1,-2,0,0,0,-1,0,-1
1528186420831192,1,0,0,1,0,-1,1,0
1528186420838227,-2,0,-1,2,-1,-3,0,-1
1528186420838227,1,-1,1,1,0,-1,1,1
1528186420853189,0,-1,-1,0,-1,-2,-1,1
1528186420853189,-1,-2,-2,0,-1,-1,0,-2
1528186420854132,1,-1,-1,-1,0,0,-1,1
1528186420854132,1,0,0,-3,-7,-2,-1,-2
1528186420868148,0,-1,0,1,0,-1,0,-1
1528186420868148,-2,1,-1,-3,-2,1,-3,-1
1528186420876126,0,0,-1,0,-2,-1,-1,-1
1528186420876126,0,-1,0,0,0,0,0,0
1528186420891031,-2,-2,-2,-1,0,1,0,0
1528186420891031,0,-1,1,-1,1,0,0,-2
1528186420892028,0,0,-2,-2,-1,0,0,-1
1528186420892028,-1,0,-1,1,2,0,0,-2
1528186420912972,-1,0,-2,-1,-1,1,-2,0
1528186420912972,0,-1,1,0,1,-1,0,0
1528186420913970,1,-1,1,-1,0,1,0,-2
1528186420913970,-1,-2,0,0,-1,-1,-2,-1
1528186420927934,0,-1,1,-1,-2,-1,1,-1
1528186420927934,-1,-2,-1,0,-1,-3,0,1
1528186420936141,-2,-1,0,-1,-1,0,-1,0
1528186420936141,-3,-1,-2,0,0,-2,-2,0
1528186420950986,0,0,-2,-1,-1,0,-1,-2
1528186420950986,1,0,-1,1,0,1,-1,-1
1528186420951870,-1,0,-1,-1,-1,-1,1,-1
1528186420951870,0,-2,-3,-1,0,0,1,1
1528186420973119,-2,-2,0,0,0,0,0,-1
1528186420973119,0,0,-2,-2,1,1,-2,1
1528186420974136,-1,0,-1,0,-1,0,-1,-1
1528186420974136,0,0,0,1,1,0,0,0
1528186420997057,-1,0,-1,0,0,0,-1,-1
1528186420997057,0,-1,0,-1,-2,-1,-1,0
1528186420997057,-1,-1,-1,-2,2,-1,-2,0
1528186420997057,-1,0,0,-1,-1,1,1,-1
1528186421019000,-1,0,0,-3,-1,0,-2,0
1528186421019000,0,1,0,0,0,-2,-1,-1
1528186421019994,-1,-1,-1,-1,-1,0,-1,0
1528186421019994,1,-1,0,0,0,0,0,-2
1528186421042168,1,-1,0,0,-1,0,-1,-1
1528186421042168,0,-1,-1,2,1,-1,0,-2
1528186421043066,0,-1,1,0,0,-2,-2,0
1528186421043066,-1,0,-1,-1,-1,0,-1,-1
1528186421056895,2,0,-1,0,1,0,-1,0
1528186421056895,0,0,0,-2,0,0,0,-2
1528186421057906,0,-1,1,-1,-2,0,0,0
1528186421057906,-1,1,-1,-1,-1,-2,-1,0
1528186421079386,-1,-2,-1,0,-1,0,0,-1
1528186421079386,-3,-1,-1,-1,0,-1,-1,0
1528186421081399,0,-1,-1,-1,-1,-1,1,0
1528186421081399,0,0,-1,0,0,-1,-2,-1
1528186421093107,0,-1,-1,-2,-1,-1,0,-1
1528186421093107,-1,-1,0,0,0,-1,-1,0
1528186421102083,-1,0,-1,-1,0,-1,1,-2
1528186421102083,-1,-1,-1,1,0,-1,-1,-1
1528186421117421,0,-1,0,-6,-3,2,1,-1
1528186421117421,-1,-2,-1,2,1,0,-1,2
1528186421119037,-1,2,0,0,-1,-1,-2,0
1528186421119037,0,-2,0,-1,-1,0,0,1
1528186421139031,-2,1,-2,-1,-1,0,-1,-1
1528186421139031,2,0,-2,-2,-2,1,0,-3
1528186421140979,0,0,-2,-1,0,0,-2,-2
1528186421140979,-2,0,-1,-1,0,1,-1,-1
1528186421153343,-1,-1,-2,1,1,-3,-4,0
1528186421153343,-1,-1,-1,-2,-1,0,-1,-1
1528186421162000,-1,-1,-2,2,1,-1,0,0
1528186421162000,1,-2,0,-1,-3,0,0,0
1528186421177305,-2,-1,0,1,0,-1,2,-1
1528186421177305,-1,1,0,-1,-1,-2,-1,0
1528186421177958,0,-2,0,0,0,-1,1,-1
1528186421177958,-2,-1,0,-1,0,-2,-1,-1
1528186421200024,0,-1,0,-1,-1,-1,-1,0
1528186421200024,-1,-3,1,-3,-2,2,-1,-1
1528186421200896,-1,-1,-1,-3,-2,-1,1,-1
1528186421200896,0,-2,-2,0,0,-2,0,-1
1528186421212987,-1,-1,-1,0,-1,-2,1,-1
1528186421212987,0,0,0,0,-2,-1,-1,-1
1528186421221839,0,0,-1,-2,0,0,-1,-1
1528186421221839,1,-1,-2,0,0,-2,0,-3
1528186421237046,0,0,-1,1,0,-1,-2,-1
1528186421237046,-1,-1,-1,1,-1,-1,0,0
1528186421238989,0,-2,-2,1,-1,0,1,1
1528186421238989,-2,0,-1,-6,-3,0,-2,-1
1528186421259164,1,0,-1,-1,0,0,-1,0
1528186421259164,-1,-2,0,0,0,0,-2,-1
1528186421260750,0,-1,0,2,-1,-1,-1,-1
1528186421260750,-2,0,1,-2,-2,-1,0,0
1528186421272917,0,-1,-2,1,0,-1,1,-1
1528186421272917,0,1,-1,-1,-1,-2,0,-1
1528186421281822,-1,-3,-2,-2,0,1,-1,-1
1528186421281822,-2,-1,0,1,1,0,0,-1
1528186421296902,-1,0,0,-1,0,0,0,0
1528186421296902,0,-1,-1,1,0,0,-1,0
1528186421298633,-2,0,-1,5,1,-1,-1,-1
1528186421298633,0,-1,0,2,-1,0,0,-1
1528186421319584,1,1,-2,1,-2,0,-1,0
1528186421319584,1,-2,-1,-1,-2,0,2,0
1528186421320595,-1,-3,-2,-2,-1,0,-1,2
1528186421320595,0,-1,-1,0,0,-1,0,2
1528186421333596,-2,-2,-2,-2,0,2,0,-1
1528186421333596,0,0,0,-2,-1,-2,0,0
1528186421341917,1,0,-1,-2,-1,-3,0,-3
1528186421341917,-1,-1,0,1,1,-1,0,-1
1528186421356491,-1,-1,1,-2,-1,-1,-1,0
1528186421356491,-2,1,-1,-2,-2,-1,-1,-2
1528186421358485,-2,-2,0,0,-1,0,0,0
1528186421358485,0,0,-1,0,-2,-2,1,-3
1528186421379990,0,-2,1,-1,0,-1,0,0
1528186421379990,1,-2,0,0,2,-1,-1,0
1528186421380702,-1,0,0,0,-1,-1,-2,-1
1528186421380702,0,-1,-3,-1,-1,1,-1,-2
1528186421392913,0,-1,-2,0,0,-1,0,-1
1528186421392913,-1,0,-1,0,-2,-2,-1,-1
1528186421401927,1,1,-2,-1,0,0,-1,0
1528186421401927,-1,0,-2,-1,-2,-2,-2,1
1528186421417181,1,-2,-1,0,-1,0,-1,-1
1528186421417181,0,-3,-2,-1,0,0,1,0
1528186421419022,-3,0,0,-1,-1,0,0,-2
1528186421419022,1,0,-1,-1,0,-1,-1,-1
1528186421446807,-1,1,-2,0,0,-2,1,-1
1528186421446807,0,0,-2,-1,-1,-1,0,0
1528186421447804,1,1,-1,-1,-1,0,1,0
1528186421447804,0,-1,-2,-1,-1,-1,-1,1
1528186421452893,-2,-2,-1,-1,0,-1,0,-1
1528186421452893,-2,-3,1,-1,-1,0,-1,-1
1528186421461767,-1,-1,-2,-2,0,-1,-1,0
1528186421461767,-1,-2,0,-2,0,-1,-1,0
1528186421476727,1,-2,0,-2,0,-2,-1,-1
1528186421476727,0,0,-1,-2,-2,0,0,-1
1528186421483002,0,-1,0,1,-3,-2,-1,-1
1528186421483002,0,1,0,0,-1,2,-2,-2
1528186421499364,-1,1,-2,-1,-1,1,-1,-2
1528186421499364,-1,-1,-2,0,0,0,1,0
1528186421500810,0,-1,0,0,0,-2,0,1
1528186421500810,0,-1,0,0,0,0,0,-1
1528186421512793,-1,0,-2,0,-1,-2,0,0
1528186421512793,0,2,0,-1,0,0,-1,-2
1528186421529748,0,0,-1,0,-1,-1,1,-2
1528186421529748,-2,0,-2,0,0,-2,0,1
1528186421536804,-1,-1,0,-1,0,1,0,-1
1528186421536804,-1,0,0,0,-2,-1,0,-1
1528186421543077,0,1,0,-1,0,1,0,-2
1528186421543077,1,1,0,-1,-2,-1,0,0
1528186421559672,0,0,-1,0,-3,-1,0,0
1528186421559672,0,-1,-2,-2,0,-1,-1,1
1528186421560666,0,-1,1,-2,0,0,2,-1
1528186421560666,0,-3,-1,-1,0,-1,0,-2
1528186421572647,-2,1,1,0,-2,0,-1,0
1528186421572647,0,-1,1,0,-1,0,-2,-1
1528186421581757,0,1,-1,-1,-1,-1,-2,-1
1528186421581757,-1,-2,0,0,1,1,-2,0
1528186421596647,-1,-2,1,1,-1,0,-1,-2
1528186421596647,-2,-1,1,-1,1,-1,-1,0
1528186421603555,0,0,1,-1,1,-1,-1,-1
1528186421603555,-1,0,0,-2,-2,-1,0,-1
1528186421619782,0,-1,-1,-3,-1,0,0,1
1528186421619782,-1,0,0,1,0,0,-1,-1
1528186421620746,0,-1,0,0,0,-1,0,0
1528186421620746,0,2,-1,0,-1,0,1,-1
1528186421633549,0,-2,-1,0,-1,-2,0,0
1528186421633549,-2,0,-2,-1,0,-1,0,-1
1528186421641866,0,-1,-1,-1,-1,0,0,-1
1528186421641866,0,0,-1,-1,-1,0,-1,-1
1528186421655832,-1,-2,-1,-1,0,-1,-1,-1
1528186421655832,0,-1,1,-1,0,-1,-1,1
1528186421663603,-1,-2,0,-1,-2,-1,-1,0
1528186421663603,-3,-1,-1,0,-2,-1,-1,0
1528186421679773,-1,-2,-1,-1,0,0,-1,-2
1528186421679773,-1,-1,-2,-1,0,0,0,0
1528186421680484,1,0,-1,0,0,-1,1,0
1528186421680484,-1,0,-1,0,1,0,0,-1
1528186421701670,-2,0,0,-1,1,-2,-1,0
1528186421701670,-3,-1,-2,0,1,-2,0,0
1528186421703425,-1,0,-1,-3,-1,0,-1,-1
1528186421703425,0,-1,-1,0,-2,-1,0,2
1528186421716393,2,0,-2,0,-2,0,-1,-1
1528186421716393,3,-2,0,0,-1,0,0,-2
1528186421722611,-1,-3,-4,1,0,-1,-1,0
1528186421722611,-1,-1,-1,-1,1,-1,-2,-1
1528186421739505,-1,-1,-1,-1,0,0,-2,0
1528186421739505,1,-1,-1,0,-1,0,-1,2
1528186421740326,0,1,-1,0,0,-1,0,0
1528186421740326,0,-1,-1,-1,-1,-1,-1,-1
1528186421761602,0,-1,-1,-1,-1,1,-1,-1
1528186421761602,-2,0,-2,-2,-1,-1,0,-1
1528186421763265,-1,-1,0,0,-1,-2,1,-2
1528186421763265,-1,0,-1,0,0,0,0,-1
1528186421775579,0,-2,-1,-1,-1,-1,1,-2
1528186421775579,-1,2,0,-1,0,1,0,-1
1528186421784209,0,0,0,0,-1,-1,-1,-1
1528186421784209,1,0,0,-2,-1,-1,-1,-2
1528186421799339,-1,1,-1,1,-1,-2,1,-1
1528186421799339,0,-1,1,-1,-3,-1,-1,0
1528186421801165,-1,-1,0,0,-2,0,-2,0
1528186421801165,0,-2,-1,0,0,0,1,-1
1528186421822373,-1,0,-1,-1,-1,-1,-1,-1
1528186421822373,-1,-2,-2,-1,-2,-1,0,-1
1528186421823105,0,-1,-2,0,-2,-1,-2,0
1528186421823105,2,0,0,-2,-2,-1,-1,0
1528186421835738,-1,0,0,1,-2,-1,0,1
1528186421835738,0,0,-2,0,1,0,0,-1
1528186421844352,-3,-1,0,-1,1,0,1,0
1528186421844352,-3,-2,0,-1,1,-1,0,-1
1528186421859325,-2,0,0,-1,0,0,-1,-1
1528186421859325,0,-1,0,-1,-1,0,-2,-2
1528186421860310,0,-1,1,-2,0,0,-2,0
1528186421860310,1,0,0,-2,0,-1,1,0
1528186421881309,0,0,0,-1,-3,0,-1,0
1528186421881309,0,-1,-1,0,-1,0,-1,0
1528186421883249,0,-1,-2,0,0,1,1,1
1528186421883249,-2,0,-1,0,-1,-1,-2,-1
1528186421895602,1,0,0,-1,0,-1,0,-1
1528186421895602,0,-1,-1,-1,0,-2,-1,0
1528186421904508,1,0,-1,-2,1,-2,0,0
1528186421904508,-1,-1,0,0,-1,-1,-2,0
1528186421919728,-1,-1,-1,-2,1,-2,-1,0
1528186421919728,0,-1,-1,0,-1,0,0,0
1528186421920744,-1,1,1,-1,-1,0,0,-1
1528186421920744,-1,-1,0,-1,-1,-1,2,-1
1528186421949387,-1,0,-2,-1,1,0,0,-1
1528186421949387,0,0,1,0,-2,0,0,-2
1528186421950385,-2,-1,-2,0,-2,0,-2,-1
1528186421950385,0,1,-1,-2,-1,-2,-2,-1
1528186421955382,0,-1,1,-1,0,-2,-2,1
1528186421955382,0,-1,-1,-1,0,-1,0,-1
1528186421964350,0,-2,-2,-1,0,-1,-1,-2
1528186421964350,0,-1,0,1,0,1,0,-1
1528186421979364,-2,-2,0,-1,-1,0,0,-1
1528186421979364,-2,0,-1,0,-1,0,-1,0
1528186421980358,0,-1,1,-1,-1,-2,-1,-1
1528186421980358,0,-1,-2,-2,0,1,0,-1
1528186422001302,0,0,-3,-2,-1,0,0,0
1528186422001302,0,-1,0,0,-1,-1,-1,-1
1528186422003243,0,0,0,0,-1,0,-1,-2
1528186422003243,0,0,-2,1,-1,0,0,-1
1528186422015267,0,0,0,0,-1,-1,-2,0
1528186422015267,-1,0,0,-3,0,-2,-1,0
1528186422024187,0,0,-1,0,1,-1,-2,1
1528186422024187,1,0,-1,-1,-1,-1,-1,2
1528186422039187,-1,0,0,0,-1,-1,0,-1
1528186422039187,-1,0,-1,0,-1,-1,1,0
1528186422041184,-2,-1,-1,0,-2,-1,1,-1
1528186422041184,-1,-1,-1,0,-1,0,0,-1
1528186422062111,-1,-1,-2,0,0,0,-1,0
1528186422062111,1,-1,-1,-1,0,-1,0,-1
1528186422063129,0,0,0,-1,-1,0,1,-2
1528186422063129,-1,0,0,0,-1,0,1,0
1528186422075087,0,1,-1,-1,-1,-1,1,0
1528186422075087,-1,0,-1,0,0,-1,0,0
1528186422084050,1,-2,-1,0,-1,-1,-1,0
1528186422084050,-1,-3,0,-2,0,-1,-2,-1
1528186422098988,1,-1,-1,-1,0,0,0,-1
1528186422098988,-1,-1,-1,1,-1,1,-1,0
1528186422100983,-1,1,0,-1,-1,-1,1,-1
1528186422100983,-1,1,1,0,0,0,-1,-2
1528186422120962,-1,-2,-1,-2,0,-1,0,-1
1528186422120962,0,0,-1,-1,-3,-1,-1,-1
1528186422128909,-1,0,-1,0,-1,0,-1,-1
1528186422128909,-2,-1,-1,-1,-4,-2,-1,0
1528186422134892,0,0,1,1,0,-2,0,-2
1528186422134892,-1,-1,-1,-1,-1,-3,1,-1
1528186422149852,-1,-1,-1,0,0,-1,-2,1
1528186422149852,0,-1,-3,-1,2,-2,-2,2
1528186422158828,-1,-1,-1,-1,-1,0,0,0
1528186422158828,0,-1,-1,0,1,-1,-1,-1
1528186422160823,1,-1,0,-1,-1,-1,0,-1
1528186422160823,-1,0,-1,0,-2,-1,-1,-1
1528186422181766,-1,1,-1,-1,-1,-1,-1,-1
1528186422181766,-1,-2,2,-1,0,1,0,1
1528186422183761,-2,-1,-2,-1,0,-1,-2,0
1528186422183761,-1,-1,1,0,0,-1,1,-1
1528186422203707,-1,-1,-1,-1,-1,0,-1,0
1528186422203707,-1,1,0,-1,0,-1,-1,-1
1528186422205701,0,-2,0,-2,-1,-1,1,-1
1528186422205701,0,-1,-1,0,-3,-1,-1,0
1528186422226645,-1,0,0,0,-1,-2,-2,1
1528186422226645,0,-2,-1,-1,-2,0,-1,-1
1528186422228640,0,-1,-1,1,-2,-1,-1,1
1528186422228640,-1,-1,-1,0,-1,-1,-2,0
1528186422241605,0,0,1,-1,1,0,-1,-1
1528186422241605,-1,-1,-1,1,-1,0,0,-1
1528186422243600,-2,-1,0,-1,-1,-1,1,-1
1528186422243600,-1,0,-1,-1,-1,1,0,-2
1528186422255815,0,-1,-1,0,-1,-1,-2,-1
1528186422255815,0,-1,0,-1,0,0,-3,1
1528186422264545,0,0,0,0,1,0,-2,-2
1528186422264545,0,0,0,0,1,1,1,-1
1528186422278769,-1,1,-2,-1,-1,1,-2,0
1528186422278769,1,-1,-1,2,0,0,0,-2
1528186422285489,-1,-2,0,-1,0,-2,0,0
1528186422285489,0,-2,-1,-1,-2,-1,-1,-1
1528186422301676,0,-1,0,0,-1,-1,1,-1
1528186422301676,0,-1,-1,0,0,-1,-2,-1
1528186422303441,-1,-1,0,-1,0,2,-1,1
1528186422303441,-1,0,-1,-1,0,0,-1,-2
1528186422315413,-1,-1,-1,-1,0,-2,-2,-1
1528186422315413,0,0,0,0,0,-1,-2,-1
1528186422324390,0,0,-2,-1,-1,-1,-2,-1
1528186422324390,0,-2,0,-1,-1,-1,-2,0
1528186422339489,-1,-1,-1,0,-2,-1,-2,-2
1528186422339489,0,0,-1,0,-1,-1,-1,0
1528186422340349,-1,0,-1,-1,-1,-2,1,0
1528186422340349,-1,-1,-1,-1,-1,-2,-2,-1
1528186422362346,-1,-1,-2,0,-1,-1,0,-1
1528186422362346,0,-1,0,0,0,-2,0,-1
1528186422363283,-1,-1,-1,0,-1,-1,-1,-1
1528186422363283,0,-1,0,-1,-1,-1,2,1
1528186422375812,0,-2,-1,0,0,-1,-1,1
1528186422375812,-3,0,-1,0,-1,1,-1,-2
1528186422384818,-1,-1,0,1,0,2,-1,-2
1528186422384818,-1,1,0,1,-1,-1,0,-2
1528186422398777,-1,-1,1,0,0,-1,1,-1
1528186422398777,0,0,0,-2,0,0,0,1
1528186422405740,1,-1,-2,0,-1,0,0,-1
1528186422405740,0,-1,1,0,0,-1,0,-2
1528186422422570,-1,0,1,-1,-1,0,0,-2
1528186422422570,-2,-1,-1,-2,0,-1,-1,-1
1528186422423418,-1,-1,1,-2,-2,0,0,0
1528186422423418,0,-1,-1,0,-1,0,-1,-1
1528186422435725,-1,-1,0,0,-1,-1,-1,0
1528186422435725,1,-2,0,-1,-1,-2,-2,1
1528186422444361,0,-1,-2,0,0,-1,-1,-1
1528186422444361,-2,-1,-1,-1,-1,-1,-2,0
1528186422458743,-1,-2,1,-2,-1,0,0,0
1528186422458743,-2,-2,-2,-1,0,0,-1,0
1528186422465320,-1,0,-1,0,-1,-1,-2,-1
1528186422465320,1,-1,-1,-1,0,0,0,0
1528186422482534,-1,-2,-2,-1,0,0,0,0
1528186422482534,1,-1,-1,0,-2,2,-2,-1
1528186422483258,0,-1,0,1,1,-1,-1,-1
1528186422483258,-1,-2,0,1,0,1,1,-1
1528186422504473,-1,0,-3,0,0,0,-1,0
1528186422504473,0,0,2,-2,-2,0,1,-2
1528186422506195,0,0,-1,0,-1,-1,-1,0
1528186422506195,0,-1,-2,-2,-1,-1,-3,0
1528186422518192,-1,0,-1,0,0,-1,-1,0
1528186422518192,-2,1,-1,-1,-2,-2,1,1
1528186422533161,-2,1,-2,-1,-2,-2,-1,0
1528186422533161,0,0,0,-2,0,-2,-1,-1
1528186422542100,-1,-1,0,-1,-1,-1,0,1
1528186422542100,0,-2,0,0,0,0,0,-1
1528186422543097,0,-2,0,-3,0,-1,1,-1
1528186422543097,1,-1,0,0,-1,-1,-1,-1
1528186422555104,2,-1,0,-1,-2,0,0,0
1528186422555104,-1,-2,0,1,0,-1,-1,1
1528186422564040,-2,0,1,0,-1,0,-2,0
1528186422564040,0,2,0,-2,-2,-1,0,-1
1528186422579000,-2,1,0,0,-1,0,0,0
1528186422579000,1,1,-3,-1,-1,-2,-2,0
1528186422585023,0,-1,-2,-2,-1,-3,-1,-1
1528186422585023,-1,0,-1,0,0,-1,0,-1
1528186422608921,1,0,0,0,0,0,-2,0
1528186422608921,-2,-1,-1,-2,0,-1,0,-1
1528186422610916,-2,1,-1,-1,1,0,-1,1
1528186422610916,0,-3,0,0,0,0,1,-1
1528186422622889,0,-1,-1,0,0,0,0,-1
1528186422622889,0,0,-1,-1,0,0,0,-1
1528186422631866,0,-1,-2,-2,1,0,-1,-1
1528186422631866,-1,0,-1,-3,0,-1,-1,-1
1528186422639280,1,-1,0,0,0,-1,-1,-1
1528186422639280,-1,-1,1,-2,0,1,0,1
1528186422645981,-1,-1,0,-1,0,0,-1,-1
1528186422645981,-2,0,-2,2,-1,0,-1,1
1528186422662173,-1,0,-2,-2,-1,0,0,-2
1528186422662173,-1,1,0,-1,-1,0,-1,-1
1528186422663809,0,0,-1,-1,1,0,0,0
1528186422663809,-1,-1,0,-1,-1,0,0,0
1528186422684927,1,-1,-1,-1,-1,-1,0,0
1528186422684927,-1,-1,-2,-1,-1,-1,1,-1
1528186422685728,1,-1,-2,-1,-2,0,-1,-2
1528186422685728,1,0,0,-1,1,-1,-2,0
1528186422706660,-2,-2,0,0,-1,-1,0,0
1528186422706660,-1,-1,-2,0,-1,-2,-3,0
1528186422708654,0,-1,-1,0,-2,-2,-1,0
1528186422708654,-2,2,-2,-1,-1,-2,-3,-1
1528186422722152,-2,1,0,-1,1,-2,-1,0
1528186422722152,-1,0,-1,-1,0,0,0,-1
1528186422722909,0,0,1,-1,0,0,1,0
1528186422722909,-1,-1,0,-1,0,-1,0,-1
1528186422744972,-1,-1,0,-1,-1,0,-2,-1
1528186422744972,-2,-2,0,-1,0,0,-2,-2
1528186422745841,-1,-1,-1,1,-2,0,-1,0
1528186422745841,0,1,-1,0,-1,-1,1,-1
1528186422758137,-1,-1,-1,0,-1,-2,0,0
1528186422758137,0,0,-1,-1,0,-2,-3,0
1528186422766791,-1,-1,-1,0,0,-2,2,-2
1528186422766791,0,-1,-1,0,0,-1,-2,-1
1528186422782500,0,-2,-2,-1,0,-1,-2,-1
1528186422782500,-1,0,-1,-2,-1,-1,-1,-1
1528186422783198,-1,-1,1,-1,0,-1,-1,-1
1528186422783198,-1,0,-1,-2,0,0,-2,0
1528186422804557,-2,-1,0,0,-1,0,0,0
1528186422804557,0,-3,0,1,0,-2,-2,-1
1528186422806137,1,0,-2,-1,-2,0,-1,1
1528186422806137,-2,-2,-1,-2,-1,-1,0,-1
1528186422818370,-1,-1,-1,-1,0,-1,0,-1
1528186422818370,1,0,-2,-2,-2,0,1,-2
1528186422834600,-1,-3,-1,-1,0,-2,-1,-1
1528186422834600,-1,0,-1,-1,-2,0,-2,-1
1528186422841893,-2,0,0,0,-1,0,-1,-1
1528186422841893,-1,0,0,-1,0,-1,1,-2
1528186422843594,-1,1,-2,-2,-1,0,0,-1
1528186422843594,1,0,0,0,0,0,0,-1
1528186422864938,1,-1,0,-2,-2,-1,0,-1
1528186422864938,-1,0,-2,-1,-1,1,0,0
1528186422866577,-1,-2,0,-1,-1,-1,-1,0
1528186422866577,-2,0,-2,-2,0,-1,1,0
1528186422877841,-1,0,-1,-1,0,0,-2,1
1528186422877841,-1,-1,-1,0,-2,-2,0,0
1528186422886460,-1,-1,0,-1,-1,0,1,-2
1528186422886460,0,-2,-1,1,0,1,-1,-2
1528186422909403,-1,1,0,-1,-1,-1,-1,0
1528186422909403,1,-1,-1,0,0,0,-1,-1
1528186422915387,1,2,-1,1,-2,-2,-1,0
1528186422915387,0,-1,-1,0,-1,-1,-1,0
1528186422924617,-2,-1,-1,-1,1,0,0,-1
1528186422924617,0,0,0,0,-1,-2,-1,1
1528186422925596,0,-2,0,-3,-1,-1,-1,-3
1528186422925596,-1,-1,1,-1,0,0,0,-1
1528186422938656,1,-1,-1,0,-1,0,0,0
1528186422938656,-1,-3,0,-1,0,-1,-1,1
1528186422947302,1,-1,0,0,1,0,-1,0
1528186422947302,0,0,-1,0,-2,-2,-1,-1
1528186422962377,1,0,0,-2,-1,1,0,0
1528186422962377,-1,-1,-2,0,-2,2,-1,-1
1528186422963299,-3,0,0,0,0,1,-2,0
1528186422963299,0,1,0,-1,0,-1,0,-1
1528186422985366,-2,1,1,1,-1,-1,-1,-1
1528186422985366,0,0,-1,0,-1,-1,1,-2
1528186422985366,0,0,-1,0,-1,-1,1,-2
1528186422985366,0,0,-1,0,-1,-1,1,-2
1528186422985366,0,0,-1,0,-1,-1,1,-2
1528186422985366,0,0,-1,0,-1,-1,1,-2
1528186422985366,0,0,-1,0,-1,-1,1,-2
1528186422985366,0,0,-1,0,-1,-1,1,-2
1528186422985366,0,0,-1,0,-1,-1,1,-2
1528186422985366,0,0,-1,0,-1,-1,1,-2
1528186422985366,0,0,-1,0,-1,-1,1,-2
1528186422985366,0,0,-1,0,-1,-1,1,-2
1528186422985366,0,0,-1,0,-1,-1,1,-2
1528186422985366,0,0,-1,0,-1,-1,1,-2
1528186422985366,0,0,-1,0,-1,-1,1,-2
1528186422985366,0,0,-1,0,-1,-1,1,-2
1528186422985366,0,0,-1,0,-1,-1,1,-2
1528186422985366,0,0,-1,0,-1,-1,1,-2
1528186422985366,0,0,-1,0,-1,-1,1,-2
1528186422985366,0,0,-1,0,-1,-1,1,-2
1528186422985366,0,0,-1,0,-1,-1,1,-2
1528186422985366,0,0,-1,0,-1,-1,1,-2
1528186422985366,0,0,-1,0,-1,-1,1,-2
1528186422985366,0,0,-1,0,-1,-1,1,-2
1528186422985366,0,0,-1,0,-1,-1,1,-2
1528186422985366,0,0,-1,0,-1,-1,1,-2
1528186422985366,0,0,-1,0,-1,-1,1,-2
1528186422985366,0,0,-1,0,-1,-1,1,-2
1528186422985366,0,0,-1,0,-1,-1,1,-2
1528186422985366,0,0,-1,0,-1,-1,1,-2
1528186422985366,0,0,-1,0,-1,-1,1,-2
1528186422985366,0,0,-1,0,-1,-1,1,-2
1528186422985366,0,0,-1,0,-1,-1,1,-2
1528186422985366,0,0,-1,0,-1,-1,1,-2
1528186422985366,0,0,-1,0,-1,-1,1,-2
1528186422985366,0,0,-1,0,-1,-1,1,-2
1528186422985366,0,0,-1,0,-1,-1,1,-2
1528186422985366,0,0,-1,0,-1,-1,1,-2
1528186422985366,0,0,-1,0,-1,-1,1,-2
1528186422985366,0,0,-1,0,-1,-1,1,-2
1528186422985366,0,0,-1,0,-1,-1,1,-2
1528186422985366,0,0,-1,0,-1,-1,1,-2
1528186422985366,0,0,-1,0,-1,-1,1,-2
1528186422985366,0,0,-1,0,-1,-1,1,-2
1528186422985366,0,0,-1,0,-1,-1,1,-2
1528186422985366,0,0,-1,0,-1,-1,1,-2
1528186422985366,0,0,-1,0,-1,-1,1,-2
1528186422985366,0,0,-1,0,-1,-1,1,-2
1528186422985366,0,0,-1,0,-1,-1,1,-2
1528186422985366,0,0,-1,0,-1,-1,1,-2
1528186422985366,0,0,-1,0,-1,-1,1,-2
1528186422985366,0,0,-1,0,-1,-1,1,-2
1528186422985366,0,0,-1,0,-1,-1,1,-2
1528186422985366,0,0,-1,0,-1,-1,1,-2
1528186422985366,0,0,-1,0,-1,-1,1,-2
1528186422985366,0,0,-1,0,-1,-1,1,-2
1528186422985366,0,0,-1,0,-1,-1,1,-2
1528186422985366,0,0,-1,0,-1,-1,1,-2
1528186422985366,0,0,-1,0,-1,-1,1,-2
1528186422985366,0,0,-1,0,-1,-1,1,-2
1528186422985366,0,0,-1,0,-1,-1,1,-2
1528186422985366,0,0,-1,0,-1,-1,1,-2
1528186422985366,0,0,-1,0,-1,-1,1,-2
1528186422985366,0,0,-1,0,-1,-1,1,-2
1528186422985366,0,0,-1,0,-1,-1,1,-2
1528186422985366,0,0,-1,0,-1,-1,1,-2
1528186422985366,0,0,-1,0,-1,-1,1,-2
1528186422985366,0,0,-1,0,-1,-1,1,-2
1528186422985366,0,0,-1,0,-1,-1,1,-2
1528186422985366,0,0,-1,0,-1,-1,1,-2
1528186422985366,0,0,-1,0,-1,-1,1,-2
1528186422985366,0,0,-1,0,-1,-1,1,-2
1528186422985366,0,0,-1,0,-1,-1,1,-2
1528186422985366,0,0,-1,0,-1,-1,1,-2
1528186422985366,0,0,-1,0,-1,-1,1,-2
1528186422985366,0,0,-1,0,-1,-1,1,-2
1528186422985366,0,0,-1,0,-1,-1,1,-2
1528186422985366,0,0,-1,0,-1,-1,1,-2
1528186422985366,0,0,-1,0,-1,-1,1,-2
1528186422985366,0,0,-1,0,-1,-1,1,-2
1528186422985366,0,0,-1,0,-1,-1,1,-2
1528186422985366,0,0,-1,0,-1,-1,1,-2
1528186422985366,0,0,-1,0,-1,-1,1,-2
1528186422985366,0,0,-1,0,-1,-1,1,-2
1528186422985366,0,0,-1,0,-1,-1,1,-2
1528186422985366,0,0,-1,0,-1,-1,1,-2
1528186422985366,0,0,-1,0,-1,-1,1,-2
1528186422985366,0,0,-1,0,-1,-1,1,-2
1528186422985366,0,0,-1,0,-1,-1,1,-2
1528186422985366,0,0,-1,0,-1,-1,1,-2
1528186422985366,0,0,-1,0,-1,-1,1,-2
1528186422985366,0,0,-1,0,-1,-1,1,-2
1528186422985366,0,0,-1,0,-1,-1,1,-2
1528186422985366,0,0,-1,0,-1,-1,1,-2
1528186422985366,0,0,-1,0,-1,-1,1,-2
1528186422985366,0,0,-1,0,-1,-1,1,-2
1528186422985366,0,0,-1,0,-1,-1,1,-2
1528186422985366,0,0,-1,0,-1,-1,1,-2
1528186422985366,0,0,-1,0,-1,-1,1,-2
1528186422985366,0,0,-1,0,-1,-1,1,-2
1528186422985366,0,0,-1,0,-1,-1,1,-2
1528186422985366,0,0,-1,0,-1,-1,1,-2
1528186422985366,0,0,-1,0,-1,-1,1,-2
1528186422985366,0,0,-1,0,-1,-1,1,-2
1528186422985366,0,0,-1,0,-1,-1,1,-2
1528186422985366,0,0,-1,0,-1,-1,1,-2
1528186422985366,0,0,-1,0,-1,-1,1,-2
1528186422985366,0,0,-1,0,-1,-1,1,-2
1528186422985366,0,0,-1,0,-1,-1,1,-2
1528186422985366,0,0,-1,0,-1,-1,1,-2
1528186422985366,0,0,-1,0,-1,-1,1,-2
1528186422985366,0,0,-1,0,-1,-1,1,-2
