timestamp,emg1,emg2,emg3,emg4,emg5,emg6,emg7,emg8
1528442214800063,1,0,1,0,-1,0,-1,-2
1528442214800063,0,0,-2,-2,-2,1,0,0
1528442214801061,-1,-1,-3,-2,-2,0,-1,0
1528442214801061,-2,1,1,-1,-1,0,1,0
1528442214806046,-1,0,-1,-2,0,-1,-1,0
1528442214806046,0,-1,-1,0,-1,0,-1,-1
1528442214807045,-2,-2,0,1,3,-2,0,-1
1528442214807045,1,0,-2,-1,-1,1,0,0
1528442214812031,-1,-2,-1,0,-1,0,-2,1
1528442214812031,-2,0,0,-1,1,-2,0,0
1528442214826991,1,0,-2,-1,-1,0,-1,1
1528442214826991,1,-1,-2,-2,0,0,-1,-1
1528442214828986,-2,0,1,-2,0,0,1,-2
1528442214828986,-1,-3,1,1,0,-1,-1,0
1528442214840953,0,-1,0,0,-1,0,0,-2
1528442214840953,-1,0,-1,0,-1,-2,-1,-1
1528442214858905,-1,-1,-1,-1,-2,2,-1,1
1528442214858905,1,1,-1,-1,0,0,0,-1
1528442214859902,-1,0,0,-1,1,0,0,0
1528442214859902,-1,-2,-1,-1,-1,0,0,-1
1528442214873865,-1,-1,-1,1,-2,-1,0,-1
1528442214873865,-1,-1,-1,-1,0,0,1,-1
1528442214878857,1,-1,-1,-2,-3,0,-2,-1
1528442214878857,-1,-1,-1,0,-1,0,-2,-1
1528442214893814,-2,0,-1,0,0,-1,-2,0
1528442214893814,2,-2,0,1,-1,0,0,1
1528442214903787,-2,0,0,0,-1,-2,0,0
1528442214903787,-1,0,0,0,-2,-1,-1,-1
1528442214909770,-1,0,-1,0,1,-2,0,0
1528442214909770,0,1,0,-1,0,-2,-3,0
1528442214963912,-1,0,-2,-1,-1,1,0,0
1528442214963912,0,0,0,0,-2,0,-1,1
1528442214964914,-2,-2,0,-1,0,0,-1,0
1528442214964914,0,-2,0,0,0,0,-1,1
1528442214965907,-2,-1,1,0,-1,0,1,0
1528442214965907,0,0,1,-1,-1,-1,-1,-2
1528442214969899,1,0,0,-1,-1,1,0,-1
1528442214969899,-1,-1,0,-1,-1,-1,1,-1
1528442214971891,0,0,1,0,1,0,-1,-3
1528442214971891,0,-1,-2,-1,-2,-1,0,0
1528442214975883,-1,-1,1,0,0,0,-1,0
1528442214975883,-1,-1,-1,-3,0,-1,0,-1
1528442214984901,0,-2,-1,0,-1,-3,0,-1
1528442214984901,-1,-1,-1,-1,0,-1,-1,-1
1528442214998852,-1,-1,-2,0,-2,0,0,0
1528442214998852,0,-1,-1,0,1,-1,-1,-3
1528442215005832,-1,0,-2,-2,-1,-1,-1,-1
1528442215005832,-1,-2,-2,0,0,-1,-3,-1
1528442215012814,-2,-1,0,0,-1,-1,1,-1
1528442215012814,-2,-1,1,0,-1,1,0,0
1528442215029768,-1,0,0,-1,-2,0,0,-1
1528442215029768,0,-2,0,-1,-1,-1,1,-2
1528442215035752,2,1,-1,-1,0,1,-3,-1
1528442215035752,-1,-2,-2,0,-1,-2,1,-2
1528442215044728,0,-1,0,0,0,-1,-2,-2
1528442215044728,0,0,-1,0,-1,0,1,-3
1528442215059688,0,-1,0,0,0,0,0,0
1528442215059688,0,-1,-2,-1,-2,-1,0,-2
1528442215065722,0,-2,0,-1,-1,-1,0,-1
1528442215065722,-1,0,-1,-1,0,-1,-2,-1
1528442215072702,-2,1,-1,-1,-1,-2,0,0
1528442215072702,-1,-1,0,0,-1,-1,-2,-1
1528442215088611,-1,1,0,-2,-1,-1,-1,-1
1528442215088611,0,-2,-1,-1,0,-1,0,1
1528442215095592,-1,-1,-2,0,-2,-2,1,-2
1528442215095592,-1,0,-2,-1,0,-1,-1,1
1528442215104568,0,-1,-2,0,0,-1,-2,2
1528442215104568,-1,-1,0,-2,-2,0,0,0
1528442215118563,0,-1,0,0,-2,-1,-1,-1
1528442215118563,-1,0,0,0,0,-2,-2,0
1528442215133527,-1,-2,-2,0,-1,0,-2,0
1528442215133527,-1,0,0,0,-1,1,-1,1
1528442215134488,-1,-1,0,0,1,0,-2,-1
1528442215134488,0,1,-1,0,-1,-1,1,0
1528442215149488,1,0,0,-2,0,0,-1,-2
1528442215149488,0,1,-1,-1,0,0,0,1
1528442215155475,-1,-3,-1,-2,1,-1,-2,-2
1528442215155475,0,-2,-1,-2,-2,0,-2,-1
1528442215164466,0,1,-1,0,-2,0,0,0
1528442215164466,0,0,-1,0,-1,-2,0,-1
1528442215178432,1,-1,1,0,-1,0,0,-1
1528442215178432,0,-1,-1,0,0,1,-2,0
1528442215185395,0,-2,0,1,-2,0,0,0
1528442215185395,0,-1,0,-1,1,-1,0,-1
1528442215193373,-2,-1,-1,-3,-1,0,0,0
1528442215193373,0,0,2,-1,-2,-1,-1,0
1528442215208333,1,-1,1,0,0,-1,1,-1
1528442215208333,-3,0,0,0,-1,0,-2,-1
1528442215215315,1,0,-2,-1,-1,-1,-1,0
1528442215215315,0,-1,-1,0,-1,0,-1,0
1528442215224290,-2,0,-3,-2,-1,-1,-1,-1
1528442215224290,0,-1,1,0,-1,-2,1,-2
1528442215239273,0,1,1,-2,-2,-1,-1,-2
1528442215239273,-2,-3,-3,-2,-1,-2,1,0
1528442215245277,-2,-2,-1,-1,-1,0,-1,1
1528442215245277,-2,-1,-1,0,-1,-2,-2,0
1528442215253222,-1,-1,-1,1,0,-2,1,0
1528442215253222,0,0,1,0,1,-1,0,-1
1528442215268174,0,-2,-1,-2,-1,-2,3,0
1528442215268174,1,-2,-1,-1,0,0,-2,-1
1528442215275155,-1,-1,1,0,-1,-1,0,0
1528442215275155,0,0,-1,-2,-1,1,-1,-1
1528442215284170,-1,2,0,0,0,2,0,-1
1528442215284170,-1,0,0,-2,-1,0,0,-1
1528442215299092,1,-2,-1,0,-1,-1,0,-1
1528442215299092,0,1,-1,0,0,-2,-1,-1
1528442215306122,1,-1,-1,-1,0,-1,-1,0
1528442215306122,0,0,-2,-1,-1,-1,0,0
1528442215321032,1,0,-1,0,0,0,-2,-1
1528442215321032,1,-2,0,-1,-1,0,0,-1
1528442215328017,-1,-1,-1,0,-2,-2,-2,0
1528442215328017,1,0,-2,2,0,-1,-1,0
1528442215335992,-1,0,-2,-2,-1,-1,0,0
1528442215335992,-2,0,-1,0,0,-1,0,0
1528442215350953,-1,-2,-1,-1,0,-3,-1,-1
1528442215350953,-2,-1,-1,-3,-2,0,-1,0
1528442215366909,0,1,-2,-1,-1,0,-2,0
1528442215366909,-3,1,-1,-1,-2,-2,-2,-1
1528442215368904,-2,-2,-1,0,-1,1,-1,-1
1528442215368904,-1,0,0,-1,0,1,0,0
1528442215380874,-2,0,-1,-1,-1,1,0,-2
1528442215380874,0,0,-2,0,0,0,0,0
1528442215387855,0,-1,-1,0,0,-1,0,0
1528442215387855,-1,-1,0,-1,-1,-1,1,-2
1528442215395834,0,0,-3,-1,0,-1,-1,0
1528442215395834,0,-1,-2,-1,0,0,-2,0
1528442215404809,-2,-1,0,1,-1,-1,1,0
1528442215404809,0,-1,0,-1,1,-1,0,0
1528442215418771,0,-1,-2,-2,-2,-2,-1,0
1528442215418771,0,-2,0,0,1,0,-1,-2
1528442215425753,0,1,-2,0,1,-3,-2,-1
1528442215425753,-1,0,-1,-1,-1,-1,-1,1
1528442215432734,0,-2,0,0,0,-2,0,-2
1528442215432734,-1,-2,1,0,0,0,-1,1
1528442215447701,1,-1,1,0,-2,0,-1,0
1528442215447701,0,-2,-1,-1,0,0,-1,-2
1528442215455673,0,2,-1,0,-1,0,-1,-1
1528442215455673,-3,0,-1,-3,-2,-1,2,-1
1528442215464651,-1,2,0,0,2,1,1,1
1528442215464651,-1,-1,-1,0,-1,-2,0,1
1528442215478612,0,0,-1,-1,-1,0,-1,1
1528442215478612,0,0,0,0,1,0,-1,-1
1528442215485593,1,0,-1,-1,-2,-3,-1,-3
1528442215485593,-1,2,1,1,-2,0,0,-1
1528442215493579,-2,-2,1,0,0,0,-1,0
1528442215493579,-1,0,0,-1,0,0,-1,-1
1528442215508532,-2,-3,1,0,-2,0,-2,-1
1528442215508532,0,0,0,0,-1,-2,0,-2
1528442215515512,0,-2,0,-1,-1,0,0,0
1528442215515512,0,-1,-1,0,0,-1,-1,0
1528442215524488,0,0,-1,0,0,-1,1,-1
1528442215524488,-1,-1,0,-1,1,-1,1,-1
1528442215538450,-1,0,0,-1,0,0,0,-1
1528442215538450,0,1,0,0,-1,-1,0,-1
1528442215545432,-2,1,-1,-2,1,-1,-2,1
1528442215545432,-1,-2,0,0,-1,2,-1,0
1528442215569368,0,-1,-1,1,-1,-1,0,1
1528442215569368,-1,-2,-1,1,0,0,0,-2
1528442215571363,-1,-1,-2,-1,-2,0,0,-1
1528442215571363,-1,0,0,-1,-1,-1,0,0
1528442215575352,-1,-2,-1,-2,-1,0,-2,1
1528442215575352,0,-1,-1,0,0,1,0,-1
1528442215584328,0,-2,-1,-1,-2,-1,-1,1
1528442215584328,-1,-1,-1,-2,-1,0,-1,1
1528442215598291,0,-1,1,1,-1,-1,-1,-1
1528442215598291,-1,1,-1,-1,-2,0,-2,-1
1528442215605272,0,0,-1,0,1,0,-1,-2
1528442215605272,-1,-1,-2,0,-2,1,-1,-1
1528442215629244,-1,0,-1,-1,-1,-3,-1,-1
1528442215629244,-1,0,0,-2,-1,-2,-1,0
1528442215631203,0,0,1,0,-1,1,0,-2
1528442215631203,-1,0,-1,0,-1,-1,-1,0
1528442215635231,-1,-1,1,-2,-2,-2,-1,-2
1528442215635231,-1,-3,-3,-1,0,-1,0,1
1528442215644202,-1,-3,-2,-2,0,-2,1,-1
1528442215644202,-1,-1,0,-1,-1,-2,-2,0
1528442215659183,-1,0,1,-1,1,1,0,-2
1528442215659183,-1,0,-1,-1,0,-2,-1,1
1528442215673144,-1,0,-1,-2,-1,-1,1,-1
1528442215673144,1,-1,-2,-1,0,-2,-1,0
1528442215681106,-1,-1,-1,0,0,0,-1,0
1528442215681106,-1,0,1,-2,-1,-1,-1,0
1528442215688103,0,2,0,0,-2,0,1,-1
1528442215688103,0,-1,-1,-2,0,-1,1,0
1528442215696030,-1,1,-1,-1,0,0,-1,-1
1528442215696030,0,-1,-1,0,-1,0,-1,-2
1528442215705043,-2,-2,0,0,-1,-1,-4,-1
1528442215705043,0,0,-2,-1,0,-1,-2,-1
1528442215718970,0,1,-1,0,0,-1,-1,1
1528442215718970,-1,-1,-1,0,-1,0,0,-1
1528442215726004,0,-1,-2,0,0,1,1,-1
1528442215726004,-1,-2,0,-1,2,-1,-1,0
1528442215740911,-1,0,-1,0,-1,-1,0,0
1528442215740911,0,0,0,1,-1,0,-1,0
1528442215756999,-1,-1,0,-2,-1,-2,-1,1
1528442215756999,0,-1,-1,-2,-1,-1,0,1
1528442215756999,-1,-1,-1,-1,-1,0,1,-1
1528442215756999,-1,-1,-1,-1,1,-1,-2,-1
1528442215764846,0,0,-1,-1,-1,1,0,0
1528442215764846,-1,0,-1,-1,-1,-1,0,-3
1528442215779413,-2,-1,0,0,0,-1,1,-1
1528442215779413,1,0,-1,0,-3,0,0,0
1528442215786450,-1,-1,-1,-1,0,0,0,0
1528442215786450,0,0,0,-1,-2,-1,0,-1
1528442215802150,0,-1,-1,0,0,-1,-1,0
1528442215802150,-1,0,1,-1,0,-2,0,0
1528442215808417,1,1,0,-2,-1,-2,-2,0
1528442215808417,0,1,0,0,-1,0,-2,0
1528442215817138,-1,0,-2,-1,0,-2,0,-1
1528442215817138,0,-2,1,-1,0,0,0,2
1528442215823473,-1,0,1,0,-1,0,0,0
1528442215823473,-1,0,0,0,-1,-1,-1,-1
1528442215847228,-2,0,-1,-1,-1,-2,-1,0
1528442215847228,-2,-2,0,0,1,-1,0,-1
1528442215849226,0,-1,-1,1,-1,0,-1,-1
1528442215849226,-1,0,-1,0,0,1,-2,0
1528442215862009,-1,0,0,-1,0,-1,1,-2
1528442215862009,-2,1,-2,-1,-1,0,0,-1
1528442215868168,-1,-2,-1,-1,0,-2,-1,-1
1528442215868168,-1,-1,0,1,0,-2,0,-1
1528442215876146,1,-2,-3,0,-1,0,0,0
1528442215876146,0,-1,0,0,0,0,-1,1
1528442215890843,-1,-1,0,-1,0,0,0,1
1528442215890843,-1,0,-2,-1,0,-1,0,-1
1528442215898825,-1,-1,1,0,0,0,-1,1
1528442215898825,-1,0,-1,-2,-1,-2,0,-2
1528442215905120,0,-2,-1,0,-1,-1,0,0
1528442215905120,0,-1,1,-1,-1,-2,0,-1
1528442215921117,0,0,0,0,0,0,-2,-1
1528442215921117,0,-1,-1,-1,0,0,-1,-2
1528442215928098,-1,-1,-1,1,0,0,-1,0
1528442215928098,1,0,-1,-2,-1,1,1,0
1528442215944055,-1,-1,-2,0,-1,1,-2,-1
1528442215944055,1,0,-1,-1,0,0,0,0
1528442215959255,-1,0,0,-1,0,-1,1,0
1528442215959255,0,-1,0,-1,-1,1,-1,-1
1528442215960175,-1,-1,0,-2,-1,-2,1,-1
1528442215960175,-2,0,0,0,0,-3,-1,-2
1528442215966994,-2,-2,-2,0,-1,0,-2,0
1528442215966994,-1,-2,-1,1,0,0,-1,0
1528442215982187,1,0,-1,0,-1,-1,-1,2
1528442215982187,1,-1,0,-2,-3,0,0,1
1528442215988177,-1,0,-1,0,0,-2,-3,0
1528442215988177,-1,-2,1,0,0,0,0,-2
1528442216004596,-1,-3,-1,0,0,1,0,-1
1528442216004596,-1,-2,-1,0,-1,1,-1,-1
1528442216011309,1,-1,-1,-2,1,1,0,-2
1528442216011309,-1,-1,-1,-2,-1,0,-2,-1
1528442216035382,0,0,-1,-1,-2,0,-2,-2
1528442216035382,0,-1,-3,-1,-1,-2,-1,0
1528442216037378,1,0,-1,-1,-2,-1,-1,0
1528442216037378,-1,-1,-2,0,0,-1,0,-1
1528442216041629,1,-1,0,-2,-1,0,-1,0
1528442216041629,-1,-2,1,0,1,0,0,-1
1528442216048638,-1,0,0,0,-2,-2,0,-1
1528442216048638,0,0,-1,0,1,-1,0,0
1528442216064601,-1,-1,0,-1,-1,-1,-1,-1
1528442216064601,-1,0,-1,1,-1,0,1,-2
1528442216071373,0,0,0,0,-1,0,0,-2
1528442216071373,0,-1,0,-1,0,-1,0,0
1528442216094818,-1,-1,0,-1,1,0,0,0
1528442216094818,-1,-1,-1,-2,-2,0,-2,0
1528442216101983,0,-1,-2,0,-1,-1,-1,-2
1528442216101983,-1,1,-1,-1,-1,0,-2,-1
1528442216101983,-1,-1,-1,0,-1,-1,0,0
1528442216101983,-1,-1,-1,-3,0,0,-1,-1
1528442216109705,-1,-1,0,0,-1,-1,-1,0
1528442216109705,-1,-1,-1,0,0,0,0,-2
1528442216123677,0,-2,-1,-3,0,-1,0,0
1528442216123677,-2,1,0,0,-1,-1,0,0
1528442216130877,-1,0,-1,-2,0,-3,1,-1
1528442216130877,-1,-1,-2,1,0,-1,-1,-1
1528442216146818,-1,-1,1,0,0,-1,0,-2
1528442216146818,0,-1,1,1,0,0,0,0
1528442216148812,-1,-1,0,-1,-1,1,-1,1
1528442216148812,0,-1,-1,-1,0,-1,-1,-1
1528442216161115,-1,0,-2,0,0,-2,0,-2
1528442216161115,1,1,-1,0,0,0,0,-2
1528442216169755,-2,0,1,0,0,0,1,1
1528442216169755,1,0,0,-2,-2,-1,0,1
1528442216184021,-1,-1,-1,-2,0,0,-2,-2
1528442216184021,-1,-1,-2,-2,0,1,-1,-1
1528442216190940,-1,1,-1,0,-2,1,-3,-2
1528442216190940,-2,0,1,-1,0,0,0,0
1528442216208182,-1,-1,-1,0,-1,-2,-1,1
1528442216208182,0,-2,-2,-1,-1,-2,0,-1
1528442216213925,-1,0,-2,-3,0,1,0,-1
1528442216213925,-1,-1,0,-2,-1,0,0,-1
1528442216229119,0,-2,0,-1,-1,0,-1,0
1528442216229119,0,-1,-2,-2,-1,-1,0,0
1528442216245835,2,-1,2,-1,-1,-1,0,1
1528442216245835,-1,0,0,-1,-1,0,-1,-1
1528442216247091,-1,0,-2,0,1,-1,-1,1
1528442216247091,-1,0,0,1,-1,-2,-1,1
1528442216252074,1,-1,0,-1,-1,0,0,0
1528442216252074,-2,0,-2,-1,0,0,0,-1
1528442216267130,0,-1,1,-1,-1,-1,0,-1
1528442216267130,-1,-1,-1,0,0,1,-1,-2
1528442216267130,0,1,-1,1,0,-2,-1,-1
1528442216267130,-1,-2,0,0,-1,-1,0,-1
1528442216290335,0,-1,1,0,-1,1,1,-2
1528442216290335,0,0,1,0,-1,-2,0,0
1528442216291332,0,-1,-2,-1,0,-2,1,1
1528442216291332,0,-3,-2,-2,-1,-1,-1,0
1528442216312506,-2,-1,0,-1,-1,0,-1,-2
1528442216312506,-1,0,0,-1,-1,0,0,-2
1528442216319523,-3,0,-1,0,0,0,-2,-1
1528442216319523,-1,0,-1,-1,-1,-1,-1,1
1528442216326239,1,0,0,-1,-2,-1,0,2
1528442216326239,-2,-1,-1,0,0,0,-1,-1
1528442216327246,-1,-1,-1,1,1,-1,-1,-1
1528442216327246,0,1,-1,0,0,0,0,-1
1528442216349433,-1,0,-1,0,1,0,-2,-2
1528442216349433,0,0,-1,-1,-1,0,-2,-1
1528442216349433,-1,0,0,-1,-2,-1,-2,-1
1528442216349433,1,0,0,2,0,-1,0,0
1528442216362677,-1,-3,-1,-1,0,-1,0,1
1528442216362677,0,-1,-2,0,-2,-2,0,0
1528442216370895,-1,0,-2,0,-1,0,-2,-1
1528442216370895,-1,0,-1,0,-1,1,-2,-2
1528442216386613,-1,-2,-1,-2,0,0,-2,-1
1528442216386613,0,0,-1,0,1,-2,-3,0
1528442216386613,-1,-2,0,-2,0,-2,0,0
1528442216386613,0,-1,-1,0,-1,-3,2,0
1528442216402571,-2,-2,0,0,-1,-2,-1,0
1528442216402571,-1,-3,-1,-1,0,-1,0,-1
1528442216408817,-3,-1,-2,-1,-2,0,-2,-1
1528442216408817,-1,0,-1,-1,0,-1,-2,0
1528442216423754,0,1,-1,-1,-2,-2,0,0
1528442216423754,1,-1,-1,0,0,-1,-2,-1
1528442216431157,1,-1,-2,-1,-1,1,-2,-1
1528442216431157,-1,-1,0,0,0,1,-1,0
1528442216446724,-2,0,0,-1,1,2,0,-2
1528442216446724,-1,0,0,0,-1,-1,-1,2
1528442216447826,0,-1,1,1,0,0,0,-1
1528442216447826,0,0,-2,0,-1,-1,-1,0
1528442216462135,1,1,-2,0,-1,-2,0,0
1528442216462135,-1,0,-1,-1,0,2,0,-1
1528442216468278,-1,-2,-1,0,0,-1,1,-1
1528442216468278,1,-2,1,-3,0,0,0,0
1528442216484847,-1,0,0,0,1,-2,-1,-2
1528442216484847,-2,-2,1,0,0,-1,-1,-1
1528442216491336,0,0,-2,-1,-1,-2,-1,-1
1528442216491336,-2,-2,-2,-1,0,0,0,-1
1528442216506365,3,-1,-2,0,-1,1,-1,-2
1528442216506365,0,-1,-1,1,-1,-1,1,0
1528442216507122,1,0,0,-1,0,0,-2,0
1528442216507122,0,0,1,0,-1,0,-1,0
1528442216528354,-2,0,-2,-1,-1,-1,0,0
1528442216528354,-1,-2,-1,-1,-1,-2,-2,0
1528442216529351,-1,0,-1,-1,-2,0,0,0
1528442216529351,-1,1,0,-1,-2,-1,-1,0
1528442216544311,-1,-1,-1,0,-1,0,-1,0
1528442216544311,-1,-1,0,-2,-1,-1,1,-1
1528442216551364,-2,0,0,-2,0,-2,-1,-1
1528442216551364,0,0,1,0,-2,0,0,-1
1528442216566492,0,1,0,1,-2,-1,0,0
1528442216566492,-1,1,-3,0,-2,0,0,-1
1528442216567485,-1,0,-2,0,1,-1,-1,-1
1528442216567485,-1,1,-2,-2,1,-1,-1,-1
1528442216596472,-1,-2,-1,-1,0,-1,0,-1
1528442216596472,0,0,1,-1,0,1,-1,-1
1528442216597754,1,-1,-1,-3,-1,0,0,-1
1528442216597754,0,-1,-2,0,-1,-1,-1,0
1528442216604738,0,0,1,-1,0,-2,-1,0
1528442216604738,-1,-1,-2,-1,0,0,1,0
1528442216610738,-1,-1,0,0,1,-2,-1,-1
1528442216610738,0,-1,-1,0,-1,-1,-2,0
1528442216625984,0,-1,0,-1,-2,0,-1,0
1528442216625984,-1,-2,-1,-1,-1,0,0,-1
1528442216626992,-2,0,-2,0,-3,1,1,0
1528442216626992,0,0,-2,1,1,0,0,-2
1528442216649099,-1,-1,0,2,-1,-1,-1,0
1528442216649099,-1,0,1,-2,-1,-2,-1,0
1528442216649751,-1,-1,1,0,-1,-1,1,-1
1528442216649751,-1,-2,-1,-1,-1,0,-1,-1
1528442216664711,0,0,-1,-1,-1,0,0,-1
1528442216664711,-2,0,1,0,-1,1,1,-1
1528442216679239,1,-1,1,0,0,-2,-2,-1
1528442216679239,0,-2,-1,0,-1,-2,0,-1
1528442216686957,-2,0,-2,0,0,-1,0,0
1528442216686957,0,-2,-2,0,0,-2,-1,0
1528442216686957,0,-1,-1,1,1,-2,-3,1
1528442216686957,-1,1,0,0,0,0,-1,0
1528442216708507,0,-1,-3,-2,0,0,-1,0
1528442216708507,0,0,-2,0,0,-1,-1,-1
1528442216709511,-2,-1,0,-1,-1,-1,1,-1
1528442216709511,0,-1,1,0,0,-2,-1,0
1528442216724467,0,-1,-1,1,-2,0,0,0
1528442216724467,-1,0,1,-1,0,0,-1,-1
1528442216739481,-1,0,-2,-2,0,-1,0,0
1528442216739481,-1,0,-1,-2,-1,0,0,-2
1528442216746461,0,0,1,1,0,-1,-2,-1
1528442216746461,0,0,-1,-2,-1,-1,-1,0
1528442216747458,0,0,-3,0,1,2,1,-1
1528442216747458,-2,1,-1,-1,0,-1,0,0
1528442216770403,-1,0,0,-1,1,-1,0,-1
1528442216770403,1,-2,-1,-1,-1,-1,-1,0
1528442216771394,-1,0,-1,-1,-2,-1,-2,-1
1528442216771394,0,-3,-2,-1,-1,-1,-2,0
1528442216784360,-2,-2,0,-1,0,-3,-2,-2
1528442216784360,-1,0,-1,0,1,0,-1,0
1528442216790349,-1,0,-1,-2,-1,0,1,-1
1528442216790349,0,-1,0,-1,0,1,-1,1
1528442216813335,-1,-2,0,-3,-1,1,0,-1
1528442216813335,0,0,-2,-2,0,-1,1,-1
1528442216814296,-1,0,0,-1,-3,-1,-2,-1
1528442216814296,-2,0,0,0,-1,-1,0,-1
1528442216828296,0,2,-1,0,0,0,0,-3
1528442216828296,-1,0,0,1,-1,0,-1,1
1528442216829247,0,-1,-1,0,1,-1,-1,1
1528442216829247,0,-3,0,-1,0,-1,-1,2
1528442216844254,-2,-2,-1,-1,0,-3,0,0
1528442216844254,0,0,0,1,-1,-2,-2,0
1528442216850242,-1,1,-1,-1,-1,-1,-2,-1
1528442216850242,-1,-1,-1,1,-1,1,-2,-2
1528442216865197,-1,0,-2,0,-1,0,0,1
1528442216865197,-1,0,-2,-1,-1,0,0,0
1528442216873177,0,0,0,1,0,1,0,-1
1528442216873177,1,-1,1,-1,-2,-2,0,-1
1528442216889131,-1,-1,-1,1,-2,-1,-1,-1
1528442216889131,-1,-2,0,-1,-1,-1,-1,-2
1528442216889131,-2,-2,-1,1,0,0,0,1
1528442216889131,-1,0,-1,-1,-1,-1,-2,-1
1528442216905115,1,1,-2,-1,0,-1,-1,-1
1528442216905115,-1,-1,0,0,-2,-1,-1,0
1528442216911077,-1,0,-1,-2,-1,0,0,0
1528442216911077,0,-1,-1,-1,-1,0,-2,-1
1528442216926036,0,0,0,-1,-2,-1,-2,0
1528442216926036,1,0,0,1,0,-2,-2,-1
1528442216933005,1,0,0,0,-2,-1,-2,0
1528442216933005,0,-2,-1,0,0,0,1,0
1528442216941938,0,-2,0,-1,0,0,2,-1
1528442216941938,0,1,-1,0,-1,-2,0,-1
1528442216947922,-1,-1,0,-2,0,-1,-1,0
1528442216947922,-2,1,-2,0,-1,-3,-1,0
1528442216962887,0,0,0,-2,0,-1,-1,-2
1528442216962887,-1,-2,0,-1,1,0,-2,-2
1528442216970913,1,-1,-1,-2,0,-2,1,-2
1528442216970913,-1,0,-1,0,-1,0,-1,0
1528442216985873,-1,-2,-1,-2,0,0,0,1
1528442216985873,0,-2,-1,0,-1,0,-3,-3
1528442216992854,-2,0,-1,2,0,0,-1,-1
1528442216992854,0,-1,1,-1,1,0,-2,-1
1528442217008814,-2,-1,-1,-2,-2,-1,-1,0
1528442217008814,0,-1,0,-1,1,0,0,1
1528442217015796,-1,-1,-1,-1,-2,0,-1,-1
1528442217015796,-2,-1,-2,0,0,-2,-1,1
1528442217024768,-1,-1,1,-1,0,0,-1,-2
1528442217024768,0,1,0,-2,-1,-2,1,-1
1528442217030701,1,-1,1,-2,0,0,-1,1
1528442217030701,0,-1,-2,-2,-1,-1,-1,1
1528442217045662,1,0,0,-2,-2,-1,-3,-1
1528442217045662,-3,0,-1,0,0,-1,-1,-2
1528442217052643,1,0,1,0,1,-3,0,-1
1528442217052643,-2,-1,0,-1,-1,-1,-1,-1
1528442217068601,0,-2,0,1,0,0,-1,-1
1528442217068601,-1,0,-2,-1,-1,0,-2,1
1528442217069598,-1,0,-3,0,-1,-1,-2,-2
1528442217069598,-1,-2,-2,-1,0,-1,1,0
1528442217084592,0,0,-2,0,-2,-1,-1,0
1528442217084592,-1,-1,0,-1,-1,0,-1,0
1528442217090544,-1,-1,-1,-1,-2,-1,-1,-1
1528442217090544,1,1,1,-1,-1,-1,0,-1
1528442217105502,-1,-1,-2,0,-1,-1,-1,0
1528442217105502,-1,0,0,-1,0,-1,0,0
1528442217113730,1,1,0,1,0,-1,1,-1
1528442217113730,-2,1,-1,-1,-2,-1,-1,-2
1528442217128945,-1,-1,0,0,0,-1,-1,0
1528442217128945,-2,-2,-1,-1,-1,0,-2,-1
1528442217130192,-1,-1,-1,-2,-2,-1,-1,0
1528442217130192,0,-1,-1,1,0,1,-2,-2
1528442217143441,1,1,0,-1,0,-2,-1,-1
1528442217143441,0,0,-2,0,-1,-3,-1,-1
1528442217150217,-1,-3,0,0,-1,0,-2,-1
1528442217150217,0,-2,-2,-1,0,0,0,0
1528442217166294,-2,-2,0,-1,0,0,0,1
1528442217166294,-1,0,0,0,0,-2,0,-1
1528442217173677,-1,-1,-2,1,-2,1,1,0
1528442217173677,-1,0,1,0,0,2,0,-1
1528442217189441,-1,0,-1,-1,0,1,-1,-3
1528442217189441,0,0,-1,0,-1,0,-2,0
1528442217189441,-2,1,-1,-1,-1,1,0,-1
1528442217189441,1,0,0,0,1,-1,-2,-1
1528442217203919,1,1,-2,-1,-2,-1,0,-1
1528442217203919,0,0,0,0,-1,-2,1,1
1528442217210995,-1,-1,-1,-1,-1,-1,0,0
1528442217210995,-1,0,0,-1,-1,-1,-1,1
1528442217234567,-1,-1,-1,-2,-1,-1,0,0
1528442217234567,0,0,1,1,-1,-1,-2,-3
1528442217234567,-1,-1,1,-1,1,-1,-2,-1
1528442217234567,-1,-1,1,-1,-1,-1,1,-2
1528442217248750,1,-1,0,1,-2,-1,-1,0
1528442217248750,-1,-1,0,-1,0,0,1,0
1528442217249488,0,1,0,0,0,-2,0,0
1528442217249488,0,0,-1,-1,-1,-1,0,0
1528442217264556,0,-1,-1,0,-1,1,-1,-1
1528442217264556,-1,-1,-1,-1,-2,-1,0,-1
1528442217270696,0,-1,-1,0,1,1,-1,-1
1528442217270696,-1,-1,1,0,-1,0,-1,-1
1528442217286407,-1,0,0,1,0,-1,-1,0
1528442217286407,-2,-2,-1,-1,-2,0,0,1
1528442217293634,2,-1,1,0,-1,-1,0,0
1528442217293634,0,0,-1,-1,-3,0,1,0
1528442217308598,1,1,-2,-2,-1,-1,-2,-1
1528442217308598,-1,-1,0,0,1,0,-2,0
1528442217309595,-1,0,0,-1,-1,-2,-1,0
1528442217309595,0,-1,-1,0,-1,0,-1,-2
1528442217322561,1,1,1,-2,0,-1,-2,-1
1528442217322561,-1,-1,0,-2,0,0,0,-1
1528442217330539,0,-1,-1,-1,-1,-1,-2,-2
1528442217330539,-1,0,-2,-1,-1,0,-2,-1
1528442217345503,-1,-1,0,0,-1,0,-1,-1
1528442217345503,0,0,-2,0,-1,0,1,-1
1528442217353479,-1,0,-1,-1,0,-1,-2,0
1528442217353479,0,1,0,1,0,-2,0,-2
1528442217368692,0,-3,-1,-1,-2,-1,1,-1
1528442217368692,0,-1,-1,0,-1,0,-1,0
1528442217376420,-1,0,1,0,-1,-1,-1,-2
1528442217376420,-2,0,-1,-1,-1,-2,0,0
1528442217383401,0,-1,-1,0,0,-1,0,-2
1528442217383401,1,0,-2,0,1,0,0,0
1528442217390383,0,0,-1,0,-1,-1,1,1
1528442217390383,-1,1,-1,-1,-1,0,-1,0
1528442217405344,-2,-1,1,-2,0,-1,-1,0
1528442217405344,-1,-1,0,0,0,-2,-3,-1
1528442217413323,-1,0,-2,0,-1,1,0,-2
1528442217413323,-1,-3,0,0,-1,0,-1,-1
1528442217430011,-1,-1,-1,-2,-1,-1,1,0
1528442217430011,0,0,0,-2,0,1,1,-1
1528442217431011,-2,-1,-2,-2,0,-1,-2,1
1528442217431011,-1,-1,1,-1,-2,-1,-2,-1
1528442217450960,-1,1,0,1,2,0,1,0
1528442217450960,-1,0,-2,1,-1,-2,0,-1
1528442217451955,-2,0,0,0,-2,-1,0,0
1528442217451955,0,-1,-1,0,-1,-2,0,-1
1528442217466948,-2,0,-1,-1,0,-2,-2,0
1528442217466948,-1,1,0,-1,-1,0,1,0
1528442217482030,-1,0,-2,-1,0,0,0,0
1528442217482030,1,-2,0,-1,0,-1,0,0
1528442217489155,-1,0,-1,0,-1,-1,0,0
1528442217489155,-1,1,0,-2,0,0,1,1
1528442217489155,-1,0,-1,-1,-1,-1,1,-1
1528442217489155,-1,-1,0,-1,-1,-1,-1,-1
1528442217503123,-2,0,-2,1,1,-1,-2,-1
1528442217503123,-1,0,0,-1,-2,0,-1,0
1528442217510647,0,-3,-1,0,0,0,-2,0
1528442217510647,0,0,-1,-1,-1,-1,-1,1
1528442217525590,-1,-1,-1,-1,-2,-1,-1,-1
1528442217525590,-1,-3,-1,-2,-1,-1,0,-2
1528442217532840,1,-2,0,0,0,-1,-2,-2
1528442217532840,0,-1,-1,-1,1,0,1,-1
1528442217548767,-2,0,0,-1,-2,-1,0,0
1528442217548767,2,0,-1,0,-1,0,-1,0
1528442217549764,0,0,-2,-2,-1,0,0,1
1528442217549764,-1,1,-1,-1,0,-1,-1,0
1528442217562729,-1,-2,-1,-1,-1,-2,0,0
1528442217562729,-1,-2,-1,-1,0,-2,-1,0
1528442217570708,-2,0,-1,-1,-2,-1,-2,-1
1528442217570708,0,-1,-1,0,0,1,0,-1
1528442217593898,0,1,-1,0,-2,-1,-1,1
1528442217593898,-1,0,-1,-1,-1,0,0,0
1528442217594894,0,-2,-1,-1,0,-1,-1,-1
1528442217594894,-1,-1,1,-1,0,-1,-1,0
1528442217609181,-2,-2,-1,0,1,-1,0,-1
1528442217609181,-1,-1,-1,0,-1,0,-3,-1
1528442217610194,0,-1,-2,-1,0,0,0,-1
1528442217610194,-1,-2,-1,1,-1,-1,-1,-1
1528442217631152,1,-1,1,-2,1,1,-1,-1
1528442217631152,0,-1,0,0,-1,-2,0,-1
1528442217632114,-1,0,-1,-1,0,1,0,-1
1528442217632114,0,0,-1,0,-1,-1,0,-2
1528442217654055,-2,1,-2,0,-1,-1,0,0
1528442217654055,1,0,0,0,0,-2,0,-1
1528442217655315,-1,-2,0,1,-1,-1,-1,0
1528442217655315,0,-2,-1,0,-1,-1,-1,1
1528442217669016,1,-1,0,-2,-1,1,0,-2
1528442217669016,-1,-1,0,-1,-1,-1,0,-1
1528442217670016,-1,-1,0,0,1,-2,1,1
1528442217670016,0,-1,-1,-1,-1,-1,-1,0
1528442217683159,0,0,0,0,0,-1,-2,0
1528442217683159,0,-2,-2,0,-2,-1,0,0
1528442217691138,1,0,-1,0,-1,-1,0,0
1528442217691138,-1,-1,0,0,0,1,-1,-2
1528442217706105,0,-1,-1,-1,-2,0,-2,-2
1528442217706105,2,-1,0,-1,0,1,-1,-2
1528442217712903,0,-1,-1,-1,-3,-2,-1,-2
1528442217712903,1,-1,-1,-1,0,-1,-1,1
1528442217729858,0,-1,-1,-2,0,1,-1,1
1528442217729858,0,0,-2,-1,-1,-1,-1,0
1528442217736842,-1,-2,-2,0,2,0,0,0
1528442217736842,-1,-2,0,-2,-1,-2,0,-2
1528442217744821,-2,-2,0,0,0,-1,-1,0
1528442217744821,-2,0,-1,0,-2,-1,-1,0
1528442217759034,-1,0,0,-2,0,1,0,-2
1528442217759034,-2,0,0,-1,0,-1,0,0
1528442217766022,0,-1,-1,-1,-1,-1,-1,-2
1528442217766022,-1,0,-1,-1,-1,-2,-2,1
1528442217773720,-2,-1,0,0,-1,-2,-1,0
1528442217773720,0,1,-2,-2,-1,0,-1,-1
1528442217788687,0,-1,-1,-1,-1,-1,-2,-1
1528442217788687,-1,-1,-1,-2,1,0,-3,0
1528442217796662,0,-1,0,-1,-1,-1,-2,0
1528442217796662,0,-1,0,-1,0,0,-1,0
1528442217811621,0,-1,-2,1,-2,-2,0,0
1528442217811621,-2,0,-1,-1,-2,0,0,-2
1528442217811621,0,1,0,0,0,0,-1,1
1528442217811621,0,0,-2,0,0,-1,-1,-1
1528442217825584,-1,-1,-2,0,-1,-1,1,0
1528442217825584,0,-2,-1,0,0,-1,-1,0
1528442217833775,-1,-1,0,-3,0,-1,-2,-2
1528442217833775,0,-1,-1,-2,-2,-1,0,-1
1528442217848769,-1,-1,0,0,0,-1,-2,-3
1528442217848769,-1,-1,-2,0,0,-1,0,0
1528442217856719,0,0,0,-1,-1,-1,0,-1
1528442217856719,-1,0,-1,-1,0,0,0,-1
1528442217863839,0,-1,0,-1,0,0,0,0
1528442217863839,0,-1,-2,0,0,-1,-2,0
1528442217870683,0,0,-1,0,-1,-1,-2,-1
1528442217870683,-2,0,-2,0,-1,-1,0,0
1528442217885884,-1,-1,0,-1,0,1,0,-2
1528442217885884,-1,-1,0,-1,0,0,-1,0
1528442217901845,0,0,-1,-1,-2,-1,-1,-2
1528442217901845,-1,0,-1,0,0,0,-1,-1
1528442217907830,0,-1,-1,-2,0,0,2,1
1528442217907830,0,-2,-1,0,1,0,0,0
1528442217916920,0,-1,-2,-1,0,0,0,-1
1528442217916920,-1,0,-1,-1,-1,-2,-1,-2
1528442217931992,1,0,-1,0,0,-2,0,-1
1528442217931992,0,0,0,-2,-2,-3,-1,-1
1528442217931992,0,-1,0,0,-1,0,-1,2
1528442217931992,-1,-2,0,-1,-1,0,-3,-1
1528442217945958,-1,0,0,-1,-2,0,-1,0
1528442217945958,-1,-2,1,0,0,-1,0,0
1528442217953455,-1,0,-1,0,0,0,-1,0
1528442217953455,-1,0,1,-1,-2,0,1,0
1528442217967960,0,0,-1,0,-2,-2,-1,-1
1528442217967960,-1,-1,-1,-1,-3,0,0,0
1528442217977020,0,0,0,-2,-2,-2,0,0
1528442217977020,2,-1,-3,0,0,1,-2,0
1528442217990899,-1,1,-2,-1,-2,0,0,0
1528442217990899,-1,1,-2,0,-1,0,-2,-2
1528442217991897,-2,-1,-1,-1,-2,0,0,-3
1528442217991897,1,-1,1,0,-1,0,1,-1
1528442218006196,-1,-1,-1,-1,1,0,-1,-1
1528442218006196,0,0,-1,-1,0,-2,2,-2
1528442218013291,0,0,0,0,-1,1,-1,0
1528442218013291,-2,0,-2,-2,-1,-1,-1,-1
1528442218028496,-1,-1,0,0,0,-1,0,0
1528442218028496,0,-1,0,0,-1,1,0,0
1528442218036489,-1,-1,-1,-1,0,-1,-1,0
1528442218036489,0,-1,-1,-2,1,0,-1,-1
1528442218051301,-1,-1,-3,0,0,0,-3,0
1528442218051301,-2,1,-1,-2,-1,-1,-2,-1
1528442218052285,-2,-1,0,-1,-1,-2,1,0
1528442218052285,0,-2,-2,-1,-4,-1,-1,0
1528442218065251,0,-2,-1,0,-2,-1,1,-2
1528442218065251,-1,0,0,1,0,0,-1,-2
1528442218073610,0,-2,-1,-1,-1,0,-1,0
1528442218073610,-2,-1,0,0,0,-1,-2,-1
1528442218088822,0,-1,0,-1,-2,-1,-1,0
1528442218088822,-1,0,-1,-2,0,1,0,-1
1528442218096589,0,-1,0,-1,0,1,-1,-2
1528442218096589,-3,-2,-1,0,-1,-1,0,0
1528442218111791,-2,-2,-1,-1,0,0,0,0
1528442218111791,-1,-1,0,1,0,-2,-1,0
1528442218112545,0,-1,-2,-1,0,-3,-2,-1
1528442218112545,1,-2,-2,0,-1,-1,-1,0
1528442218125755,1,0,-2,-2,0,-2,0,0
1528442218125755,-1,-2,0,-1,-1,-1,-1,-1
1528442218133729,-2,-2,-1,-1,-1,0,-1,0
1528442218133729,0,1,1,-1,-1,1,-1,0
1528442218148697,-1,1,0,0,-1,0,-1,0
1528442218148697,0,0,-2,-1,0,-1,-3,-2
1528442218156913,-2,0,-1,-1,0,0,0,2
1528442218156913,-1,0,0,-1,0,-1,1,0
1528442218171881,-1,0,1,-2,-2,-1,-1,0
1528442218171881,0,0,-1,-1,-1,0,1,0
1528442218171881,0,0,-2,-1,0,0,0,-1
1528442218171881,-2,0,-1,0,2,-2,-1,0
1528442218185608,-1,-1,-1,0,0,-1,-1,1
1528442218185608,1,-2,0,-1,-1,-2,1,0
1528442218192830,-2,0,-1,-3,-1,-1,-2,1
1528442218192830,-1,-1,-2,-1,0,-2,1,0
1528442218209547,0,-1,-1,0,0,1,-2,-1
1528442218209547,-2,-1,-1,-1,-2,-1,-1,0
1528442218217052,1,0,1,0,-1,-1,-1,0
1528442218217052,1,0,0,-1,-2,0,-1,-2
1528442218238988,-1,-1,0,1,0,0,1,1
1528442218238988,1,0,0,-1,0,-1,0,0
1528442218239997,0,0,0,1,-1,-1,1,-1
1528442218239997,0,-1,-1,-2,0,0,-1,0
1528442218245970,-1,-2,-1,0,1,-1,1,-2
1528442218245970,1,-1,-1,0,-2,0,-2,-2
1528442218261665,-1,-1,-1,-2,0,-1,0,-2
1528442218261665,1,0,0,-1,-1,-1,1,-1
1528442218268636,-2,-3,-1,-2,-1,-1,0,-1
1528442218268636,-1,0,1,0,-1,0,-1,0
1528442218276478,0,0,0,0,-1,0,0,0
1528442218276478,1,-1,-1,-1,-1,-1,-1,0
1528442218291207,0,1,-1,-1,-1,-1,-3,0
1528442218291207,0,-1,-1,0,-1,-2,0,0
1528442218292196,0,0,-2,0,0,-1,0,-1
1528442218292196,-2,0,-1,-1,-1,0,-2,-2
1528442218306444,1,-1,-1,-1,-1,0,1,-1
1528442218306444,0,-3,0,0,-1,-1,0,-1
1528442218313183,-1,-1,-1,-1,-2,1,0,0
1528442218313183,0,-2,0,-1,0,1,1,-1
1528442218328400,-1,0,-1,-1,1,0,-1,0
1528442218328400,-2,-1,-2,-1,0,-1,0,-2
1528442218344445,0,-1,1,-1,0,-2,1,-1
1528442218344445,0,-2,-1,0,-1,-1,-1,0
1528442218351652,-1,1,-1,0,-3,-1,-2,0
1528442218351652,1,0,0,0,-1,-1,-2,0
1528442218352703,-1,0,-1,0,-1,-1,0,-1
1528442218352703,-2,-2,0,0,0,-1,-1,0
1528442218365740,0,0,-2,-2,-1,2,0,0
1528442218365740,-1,-1,-1,-1,-1,0,-1,0
1528442218373373,-1,0,-1,-1,0,-1,-1,0
1528442218373373,0,0,-1,-1,0,-1,0,-1
1528442218388286,-1,0,1,-1,-1,-1,0,-1
1528442218388286,0,-2,-1,-1,-1,-1,0,0
1528442218396264,-1,-1,-1,-1,0,1,-2,-1
1528442218396264,-1,1,-1,1,0,1,-1,0
1528442218411226,0,-1,-1,-2,-1,-1,-4,-2
1528442218411226,0,-1,-3,-2,1,0,-1,0
1528442218412221,0,1,1,1,-2,-2,-3,0
