timestamp,emg1,emg2,emg3,emg4,emg5,emg6,emg7,emg8
1529290275850094,-3,-3,-5,-5,-7,-11,-12,-4
1529290275850094,-3,-2,-3,-8,-14,-11,-11,-6
1529290275851088,-1,-1,0,0,0,0,-1,-3
1529290275851088,0,0,1,2,10,9,1,-1
1529290275851088,-1,2,2,3,7,7,4,1
1529290275851088,-1,-1,-1,-2,0,-2,-2,0
1529290275853083,-2,-3,-2,-6,-8,-12,-5,-3
1529290275853083,-3,-3,-5,-6,-10,-12,-7,-3
1529290275857075,-4,-3,-3,-7,-9,-7,-3,-3
1529290275857075,-2,-1,-1,-2,-9,-12,-5,-3
1529290275863059,2,1,3,6,5,16,9,5
1529290275863059,0,-1,0,5,14,-4,-1,0
1529290275873030,-5,-4,-7,-11,-10,-17,-13,-6
1529290275873030,0,2,-1,2,-9,30,9,-1
1529290275887991,0,-3,3,5,24,12,6,2
1529290275887991,2,3,3,0,-5,2,-4,-4
1529290275892977,0,-3,-1,9,8,5,10,8
1529290275892977,0,-1,2,3,13,-7,2,3
1529290275916913,-2,-1,-6,-5,-7,-4,-7,-6
1529290275916913,-4,-7,-6,-11,-4,-4,3,1
1529290275917912,0,0,-2,-5,-13,-20,-8,-4
1529290275917912,0,0,-3,-8,-9,5,-3,0
1529290275957804,-4,-4,-2,-4,-14,-44,-15,-7
1529290275957804,-3,-3,-3,-5,5,-6,-17,-7
1529290275958801,1,3,4,2,-10,4,2,-2
1529290275958801,0,1,5,13,18,38,19,3
1529290275961793,7,8,7,11,40,39,17,8
1529290275961793,1,-3,3,1,-1,-15,2,11
1529290275962792,-8,-11,-10,-12,-16,-23,-8,-7
1529290275962792,-3,-8,-11,-17,-42,-56,-29,-3
1529290275967777,-7,-5,-1,5,12,27,24,1
1529290275967777,7,4,3,-1,9,25,14,2
1529290275975756,5,5,7,23,34,42,12,6
1529290275975756,6,8,11,7,8,-8,-1,3
1529290275983736,-3,-3,-4,-15,-27,-36,-23,-11
1529290275983736,-7,-9,-14,-13,-25,-28,-25,-9
1529290275998694,2,2,0,-3,1,12,15,2
1529290275998694,-8,-3,-2,9,33,18,3,-11
1529290276005676,10,-1,-1,-9,-32,-45,-18,6
1529290276005676,-2,7,8,-1,-12,24,0,-6
1529290276029613,-4,-9,-6,2,18,15,9,1
1529290276029613,-3,2,5,15,24,36,9,0
1529290276030611,12,6,4,3,10,22,2,7
1529290276030611,1,-4,1,-4,-18,-29,3,4
1529290276043576,-13,2,-1,-7,-23,-39,-37,-46
1529290276043576,-7,-14,-20,-8,2,5,8,-2
1529290276057538,-20,-8,-8,2,7,4,22,0
1529290276057538,10,2,-5,0,18,23,6,0
1529290276066514,-3,-3,-1,-9,-14,-22,-22,-6
1529290276066514,1,-5,-8,-16,-36,-29,-8,-1
1529290276068507,-6,0,5,3,2,11,3,-7
1529290276068507,-10,-18,-24,-4,0,-8,-5,-4
1529290276089453,-1,-5,-7,-8,-10,-8,-1,3
1529290276089453,-3,-4,-16,-16,-9,-3,2,-2
1529290276090450,-4,-7,-15,-9,-12,3,-5,1
1529290276090450,1,11,24,36,40,28,13,2
1529290276102417,5,2,-1,7,11,5,6,10
1529290276102417,-3,-4,-4,-1,-1,-3,-5,-3
1529290276111393,6,-6,1,-6,0,8,0,1
1529290276111393,-17,-14,-19,-22,-12,-17,-6,-16
1529290276126353,6,-10,-36,-34,-27,-15,-1,18
1529290276126353,-2,14,8,4,-2,-4,0,-2
1529290276128347,0,2,4,11,14,9,0,-1
1529290276128347,6,2,1,4,-5,-2,1,5
1529290276149292,2,1,3,1,-3,3,5,11
1529290276149292,-6,-2,-5,-3,-3,-2,-7,-22
1529290276150289,2,7,12,8,-1,-6,-6,-1
1529290276150289,1,0,-2,-3,-2,3,4,1
1529290276162258,-24,1,-2,-9,-1,-2,-5,-12
1529290276162258,10,0,3,-10,-10,-13,-11,7
1529290276171233,-2,3,8,6,7,12,9,-5
1529290276171233,12,9,23,3,1,2,4,9
1529290276186193,-11,-2,21,18,8,6,3,-18
1529290276186193,0,-4,8,9,4,-1,-3,1
1529290276188188,-1,-13,-9,-25,-10,-11,-10,-2
1529290276188188,1,-15,-5,-6,-4,-3,-3,6
1529290276209132,6,-10,-2,4,4,2,2,5
1529290276209132,0,-6,-15,-20,-6,0,0,0
1529290276223094,-5,9,-10,3,-6,-9,-10,-9
1529290276223094,2,2,-5,-2,3,0,0,3
1529290276224093,-9,-9,-8,-4,-3,-2,-5,-17
1529290276224093,18,-3,10,8,2,0,3,7
1529290276232072,-36,0,14,5,2,2,-7,-24
1529290276232072,6,-14,2,-2,-7,-2,0,1
1529290276247032,0,-15,-13,-7,2,4,3,9
1529290276247032,15,-11,-16,-5,-5,-1,0,17
1529290276248029,-43,-18,-20,-18,-8,-5,-4,-27
1529290276248029,-22,14,5,0,-4,-6,-5,-10
1529290276268973,10,27,23,3,1,0,-2,2
1529290276268973,-8,-5,3,0,-2,-2,-2,-2
1529290276270968,18,1,-3,-5,-3,-2,0,12
1529290276270968,-22,-12,-4,0,-3,-4,-2,4
1529290276282936,13,11,8,7,5,1,2,14
1529290276282936,39,9,17,6,1,4,5,23
1529290276291912,20,5,12,7,-1,-2,-2,4
1529290276291912,-16,-17,-28,-15,-8,-2,2,-6
1529290276306870,15,7,-10,-1,8,10,13,18
1529290276306870,-14,6,-3,0,-1,-2,-3,-14
1529290276307869,103,7,-30,-4,-1,3,0,38
1529290276307869,7,7,9,11,2,-3,0,5
1529290276328812,-8,-14,-13,-13,-6,-7,-6,-10
1529290276328812,-35,-6,-27,-19,-7,-5,-5,-19
1529290276330806,22,9,-1,-9,-6,-6,2,14
1529290276330806,-28,-2,11,6,2,-2,-11,-39
1529290276342776,44,4,4,15,7,7,9,14
1529290276342776,4,-3,15,8,4,4,1,9
1529290276351751,-20,-8,-2,2,0,-1,0,-1
1529290276351751,0,37,-22,-16,-7,-4,-1,3
1529290276366761,-33,-3,2,-1,-4,-5,-5,-17
1529290276366761,-13,-17,15,6,3,1,-3,-27
1529290276367723,-11,-23,-6,0,3,6,8,39
1529290276367723,-15,-26,8,10,4,2,0,-18
1529290276388667,24,10,6,1,2,2,0,8
1529290276388667,-3,6,-8,-4,-4,-6,-1,3
1529290276388667,-32,15,13,9,1,-1,-11,-10
1529290276388667,10,33,8,1,1,-1,2,3
1529290276410608,-14,28,4,2,0,-1,-4,-3
1529290276410608,-9,2,2,3,-1,0,-2,-5
1529290276411605,-10,-19,-3,-4,2,4,4,-2
1529290276411605,0,-21,1,-4,0,-3,-1,-5
1529290276433580,6,-20,12,5,-3,-6,-6,-20
1529290276433580,6,13,10,7,6,8,8,6
1529290276434547,13,4,-3,0,-5,-5,2,1
1529290276434547,9,-2,-1,4,-3,-7,-6,11
1529290276456503,-19,-4,-9,-5,-7,-6,-3,0
1529290276456503,-2,9,-4,-5,3,3,2,1
1529290276457483,-12,-8,-21,-28,-12,-11,-17,-26
1529290276457483,15,-4,2,9,4,2,3,8
1529290276470483,-15,-5,-4,0,4,4,9,4
1529290276470483,4,2,5,8,-1,-1,-5,-3
1529290276471445,5,30,3,6,-2,-4,16,1
1529290276471445,9,45,-6,-11,-5,-1,-5,7
1529290276493387,-33,4,7,-1,-5,-3,1,0
1529290276493387,-4,-18,3,-3,-3,-10,-15,-30
1529290276494384,38,21,-2,2,3,8,20,34
1529290276494384,-3,52,-9,-6,-4,-4,-15,6
1529290276508348,5,66,-9,-1,3,4,-2,10
1529290276508348,16,16,-2,0,2,8,10,11
1529290276509345,-12,-34,3,2,-2,-5,-8,-28
1529290276509345,-1,-53,5,4,3,-1,12,7
1529290276531284,6,-63,-9,-6,-6,-4,-10,-4
1529290276531284,-4,-51,3,-1,-7,-10,-5,-7
1529290276531284,-13,-63,28,10,5,1,-9,-2
1529290276531284,2,-86,-13,-5,-2,3,0,1
1529290276546245,-2,-63,4,-2,-6,-10,-12,-13
1529290276546245,-5,-22,-8,-1,4,4,9,5
1529290276546245,-8,-101,3,6,7,6,-2,-4
1529290276546245,-16,-93,5,-3,-8,-17,-8,-13
1529290276568192,24,-14,0,-6,-12,-15,-20,-30
1529290276568192,-37,32,-4,4,16,28,2,22
1529290276569185,5,108,6,13,14,11,6,-1
1529290276569185,5,90,-5,0,3,15,16,1
1529290276591125,-2,79,5,-1,-2,-11,0,5
1529290276591125,-11,64,-17,-7,-9,-5,-2,-5
1529290276592123,-16,66,3,-5,-8,-15,-32,-22
1529290276592123,11,44,11,13,5,9,4,8
1529290276606086,-5,34,-9,-4,0,4,7,4
1529290276606086,3,22,-14,-22,-7,-9,-12,-10
1529290276607083,-11,24,3,5,-2,-3,4,-6
1529290276607083,6,27,-3,-5,-6,-9,2,-4
1529290276628059,-7,13,8,7,6,8,2,9
1529290276628059,10,-4,15,6,-2,-6,-7,-8
1529290276629025,-3,-8,-12,-13,-9,-9,2,-3
1529290276629025,-9,7,-3,-9,-14,-19,1,-5
1529290276650966,1,1,-3,6,6,17,31,21
1529290276650966,4,9,13,8,7,-3,-6,-8
1529290276651962,-14,-12,-21,-8,-14,9,26,4
1529290276651962,-1,10,2,1,9,13,-13,-17
1529290276665972,-15,-4,-10,-4,-6,-15,-21,-15
1529290276665972,12,-34,-4,11,32,45,43,41
1529290276666972,-5,11,13,11,15,4,-24,-4
1529290276666972,-1,-20,-12,-7,2,13,28,16
1529290276687867,-23,14,0,4,-3,2,29,-6
1529290276687867,7,-5,-4,0,-2,-4,-8,12
1529290276688864,1,8,-12,-5,-4,-9,-15,-5
1529290276688864,5,-11,-1,-9,-11,-13,-17,-8
1529290276710806,-8,-8,-1,-9,-11,-16,-10,-2
1529290276710806,1,15,19,16,0,-7,-6,-3
1529290276711804,1,-2,-10,-13,-1,0,-4,-17
1529290276711804,8,3,-4,8,-2,-3,-11,-1
1529290276733745,11,5,-6,-12,0,5,0,1
1529290276733745,-7,9,-1,-3,-13,-18,-10,-11
1529290276733745,2,-5,-3,4,-1,-2,-3,-2
1529290276733745,-7,11,-3,-8,1,-1,0,2
1529290276748705,7,-18,8,-5,-2,3,-6,2
1529290276748705,-3,-12,-10,-19,-20,-12,-2,-5
1529290276748705,-8,17,8,19,12,0,6,2
1529290276748705,2,-4,2,-12,-11,-5,-5,-4
1529290276771644,4,-1,-2,27,19,3,1,3
1529290276771644,2,16,-3,18,2,-1,-5,-4
1529290276771644,1,-30,-19,-77,-50,-13,-3,-1
1529290276771644,-2,12,12,9,5,-4,-10,-5
1529290276785606,8,10,12,4,5,7,1,3
1529290276785606,-12,-11,-27,-6,-2,-6,0,1
1529290276786604,2,10,11,26,21,9,3,5
1529290276786604,12,7,5,6,2,1,-2,4
1529290276808589,-4,4,0,-3,-2,-2,16,5
1529290276808589,-1,-1,17,14,7,3,2,-5
1529290276809588,-2,3,-3,4,0,-1,-2,1
1529290276809588,-3,3,0,-19,-5,-3,-11,-2
1529290276831533,5,-8,-17,3,5,7,7,9
1529290276831533,3,15,3,-10,-4,-2,2,-4
1529290276831533,-6,5,10,3,-5,-3,-1,-6
1529290276831533,-3,9,-1,13,8,4,1,-4
1529290276845862,-6,-13,-11,-19,-9,-3,-4,-2
1529290276845862,-4,0,0,-9,-8,-5,-2,-1
1529290276846667,-3,1,1,4,3,-1,-4,-18
1529290276846667,-4,0,6,6,5,0,1,-2
1529290276868814,3,-1,9,0,-4,-2,-9,-4
1529290276868814,4,3,0,-8,-11,-10,-10,-4
1529290276868814,2,1,-15,-7,1,-1,9,8
1529290276868814,2,2,0,3,6,2,2,8
1529290276890869,-17,-10,-3,-6,1,2,-8,-13
1529290276890869,6,-2,5,-3,-6,-2,-2,2
1529290276891870,-1,16,17,20,6,-3,-8,-1
1529290276891870,-12,-4,-11,-9,-5,-2,-2,-8
1529290276906113,-13,2,5,-1,-2,-1,0,-4
1529290276906113,-5,-2,7,1,5,5,6,9
1529290276907105,17,-6,-2,0,-1,3,3,-3
1529290276907105,0,-12,-7,-8,-4,1,-1,-1
1529290276937162,12,-6,8,5,2,-4,-5,0
1529290276937162,-45,-1,-4,-4,0,-4,-7,-24
1529290276937162,11,-17,-9,-1,0,1,2,7
1529290276937162,-6,-11,-4,2,1,2,5,2
1529290276950929,8,-31,-16,-8,-4,-1,-8,4
1529290276950929,4,-5,1,-2,-3,-3,0,4
1529290276951900,-9,-6,-1,-1,-2,-2,-5,3
1529290276951900,-5,-2,-4,-2,2,-1,0,-5
1529290276973518,15,13,5,2,0,2,-2,-7
1529290276973518,0,-4,-16,-5,-4,-4,-5,-4
1529290276974762,6,5,-1,-1,-4,-4,-1,0
1529290276974762,-7,-4,-5,-9,-2,3,-2,-7
1529290276988652,7,-5,2,10,0,-2,-3,-2
1529290276988652,8,6,-3,3,0,0,0,0
1529290276989652,-9,-2,13,3,1,1,-6,-6
1529290276989652,10,4,-5,-2,-9,-10,2,19
1529290277010902,-8,-13,-3,-4,2,1,-2,1
1529290277010902,-32,-13,3,2,4,11,11,-14
1529290277011900,-1,-18,-10,-6,-1,0,-12,0
1529290277011900,5,6,10,3,1,-2,-3,2
1529290277033850,10,9,2,-1,-8,-8,-1,9
1529290277033850,-17,-13,0,3,2,-6,-12,-29
1529290277033850,11,-5,-4,-1,0,0,7,8
1529290277033850,-4,-4,-6,-8,-2,-6,-2,4
1529290277049771,-11,-5,2,-1,-2,3,6,0
1529290277049771,9,4,3,-8,-6,-9,-6,1
1529290277050803,-11,-9,-2,2,2,4,16,9
1529290277050803,19,-14,5,10,9,15,10,3
1529290277071014,-1,1,-4,-3,1,1,-6,-2
1529290277071014,13,-11,-13,-7,-4,-5,-2,11
1529290277071715,-12,3,-1,2,-5,-10,-5,-9
1529290277071715,9,-3,0,0,-3,0,-10,7
1529290277093747,-11,-4,-3,-8,-5,2,21,2
1529290277093747,15,1,-3,6,9,5,-3,8
1529290277093747,-17,-16,-6,-9,-6,-6,-9,-14
1529290277093747,-3,2,-5,0,-2,-8,5,-8
1529290277107689,24,16,8,5,-1,-14,-31,8
1529290277107689,-2,-27,-13,-7,7,27,33,14
1529290277116065,-33,4,-6,4,5,-3,10,2
1529290277116065,13,-21,9,18,22,41,25,-7
1529290277131011,20,-16,-5,-1,1,-1,-34,6
1529290277131011,-5,5,-4,-4,-8,-13,-38,-13
1529290277132049,5,7,2,-2,-6,-10,-17,0
1529290277132049,-9,3,5,3,-3,-5,6,1
1529290277153100,-16,-9,1,1,-4,-6,-7,-15
1529290277153100,6,-15,5,-4,-6,-10,0,-1
1529290277153953,4,-21,2,-4,-2,5,1,-4
1529290277153953,-6,9,-2,-3,-5,-13,-21,-10
1529290277176891,2,16,15,2,-2,3,15,3
1529290277176891,1,9,-12,-11,-15,-18,1,-2
1529290277176891,-2,-11,3,11,20,19,3,-8
1529290277176891,3,-5,-2,1,5,4,2,4
1529290277191042,-4,-5,-2,0,6,8,11,-4
1529290277191042,0,23,5,4,-1,0,9,2
1529290277192039,-1,3,-11,-8,-14,-21,-21,-3
1529290277192039,6,7,-7,0,-3,3,18,16
1529290277213362,1,-6,-2,1,1,0,-10,-7
1529290277213362,1,0,-6,-11,-8,-8,-13,-2
1529290277214193,5,-5,-10,-3,-2,-1,-10,-6
1529290277214193,-18,1,-1,-4,-7,-9,-18,-4
1529290277237324,9,-1,-3,-7,-4,-3,-4,-11
1529290277237324,8,4,16,9,4,11,11,10
1529290277237324,7,9,11,4,3,6,10,15
1529290277237324,-3,-10,0,-4,-5,-4,-3,-3
1529290277251315,-14,-4,-3,-4,-2,-7,-10,-15
1529290277251315,0,4,-5,-2,0,-2,-12,-2
1529290277252348,18,-1,5,-3,-4,4,16,9
1529290277252348,-2,-1,-4,-2,-3,-12,-29,-17
1529290277273948,15,6,1,4,5,14,29,33
1529290277273948,-2,-3,2,4,4,5,5,-2
1529290277273948,-7,3,0,-1,-2,3,11,2
1529290277273948,-4,3,-1,-4,-9,-14,-11,-11
1529290277296837,-8,3,-8,-3,-1,-6,-7,6
1529290277296837,0,-17,-9,-4,1,3,7,3
1529290277296837,-2,-7,-4,3,5,14,11,2
1529290277296837,2,-18,-6,1,3,-1,-1,-6
1529290277310773,-17,-9,-7,-4,-5,-5,16,-11
1529290277310773,-6,-19,4,1,-1,-5,-18,-4
1529290277311772,10,-10,4,-2,-5,-5,1,1
1529290277311772,-16,4,2,-3,-4,-7,-24,-21
1529290277333456,13,-11,4,-1,-2,2,3,5
1529290277333456,-3,-8,1,-3,-5,-14,-5,-2
1529290277334176,5,-11,3,0,-1,0,-2,0
1529290277334176,-19,2,4,0,-2,-2,10,-4
1529290277357281,11,1,-4,-3,0,-2,2,17
1529290277357281,4,-2,-1,-1,-2,-1,0,-2
1529290277357281,-6,1,-4,-2,-4,-3,-1,-4
1529290277357281,-1,-5,1,3,2,8,10,-1
1529290277371362,-15,-11,-3,0,-1,0,-6,-11
1529290277371362,6,-14,1,0,1,3,9,9
1529290277372075,-6,3,-1,-2,-1,-4,-2,-2
1529290277372075,6,2,-1,0,0,3,4,7
1529290277393020,-9,-17,-7,-5,-4,-3,-3,-7
1529290277393020,7,-3,-2,0,-3,-2,-2,0
1529290277394014,-5,-4,-1,-4,0,-2,-5,-4
1529290277394014,8,-6,0,-2,1,1,0,3
1529290277423598,-7,-5,-3,0,1,0,-5,-6
1529290277423598,-3,6,-3,-3,-1,-3,-3,-4
1529290277424599,-1,0,-1,2,2,-1,-3,-2
1529290277424599,4,-4,-2,0,-5,-2,3,3
1529290277430585,-4,-5,-2,-3,-5,-7,-3,-2
1529290277430585,2,-11,0,2,3,8,5,0
1529290277431580,2,-8,-1,0,1,2,-1,-2
1529290277431580,3,-5,0,-4,-1,-1,-1,3
1529290277453526,-6,2,-5,-7,-6,-8,-12,-10
1529290277453526,1,6,1,1,-1,-3,-1,-1
1529290277454522,-5,-7,-2,-1,-3,-5,-6,-4
1529290277454522,0,-4,0,-1,1,10,17,3
1529290277476040,-1,-10,-1,6,5,2,3,-2
1529290277476040,3,-4,0,0,2,2,-2,2
1529290277483733,0,-2,-1,-1,-3,-1,-1,-1
1529290277483733,1,1,-6,-5,-4,-9,-10,-4
1529290277491144,-3,0,-3,-4,0,-3,0,-1
1529290277491144,4,-2,-6,-2,-2,-3,1,13
1529290277491954,-4,-4,-2,1,-1,-3,-3,-1
1529290277491954,3,2,1,2,2,0,-1,1
1529290277514018,-2,-9,2,2,5,6,6,2
1529290277514018,-4,-1,2,-1,-3,-4,-3,-3
1529290277514018,-2,-11,0,-4,-3,-2,-6,-3
1529290277514018,-1,0,0,-6,-8,-10,-3,-2
1529290277536615,0,4,3,1,1,2,-3,7
1529290277536615,-3,-4,0,3,4,6,8,-7
1529290277537432,1,10,-2,-4,-2,-1,0,0
1529290277537432,-7,-5,-6,-2,-1,-1,-1,-5
1529290277550522,-6,1,-7,-3,-8,-9,-11,-9
1529290277550522,6,20,2,2,-1,-3,0,3
1529290277551393,4,21,-1,1,-1,0,0,-1
1529290277551393,1,-3,1,1,1,2,3,3
1529290277581483,-2,5,-1,-1,-2,-1,-5,-5
1529290277581483,-8,-10,-3,-4,-3,-1,0,-3
1529290277582310,-2,118,-2,3,3,0,-3,-2
1529290277582310,1,105,-3,-1,-3,-4,-3,0
1529290277604479,3,2,-5,0,2,7,11,2
1529290277604479,9,-69,-6,1,1,0,-3,0
1529290277604479,0,-128,-6,-1,-3,-3,-6,-3
1529290277604479,-3,-128,-6,2,1,3,6,5
1529290277610465,-4,-93,0,1,0,-1,-1,-3
1529290277610465,-4,-83,-2,-3,-4,-4,-6,-3
1529290277618441,2,-88,2,-3,-2,-2,2,16
1529290277618441,2,-73,-2,0,4,2,-1,-3
1529290277633798,6,-57,-2,-2,0,-2,-6,-2
1529290277633798,-2,-36,-6,-2,1,4,7,1
1529290277634609,1,-33,-7,-2,-1,-3,-6,-3
1529290277634609,-4,-39,-7,-4,-4,-5,-6,-4
1529290277656717,-3,-20,-1,-2,-1,0,5,2
1529290277656717,3,-3,-6,-5,-8,-8,-3,-2
1529290277658781,-7,-10,-2,-1,2,5,7,-3
1529290277658781,-1,-18,2,2,7,7,10,7
1529290277671505,-3,-3,3,3,2,2,-1,-4
1529290277671505,-4,6,1,-2,-3,-1,-2,-3
1529290277672103,-1,-9,6,0,-2,-3,-3,-4
1529290277672103,2,-11,5,-3,-5,-5,-6,-4
1529290277694127,0,2,7,-4,-3,-6,-1,-1
1529290277694127,-4,2,8,-3,0,-1,0,-1
1529290277694127,1,-6,-1,0,1,2,2,-1
1529290277694127,-1,-5,4,2,0,2,-2,1
1529290277717062,-2,1,13,0,0,1,1,0
1529290277717062,-3,1,18,0,-3,-2,-8,-7
1529290277717062,-1,-3,17,-2,-2,-1,-2,-4
1529290277717062,-1,-2,-11,-3,-4,-3,-3,-2
1529290277730987,-1,-1,-19,-3,-6,-3,-3,-3
1529290277730987,-2,1,27,0,-2,-2,-4,-6
1529290277731984,0,-1,12,2,6,8,9,4
1529290277731984,-1,-4,34,2,3,1,-1,0
1529290277754035,0,-52,24,0,1,-2,0,0
1529290277754035,-2,-74,46,-2,-2,-1,-2,-1
1529290277754035,-3,-91,52,-2,-5,-7,-10,-5
1529290277754035,-1,-85,20,-5,-5,-7,-1,-3
1529290277776556,-2,-54,-5,0,0,1,0,0
1529290277776556,-1,-32,-42,2,4,4,4,4
1529290277777378,-2,-19,-46,-1,0,0,0,-1
1529290277777378,-2,-9,-39,0,1,2,-6,-2
1529290277791340,0,3,-32,-1,-4,-3,-2,-2
1529290277791340,0,7,-37,-2,-3,-2,-3,-2
1529290277791340,-1,12,-27,-2,-1,1,1,-1
1529290277791340,0,8,-19,-1,-2,-3,2,-1
1529290277814282,-2,14,-9,0,0,-1,-6,-6
1529290277814282,-2,16,-14,-3,-1,-1,-3,0
1529290277815280,0,17,-5,7,0,-2,-2,0
1529290277815280,1,15,-4,4,1,0,1,3
1529290277836306,1,15,-4,-6,-2,-1,2,2
1529290277836306,-2,21,-5,2,-1,-2,-2,-2
1529290277837304,-1,12,-17,-25,-4,-1,1,0
1529290277837304,-1,2,4,-1,0,-2,-1,-1
1529290277851271,0,7,4,7,2,-2,0,1
1529290277851271,-1,8,-5,2,-1,0,-1,1
1529290277851271,-1,7,2,9,1,0,1,-1
1529290277851271,-8,4,-1,-4,-2,0,-4,-4
1529290277881185,5,8,-1,-2,0,1,5,4
1529290277881185,1,5,0,-1,-1,-2,-3,-1
1529290277882183,0,4,-1,0,-1,0,-1,0
1529290277882183,-3,2,-1,-2,-1,-1,0,-1
1529290277896194,-3,4,4,0,0,-1,-2,1
1529290277896194,-2,2,-2,-1,-1,0,7,1
1529290277897145,-3,1,-3,-3,-5,-2,-2,-3
1529290277897145,1,3,-3,-3,-3,-3,0,-3
1529290277910110,-2,5,3,0,0,1,4,1
1529290277910110,0,8,1,-4,0,-3,0,-2
1529290277918087,0,7,1,0,-2,-2,-1,-3
1529290277918087,1,11,2,-1,-3,-1,-2,-2
1529290277933082,-2,11,3,-4,-2,-1,-4,-6
1529290277933082,-2,10,1,-2,-1,1,-3,-3
1529290277942053,-1,9,3,2,-2,2,-5,-6
1529290277942053,-1,7,1,-3,1,0,-3,-1
1529290277956985,-3,5,-1,-1,-1,0,-6,-6
1529290277956985,-2,5,-1,0,-1,-1,-5,-4
1529290277957982,-2,3,0,-3,-1,-2,-4,-2
1529290277957982,1,6,1,-1,1,-1,-2,0
1529290277969950,-2,4,-3,0,-1,-2,-3,0
1529290277969950,0,4,-2,0,0,-2,-2,2
1529290277978926,0,5,-1,2,0,-2,-2,2
1529290277978926,0,5,-1,0,-3,-1,-2,2
1529290277992888,-2,5,-2,0,0,0,-2,1
1529290277992888,-3,4,-2,-2,0,0,-2,0
1529290278001869,-1,4,-3,-1,0,0,-2,2
1529290278001869,-2,0,-3,-2,0,0,0,-1
1529290278016824,-2,2,-1,0,-2,-2,-1,1
1529290278016824,-1,1,-1,-1,-2,1,0,0
1529290278017822,0,2,-1,-1,0,-1,0,0
1529290278017822,-3,0,0,0,1,1,0,-1
1529290278029790,-2,3,0,0,-2,-2,1,-3
1529290278029790,-3,3,-1,-2,-1,-1,0,-2
1529290278038766,-1,1,-1,0,-1,-3,1,-4
1529290278038766,0,1,0,-2,-2,-3,2,1
1529290278052729,-1,1,-2,-1,0,-1,-1,1
1529290278052729,1,1,0,-2,1,-3,-1,0
1529290278061705,0,0,0,-2,0,-1,0,1
1529290278061705,0,0,-1,-1,-1,-2,0,-3
1529290278076665,-1,-1,-2,-1,-2,0,0,-3
1529290278076665,1,-2,-3,-2,0,-1,-1,-2
1529290278078660,-1,-1,-2,-3,-1,-1,-2,-4
1529290278078660,0,-3,-1,-1,-1,0,0,-1
1529290278090627,-2,-2,2,-1,0,-1,-2,-1
1529290278090627,-1,-2,0,-1,-1,0,0,0
1529290278099603,-2,-1,0,0,-1,0,0,0
1529290278099603,-2,1,0,0,-2,-1,-1,0
1529290278112568,-2,-2,-1,-1,-2,-3,-2,-2
1529290278112568,-1,0,-1,-2,-2,-1,0,-4
1529290278121545,-1,0,1,0,-1,-1,0,-4
1529290278121545,-2,0,-1,0,0,-2,-2,-3
1529290278136504,-1,-1,-1,-1,-1,-1,0,0
1529290278136504,-1,-2,-2,1,-2,-2,0,1
1529290278138498,-1,-2,-1,0,0,-2,0,-1
1529290278138498,0,-2,-1,-2,-1,-3,0,0
1529290278159442,2,-1,1,-1,0,1,-2,0
1529290278159442,-1,-1,1,0,-2,0,-2,1
1529290278160439,0,0,-1,-2,-1,1,-1,1
1529290278160439,0,-2,-1,-1,-2,-2,-1,0
1529290278173439,-2,-2,-1,0,0,0,-1,1
1529290278173439,-1,-2,0,-1,-1,-1,-1,-1
1529290278180387,-2,-4,0,-1,0,-1,1,-1
1529290278180387,-1,0,-2,0,-3,-1,-1,1
1529290278195347,-1,0,0,-2,-2,-2,0,0
1529290278195347,-2,-2,-3,0,-2,-1,-2,0
1529290278204323,0,1,-2,-2,-2,0,-1,0
1529290278204323,0,-1,-1,-1,0,-1,0,-2
1529290278210487,1,-2,-2,-1,-3,-1,0,-3
1529290278210487,1,1,-2,-1,-1,0,0,-2
1529290278219284,-1,-2,0,-1,-1,-2,0,-2
1529290278219284,0,-2,0,-1,-2,1,0,0
1529290278233426,0,0,0,0,-1,-1,-2,-2
1529290278233426,-1,-2,0,-1,-1,0,0,0
1529290278240227,-1,-2,-1,-1,0,0,-2,-3
1529290278240227,-1,-2,-2,0,-2,0,0,0
1529290278256187,0,1,-1,-1,-1,-1,0,-1
1529290278256187,0,0,-1,0,0,-2,-2,-1
1529290278258179,0,0,-1,0,-1,-1,-2,0
1529290278258179,-3,0,0,0,0,-1,0,-2
1529290278270217,-1,-1,-1,0,1,-2,-3,-2
1529290278270217,-1,-3,1,-1,-3,-1,-1,0
1529290278279191,-1,-3,-1,0,-2,-1,-1,0
1529290278279191,-2,-2,-2,-3,-1,-2,-2,-1
1529290278293155,-3,-2,-1,-2,-1,-1,-1,-1
1529290278293155,0,0,-2,-1,0,-2,0,-1
1529290278300477,-2,-1,0,1,-2,-2,-2,1
1529290278300477,0,0,0,-1,-2,0,0,-2
1529290278316228,-1,-1,-1,-1,0,-1,-1,1
1529290278316228,-3,-2,0,-1,0,-2,-2,-2
1529290278318223,-1,-2,-3,-3,-1,-2,-3,1
1529290278318223,0,-4,-2,-1,-1,0,0,-1
1529290278330644,-2,0,-1,-1,-2,-1,-1,0
1529290278330644,-3,0,-1,-1,-2,-1,1,-3
1529290278339433,0,-1,-2,0,-2,-1,-1,-2
1529290278339433,-2,0,0,-3,-1,-1,-1,-2
1529290278353396,-1,-2,-2,-1,0,0,-2,-2
1529290278353396,-1,-2,0,-1,-1,1,-1,1
1529290278360412,-1,-1,0,-1,0,-2,-1,-1
1529290278360412,0,1,-1,-1,-1,-2,-2,0
1529290278376551,0,-1,-1,-1,-1,0,0,0
1529290278376551,-1,-1,-1,0,-1,-1,-1,-1
1529290278378359,-1,0,-1,-2,-2,-1,2,-2
1529290278378359,-2,-1,-1,0,-2,-2,0,-1
1529290278399482,0,-1,0,-1,-2,-1,-1,-2
1529290278399482,-1,0,-2,-2,-1,-3,-1,-1
1529290278400419,0,0,-2,-1,-1,-1,-2,-3
1529290278400419,0,-2,-1,0,-1,-1,-3,1
1529290278413268,0,-1,0,1,-1,-3,0,-1
1529290278413268,-2,-1,-2,-1,-1,-1,-2,-1
1529290278420250,-2,-1,0,-1,1,-2,0,0
1529290278420250,-1,-2,1,-2,1,-1,-2,0
1529290278436614,-1,-2,0,-1,-1,0,-1,2
1529290278436614,2,-1,-2,-1,-1,-1,0,1
1529290278438199,1,-2,-2,0,0,-1,-2,0
1529290278438199,0,0,-2,-1,-1,-2,0,-1
1529290278459442,-2,0,-1,-1,-1,-2,-1,-1
1529290278459442,-4,0,0,1,1,-2,0,-3
1529290278461348,-1,0,0,-2,-1,-1,-2,-2
1529290278461348,-2,1,-1,1,-2,-3,-1,0
1529290278473109,1,-1,-2,-3,-1,-1,-3,-1
1529290278473109,-2,0,-2,-2,-2,-1,0,-1
1529290278482084,-1,-2,-1,-1,-1,-1,-1,-3
1529290278482084,0,0,0,-2,-2,0,0,-2
1529290278497118,-1,-2,0,-2,-2,-1,-1,-2
1529290278497118,1,-3,0,-1,-1,1,-2,-1
1529290278498117,0,-2,-1,0,-2,0,-2,1
1529290278498117,-1,-1,-2,-2,0,-3,0,-2
1529290278519807,-1,-1,-2,-1,1,-1,0,-1
1529290278519807,-1,0,-2,-1,0,-1,-1,-2
1529290278520667,-2,-2,-1,0,-2,-1,0,-2
1529290278520667,-2,-1,-2,-1,-1,0,-2,-2
1529290278533439,0,-1,-1,-1,-2,0,0,-2
1529290278533439,-2,-1,-1,-3,0,0,-1,-1
1529290278542022,-2,-1,-2,0,-2,-1,0,1
1529290278542022,0,-2,0,-1,-1,0,0,0
1529290278556981,0,-1,-1,0,0,-1,0,0
1529290278556981,0,-1,0,-2,-1,-1,-2,0
1529290278557977,1,1,-2,-2,-1,-2,-1,0
1529290278557977,1,-1,-1,-1,-2,-2,0,-1
1529290278579090,-3,0,-1,-1,-2,-2,-1,-1
1529290278579090,-1,-1,0,1,-1,0,-2,-1
1529290278580917,-2,-1,-2,-1,-1,-1,-2,1
1529290278580917,-1,-1,-1,-1,-1,1,-3,-1
1529290278592887,0,0,-1,-1,-2,0,-2,1
1529290278592887,-1,0,-3,-1,-3,-2,0,-1
1529290278601861,-1,-1,0,0,-2,0,-1,0
1529290278601861,0,0,0,0,-1,0,-2,0
1529290278617120,-1,-3,0,-1,-3,-1,-2,-1
1529290278617120,-1,0,-2,-1,0,-2,-1,1
1529290278617817,-3,-2,-1,0,0,-1,-2,-1
1529290278617817,-1,0,-2,-1,0,-2,-1,-2
1529290278639359,-1,-1,-1,-1,0,-2,-1,-2
1529290278639359,-1,-2,-1,-1,-2,0,-1,-3
1529290278641031,-2,1,-1,-2,-2,-1,0,0
1529290278641031,-2,-3,-2,1,-3,-1,0,1
1529290278653177,-2,0,-1,-1,-1,-3,-1,-1
1529290278653177,0,-2,-3,-1,0,-1,0,-1
1529290278661974,-1,-1,-1,-1,-1,0,-2,0
1529290278661974,-3,-3,-2,-1,-1,1,0,-1
1529290278677184,0,-1,-2,1,-3,0,-2,0
1529290278677184,-1,-2,0,0,-1,-1,-1,-1
1529290278678146,0,-1,-1,-2,-1,-1,0,-2
1529290278678146,-1,0,0,0,-2,1,-1,-1
1529290278699248,0,0,-2,-2,-1,1,-1,1
1529290278699248,0,0,-1,-1,-2,-2,-2,0
1529290278701084,-1,-2,-3,0,-1,-1,0,-1
1529290278701084,-2,-1,-1,-1,1,-2,0,-1
1529290278713051,-2,0,-2,0,0,0,-1,-2
1529290278713051,-1,-2,-1,-1,-1,-1,1,0
1529290278722220,-1,-1,0,-3,-1,-2,-2,-2
1529290278722220,-1,-1,-2,-2,-1,-1,-2,0
1529290278737170,0,-2,-2,-2,-1,0,-1,0
1529290278737170,-1,-1,-2,-3,1,-1,0,-1
1529290278738013,0,-1,-1,-1,-2,1,0,-1
1529290278738013,-3,0,-2,-3,-4,0,0,-1
1529290278759109,0,-1,0,-2,-1,-1,-1,-1
1529290278759109,0,-3,0,-2,-2,-1,-1,0
1529290278760924,-2,-2,-1,0,0,-1,-2,0
1529290278760924,-3,-1,-1,-1,-1,-2,-3,-2
1529290278773423,-3,-1,0,1,-2,-2,-1,-3
1529290278773423,-2,-1,0,-1,-2,1,-1,-1
1529290278782092,-1,-1,0,-2,-2,-1,0,-3
1529290278782092,0,-2,0,-1,-1,-1,-2,-3
1529290278796106,-1,-1,-1,-1,-1,-3,-1,0
1529290278796106,-2,-1,0,-1,-1,-1,-1,-3
1529290278798098,0,0,0,0,-2,0,0,-2
1529290278798098,-1,1,1,-2,0,-1,-1,0
1529290278819294,-2,-2,-1,-1,-1,0,-1,1
1529290278819294,0,-1,-3,-1,-1,-2,-2,-1
1529290278821037,-2,-1,-1,-1,-1,-1,1,0
1529290278821037,0,-2,0,0,-1,-1,0,-1
1529290278833307,-2,-2,-1,-2,-1,-1,0,-1
1529290278833307,-1,-1,-2,0,0,0,-2,0
1529290278842309,-1,-1,-3,-1,-1,-2,-2,0
1529290278842309,-1,0,-2,-1,-2,-2,-2,0
1529290278856538,-2,-1,0,-1,0,-1,-1,-2
1529290278856538,1,-1,0,0,-1,-2,0,-1
1529290278858456,1,-2,-1,-1,0,0,0,-2
1529290278858456,-1,-3,-1,-2,0,-2,-1,0
1529290278878752,0,-1,-1,-1,-1,-1,-1,-1
1529290278878752,-2,-1,-2,0,-2,0,-3,-3
1529290278880748,0,0,0,0,-1,-2,-1,0
1529290278880748,-2,0,-2,-1,-1,-1,-1,-1
1529290278893045,-2,0,0,-2,-1,0,-1,-1
1529290278893045,0,-2,-1,-1,-2,-1,-1,0
1529290278902024,-1,-3,-1,-2,-2,-1,0,0
1529290278902024,-2,0,-1,-1,-1,-1,0,0
1529290278916185,0,0,-1,0,-1,-1,0,-1
1529290278916185,0,0,-1,-1,-2,-2,-1,1
