timestamp,emg1,emg2,emg3,emg4,emg5,emg6,emg7,emg8
1528440896582403,-1,1,0,0,-1,0,0,0
1528440896582403,-1,-2,0,0,-2,1,1,0
1528440896593374,-1,0,-1,-1,-1,0,0,0
1528440896593374,-2,-1,0,0,-1,-1,0,0
1528440896594373,0,-2,-1,-1,0,1,0,-1
1528440896594373,0,0,-1,0,-1,-1,-1,-1
1528440896596367,0,-1,-1,0,-1,-1,-2,1
1528440896596367,0,-1,-2,0,0,0,-1,0
1528440896613321,-1,1,-2,0,0,-1,-3,0
1528440896613321,-1,-1,0,0,-1,0,1,0
1528440896617311,-1,-1,-1,1,2,-1,0,-1
1528440896617311,0,1,-1,-3,-1,-1,-2,0
1528440896619304,0,-1,-2,-2,-1,-2,0,-1
1528440896619304,-1,0,0,-3,-1,-2,-3,-1
1528440896635264,0,-2,-1,0,-1,0,-1,-2
1528440896635264,-1,-1,1,0,-1,1,-2,-1
1528440896644239,1,1,-1,-1,-2,0,1,-1
1528440896644239,0,-1,0,-1,-1,0,0,-3
1528440896650222,-1,0,-1,0,-1,-1,0,-1
1528440896650222,-2,-1,-1,1,0,-2,-1,-2
1528440896672164,-1,-1,0,-1,1,-1,-2,0
1528440896672164,-1,-1,-1,0,0,0,0,0
1528440896674160,0,1,-1,-2,-2,-2,-1,0
1528440896674160,0,-1,-3,-1,0,-1,-1,-1
1528440896680144,-1,-1,-1,0,-1,-1,0,-1
1528440896680144,-1,-1,-1,0,0,-1,-2,0
1528440896696099,-1,0,0,-1,0,-1,-1,-1
1528440896696099,-1,0,-1,0,-1,-1,1,1
1528440896733999,0,0,-1,-1,-1,-2,0,0
1528440896733999,-2,-2,-2,0,1,-1,-1,0
1528440896733999,-1,-1,-1,-2,-1,0,-2,-1
1528440896733999,0,-1,-2,-1,0,0,0,0
1528440896734996,-2,1,-2,-1,-2,1,-1,-1
1528440896734996,0,0,-1,-1,-1,-1,-2,-1
1528440896740982,-1,1,-1,-1,-1,-2,0,0
1528440896740982,0,0,1,0,-1,0,-1,0
1528440896745966,0,-1,0,0,0,-1,-1,0
1528440896745966,-1,1,-1,-1,-1,0,1,-1
1528440896754942,-1,-1,1,1,0,1,0,-2
1528440896754942,0,0,-3,0,-1,-2,-1,-1
1528440896760926,-1,-1,-1,-1,0,-2,0,0
1528440896760926,-2,0,-1,-1,-2,0,0,0
1528440896775886,-1,-1,0,-2,-1,-2,0,0
1528440896775886,-1,-2,0,0,-1,-1,1,-1
1528440896783876,1,-2,-1,0,-1,-1,-1,-2
1528440896783876,-1,1,-1,2,0,-1,-2,-1
1528440896792842,0,1,0,0,-1,-1,-1,0
1528440896792842,0,0,-1,0,0,-2,-1,0
1528440896814782,0,-1,-1,-1,-1,2,-1,0
1528440896814782,-1,-1,-1,0,0,0,0,-1
1528440896815780,-1,-2,0,0,0,0,1,-1
1528440896815780,-2,1,2,-1,-1,0,-1,-1
1528440896820766,-1,-1,0,-2,0,-2,-2,0
1528440896820766,0,0,-1,-1,-1,-2,1,-2
1528440896837722,-2,-1,-2,1,-1,0,-2,-1
1528440896837722,-1,-2,0,-2,-1,0,-1,-1
1528440896843707,-1,0,0,0,0,-1,-1,-1
1528440896843707,-1,-2,2,-1,1,-1,0,0
1528440896852680,0,0,-1,-1,0,-1,-1,1
1528440896852680,0,0,-1,0,-1,-1,-1,-1
1528440896865647,-1,-1,1,0,-1,-1,0,-2
1528440896865647,0,1,1,0,0,-2,-2,0
1528440896874622,-1,-1,-2,0,-1,0,1,-2
1528440896874622,-1,0,-4,-2,0,0,-1,0
1528440896880607,0,1,-1,-2,0,0,-1,0
1528440896880607,-1,-1,-1,-1,-1,-1,0,-1
1528440896895594,0,1,0,-1,-1,-1,-2,-1
1528440896895594,-1,0,1,0,0,-2,1,0
1528440896903545,-1,0,-1,0,-1,-1,-1,0
1528440896903545,1,0,-2,-1,-2,-1,-2,-2
1528440896912563,-1,-1,-1,-1,0,-2,-2,0
1528440896912563,-1,0,-1,1,-2,0,0,-1
1528440896925487,0,0,1,-1,0,-1,0,-2
1528440896925487,0,0,-1,-1,-1,1,-1,-1
1528440896934491,-1,-1,-1,0,-1,0,-1,0
1528440896934491,0,-2,0,-1,0,-2,0,-1
1528440896940447,0,0,-3,0,-1,-1,0,0
1528440896940447,-2,-1,-2,-1,-1,-1,1,0
1528440896955407,-1,-2,-1,-1,-2,-2,0,0
1528440896955407,-1,-1,0,-2,1,0,-1,-2
1528440896963386,-1,-1,0,1,0,-1,-1,0
1528440896963386,0,-1,1,1,-1,-1,-1,0
1528440896978346,0,-1,-1,0,0,-2,0,0
1528440896978346,1,-2,-2,-2,0,-2,-3,-1
1528440896985354,-1,-1,-1,-2,0,-1,0,0
1528440896985354,-1,1,-1,-2,-1,0,1,-1
1528440896995300,-2,-1,-2,1,-1,-1,0,0
1528440896995300,-1,-2,0,0,0,0,0,0
1528440897000339,-1,0,1,-1,-2,0,0,-2
1528440897000339,0,-3,1,0,0,0,0,0
1528440897016273,0,-1,0,-2,0,0,-1,-1
1528440897016273,-4,1,-2,0,0,0,0,-1
1528440897023282,-1,-1,-1,-1,-1,1,-2,0
1528440897023282,0,0,0,-1,-1,0,1,-1
1528440897038215,0,0,0,-1,-1,-2,-1,-1
1528440897038215,-1,-3,-1,-1,-2,-1,0,0
1528440897046202,0,0,-1,0,1,0,0,-1
1528440897046202,-2,0,-1,-1,-1,-1,-2,-1
1528440897055140,1,-1,0,-1,0,1,0,-1
1528440897055140,-1,1,-1,0,-1,-1,-1,-1
1528440897061123,0,-1,1,-2,-1,0,-2,-1
1528440897061123,1,-2,-2,1,-1,-1,-1,0
1528440897076121,1,0,0,0,0,1,1,-1
1528440897076121,-1,-2,0,0,-1,-1,-1,1
1528440897083077,0,-1,-2,0,-2,-1,0,-1
1528440897083077,1,-1,0,-1,-1,0,-2,0
1528440897098026,-1,0,0,-2,-1,-1,0,-1
1528440897098026,1,-2,-1,-1,-1,-1,-1,0
1528440897106005,0,-1,-1,-1,0,0,0,-1
1528440897106005,1,-1,-2,-1,0,-2,0,0
1528440897114982,-2,0,-1,-1,0,-1,0,-1
1528440897114982,-1,1,-2,0,0,-1,-1,0
1528440897120966,-2,-1,0,0,-1,-1,0,-1
1528440897120966,-1,-2,2,-1,0,-2,-1,0
1528440897135925,0,-1,0,0,-2,-1,-1,0
1528440897135925,1,-1,0,-1,1,0,1,-1
1528440897142907,0,-1,-1,0,-2,-2,0,-1
1528440897142907,-1,0,-1,0,-2,0,-2,-1
1528440897157919,0,0,-2,0,-1,-1,-1,0
1528440897157919,1,1,-1,-1,-1,0,-1,-1
1528440897165884,-2,1,0,-1,-1,-1,-1,0
1528440897165884,-1,-1,0,0,-1,-2,0,-1
1528440897174821,-2,-1,0,-1,-1,-1,0,0
1528440897174821,0,-1,0,-2,-2,0,0,-2
1528440897180804,-2,0,-1,0,0,-1,0,-1
1528440897180804,-1,1,-1,1,-1,-1,1,-2
1528440897195804,-1,-1,0,-3,1,1,-1,0
1528440897195804,-2,-1,0,2,0,-1,0,1
1528440897203756,0,1,0,-1,-1,-1,-1,-1
1528440897203756,-1,0,-1,0,-1,0,0,0
1528440897217706,-2,0,-2,-1,0,-1,0,-1
1528440897217706,-1,-2,-1,-1,0,0,-1,0
1528440897225684,3,-3,-2,-1,1,-1,0,1
1528440897225684,-1,0,-1,-1,0,0,0,-2
1528440897234661,-1,0,0,0,-3,0,0,0
1528440897234661,-2,0,-1,-1,-1,-2,-1,-2
1528440897240645,-1,0,-1,0,-1,1,0,-1
1528440897240645,0,-2,-3,-1,1,0,0,-1
1528440897255640,-2,-1,0,-1,0,-1,0,-1
1528440897255640,-1,-1,0,0,0,-1,0,0
1528440897263582,-2,-1,0,-2,0,-1,-1,1
1528440897263582,1,-2,2,0,-1,0,-1,-1
1528440897278542,-2,0,-1,0,0,-1,-1,-1
1528440897278542,-1,0,0,-1,0,-1,-1,0
1528440897285525,0,-1,-1,-2,0,0,-1,2
1528440897285525,-1,-1,0,-1,0,0,1,1
1528440897294499,0,-2,-1,0,0,0,1,-2
1528440897294499,0,-1,1,0,-2,-2,-1,-2
1528440897309462,0,1,-1,1,0,-2,-1,-1
1528440897309462,-2,-1,-2,0,0,0,0,0
1528440897315446,1,-1,-1,0,0,-1,-1,1
1528440897315446,0,-1,-1,-1,0,0,0,0
1528440897323424,-1,0,-1,1,-1,-1,0,-1
1528440897323424,0,2,0,-2,-1,0,-1,-1
1528440897338422,1,-1,0,0,1,-1,-2,-1
1528440897338422,-1,-1,-1,0,-1,-1,-4,-1
1528440897345410,1,-1,-1,-1,-1,0,-1,-2
1528440897345410,-1,-2,-1,0,-2,-1,-2,-1
1528440897354368,-1,0,-1,0,-2,-1,-1,-1
1528440897354368,0,-1,-2,-2,-1,0,0,-1
1528440897369301,-1,-1,-1,0,0,0,0,0
1528440897369301,-1,-1,-1,0,0,-2,0,-1
1528440897376359,-1,0,-1,-1,1,-1,0,0
1528440897376359,0,1,0,0,0,-1,0,-1
1528440897383299,-3,1,-2,-2,-2,0,-2,-2
1528440897383299,-1,-1,0,-1,0,-1,-2,0
1528440897398238,0,0,0,-1,-2,-1,-2,-1
1528440897398238,0,-1,-2,-2,0,0,1,1
1528440897406343,-1,-2,0,0,1,-1,-1,-1
1528440897406343,-2,-1,-2,-2,0,0,0,1
1528440897414510,-1,0,-1,-2,-3,-1,-1,0
1528440897414510,-1,1,0,0,-1,1,0,0
1528440897429471,0,0,1,-1,0,-1,-2,-2
1528440897429471,0,-1,-1,0,-1,-2,-1,0
1528440897435456,-1,-1,-1,-1,0,-1,-1,-2
1528440897435456,-2,-2,-1,0,-1,0,-1,0
1528440897443434,-2,-1,-2,0,-1,-2,1,-1
1528440897443434,0,1,0,-1,-1,0,-1,-1
1528440897458539,-1,-2,1,0,0,-1,-1,-1
1528440897458539,-1,-1,0,-1,-1,-1,0,1
1528440897466420,-1,1,0,0,0,0,0,1
1528440897466420,0,-1,-2,0,1,-1,0,-2
1528440897474596,0,-1,-1,-1,0,1,0,-1
1528440897474596,0,2,1,-1,0,-1,-1,-2
1528440897488900,0,-2,-1,-1,0,-1,-1,-1
1528440897488900,-1,1,1,0,0,-1,0,0
1528440897495882,1,0,1,1,0,0,1,-1
1528440897495882,-1,-2,-1,1,-1,-1,-1,0
1528440897503881,0,0,-1,0,0,0,0,-1
1528440897503881,-1,0,-1,-2,-1,2,-1,-1
1528440897518690,0,-2,-1,0,0,0,1,-1
1528440897518690,-1,1,-1,-2,-1,0,-1,0
1528440897525672,-1,0,-1,-1,0,-1,-1,0
1528440897525672,-2,-1,-1,0,-1,0,-3,1
1528440897534663,0,-2,-1,-1,0,-2,-2,0
1528440897534663,-1,2,-2,0,0,-1,-1,-2
1528440897548633,-1,-1,3,-1,0,1,0,-1
1528440897548633,0,0,-2,-1,-2,-2,1,-2
1528440897555639,-1,-1,-1,-2,-1,1,-1,0
1528440897555639,0,-2,0,-2,-1,-1,-2,-2
1528440897563571,0,-1,-3,-1,1,0,0,1
1528440897563571,-2,-2,0,-1,0,0,1,0
1528440897578589,0,0,-1,-2,0,-2,-1,-2
1528440897578589,0,-1,0,-1,1,-1,0,0
1528440897585567,0,0,-1,-2,-2,1,0,-2
1528440897585567,0,0,0,-2,-2,-1,-2,-2
1528440897594525,-1,-1,-1,0,-1,0,-1,1
1528440897594525,-1,-2,-2,-2,0,1,-1,1
1528440897609481,-2,-1,-2,-2,-1,-1,-1,-1
1528440897609481,1,-1,-1,0,-1,0,0,-1
1528440897615432,-1,0,3,0,-2,-1,0,-2
1528440897615432,-1,-1,-1,1,-1,-1,-1,-1
1528440897623412,-2,0,1,0,0,-3,-1,1
1528440897623412,-2,0,0,-2,0,-1,0,-2
1528440897638373,0,0,-1,0,0,0,0,0
1528440897638373,-1,1,-2,-1,-1,0,-2,0
1528440897645353,1,1,-1,0,-2,0,1,-1
1528440897645353,0,0,0,-1,1,0,-1,-2
1528440897654329,0,0,-1,0,0,0,-2,-1
1528440897654329,-2,-2,1,-1,0,-1,1,-1
1528440897669289,-1,0,0,-1,-1,1,-1,-1
1528440897669289,-1,0,-1,0,-1,-3,0,-2
1528440897676291,-2,0,-2,-2,0,0,-1,0
1528440897676291,0,1,-1,-3,-1,-1,-1,-1
1528440897683288,1,0,1,-1,0,0,0,-1
1528440897683288,-1,-1,0,0,0,-1,0,0
1528440897698239,-2,0,-1,0,-2,-2,0,-1
1528440897698239,-2,-1,-1,-2,-1,0,1,0
1528440897706244,0,-2,-2,0,0,0,0,0
1528440897706244,0,0,-2,-1,0,-1,-2,-1
1528440897721151,0,0,-1,-1,1,-1,-1,-1
1528440897721151,0,-2,0,0,-2,-1,-1,-2
1528440897729129,0,-1,-1,-1,0,2,-1,0
1528440897729129,0,-1,-2,1,0,0,0,1
1528440897744089,-1,-3,-1,1,0,0,-2,1
1528440897744089,-1,0,-1,-2,0,0,1,-2
1528440897745087,0,0,-1,-1,-1,-2,-2,0
1528440897745087,-1,-1,-1,-1,-2,1,-1,-1
1528440897758052,0,0,0,-1,0,-1,-1,-2
1528440897758052,0,-1,1,0,-1,-1,1,0
1528440897766031,1,0,0,0,-1,-1,-1,-3
1528440897766031,-1,0,0,-1,-2,-1,-1,-1
1528440897780991,-1,-1,-2,0,-2,0,1,0
1528440897780991,-1,-1,-1,-1,-1,-1,-1,0
1528440897788969,-2,0,-2,-1,-1,0,1,0
1528440897788969,-1,0,0,0,-1,-1,1,-1
1528440897803929,-1,-1,0,-1,-1,0,-1,-1
1528440897803929,1,-1,-1,0,0,0,0,-2
1528440897804927,0,-2,-1,0,-1,1,0,-1
1528440897804927,1,-1,-2,-2,-1,-1,1,0
1528440897817950,0,-2,0,-2,-1,-1,0,1
1528440897817950,-1,0,-1,-2,-1,0,-1,0
1528440897825870,2,-2,-1,1,-1,-1,-2,-1
1528440897825870,-3,-1,0,1,-2,-1,0,0
1528440897840974,0,1,-2,0,2,0,0,0
1528440897840974,-1,0,-1,0,1,1,0,0
1528440897848974,0,-2,-1,-1,-2,-1,-1,-1
1528440897848974,-1,-1,-2,-1,0,1,0,0
1528440897863769,-1,0,-1,0,0,-2,-1,0
1528440897863769,0,-1,0,0,-1,-2,-1,-1
1528440897864766,-1,-1,-2,-1,-1,-2,0,0
1528440897864766,1,-1,1,-1,0,-2,-1,0
1528440897878864,-2,-1,-1,-1,-2,0,0,0
1528440897878864,0,-1,-2,0,1,-2,-1,0
1528440897885870,1,0,0,0,-1,-1,2,-1
1528440897885870,-1,-1,-2,-1,-1,0,-4,0
1528440897900817,-1,0,-1,0,-1,-1,0,0
1528440897900817,-1,-1,0,-1,-2,0,-1,-2
1528440897909017,0,1,-2,-2,-2,-2,-1,-2
1528440897909017,0,-2,-1,0,-1,1,-1,0
1528440897923812,1,0,0,-3,-1,-1,0,-2
1528440897923812,-1,-1,-2,1,-1,-1,0,0
1528440897924809,-1,0,0,0,-2,-1,-3,0
1528440897924809,-1,-1,-1,-1,-1,-2,0,-2
1528440897938805,0,0,0,0,0,-2,-1,0
1528440897938805,-2,-1,-2,-1,1,0,1,-2
1528440897945793,-1,-1,-1,-1,1,0,0,-1
1528440897945793,-1,0,-1,-1,0,-1,0,0
1528440897960755,0,-3,0,-2,-1,-2,-1,-1
1528440897960755,0,-1,1,-1,-1,-1,-1,1
1528440897968693,-2,0,-2,-1,0,-2,-1,0
1528440897968693,-1,-1,0,0,0,0,-1,0
1528440897983652,1,0,-1,-1,-1,1,1,0
1528440897983652,-2,-1,0,-1,-1,0,0,-1
1528440897984651,-1,-1,-1,-1,-1,1,-1,0
1528440897984651,0,-1,0,0,-1,-2,0,-1
1528440897998613,-1,-1,0,1,-3,0,-1,0
1528440897998613,1,1,-1,0,-1,0,0,0
1528440898005616,-3,0,2,0,0,-2,0,1
1528440898005616,0,-2,0,-2,-1,-1,0,-1
1528440898020557,0,0,-2,0,-1,-2,0,-2
1528440898020557,0,1,-1,0,-1,-1,-1,0
1528440898029564,-1,-3,-1,-1,-2,1,-2,-2
1528440898029564,-1,0,-2,0,0,-1,0,0
1528440898043493,-2,-1,-1,-2,0,-1,0,-1
1528440898043493,0,-1,0,0,0,0,0,-1
1528440898044522,0,-1,-1,-1,-1,-1,0,0
1528440898044522,-1,-2,0,-2,0,-2,0,0
1528440898058591,-1,-1,0,-1,-1,1,0,0
1528440898058591,-2,-1,0,0,-1,-1,-2,-1
1528440898065434,1,0,-1,0,-1,0,-1,-1
1528440898065434,-2,1,-1,-1,-1,1,1,1
1528440898080394,0,-1,0,1,0,-1,0,-1
1528440898080394,0,-1,-2,-1,-1,0,-1,-1
1528440898089373,-1,0,-1,0,0,1,2,-2
1528440898089373,-1,0,0,-1,-1,0,-1,0
1528440898104474,-2,-2,-1,0,0,-1,0,-1
1528440898104474,-2,0,-1,-1,1,0,-2,0
1528440898104474,0,2,-1,1,1,-2,-1,0
1528440898104474,1,-2,-1,0,-1,1,-1,-2
1528440898118453,-1,-1,0,-2,0,-2,-1,-1
1528440898118453,-1,-1,-1,-1,-3,0,-1,-1
1528440898126361,-1,0,-2,-1,1,-2,0,2
1528440898126361,-1,1,0,-2,-1,-1,-1,0
1528440898141371,-1,0,-2,-1,-1,1,-1,-1
1528440898141371,1,-1,0,-1,0,-1,-2,-2
1528440898149370,-1,-2,-1,0,0,-2,-1,0
1528440898149370,0,-1,-1,-1,0,-1,-1,-1
1528440898164171,1,1,-1,-1,-1,1,0,0
1528440898164171,0,-1,0,0,0,-3,0,-2
1528440898165336,0,0,0,0,0,1,-3,-2
1528440898165336,0,-1,-1,0,0,0,0,-2
1528440898178355,-1,0,-2,0,-2,-2,-1,1
1528440898178355,-1,-1,-3,0,0,0,0,0
1528440898185503,0,-1,1,-1,-2,1,0,-2
1528440898185503,-1,1,-2,-1,-1,-1,-2,0
1528440898200660,1,-1,-1,-1,0,0,-2,-2
1528440898200660,1,1,-2,-2,0,-1,-2,-1
1528440898209526,-2,-2,-2,0,0,0,-2,0
1528440898209526,-1,-1,1,-1,-2,0,-1,-2
1528440898223602,0,-1,0,0,-2,0,-1,-1
1528440898223602,-1,-1,-2,-2,0,-2,0,-1
1528440898231575,0,1,-1,-1,0,-1,0,-1
1528440898231575,-2,-1,-1,-1,-1,-2,-1,-1
1528440898238558,1,0,1,1,0,-1,-2,-1
1528440898238558,0,-1,2,0,-2,1,-1,-2
1528440898246419,0,-1,0,-1,-1,-1,-1,-1
1528440898246419,-2,-3,0,-1,0,0,1,1
1528440898261402,-2,0,0,-1,1,0,-2,0
1528440898261402,-2,-1,0,-1,-1,-1,-1,1
1528440898269349,-1,1,-1,-1,0,-1,1,-2
1528440898269349,0,0,0,2,-2,-1,-2,-2
1528440898283455,-2,-1,-2,-3,-1,0,0,-2
1528440898283455,1,-1,-2,-2,-2,-2,0,0
1528440898291429,-1,-2,0,-1,-2,-1,-1,1
1528440898291429,1,-1,-1,-1,0,0,0,-1
1528440898300266,0,-1,-1,-1,-2,-2,0,-1
1528440898300266,-2,0,-3,0,-2,-1,-2,0
1528440898306386,1,0,0,1,-2,0,-1,-1
1528440898306386,-1,0,-2,0,0,0,-1,1
1528440898321376,2,-3,-1,-2,0,0,0,-1
1528440898321376,-1,-2,1,-1,0,0,1,-2
1528440898329559,-2,-1,1,-2,0,-2,1,-2
1528440898329559,0,0,-1,-2,0,1,0,0
1528440898343519,0,0,-1,-1,-2,1,-1,-1
1528440898343519,0,1,1,0,-1,-2,0,0
1528440898351492,-1,-1,-1,1,-1,0,-1,0
1528440898351492,0,1,0,-1,-2,-1,0,-1
1528440898358478,0,0,-1,-1,1,-2,-1,0
1528440898358478,1,-2,-2,0,-1,0,-1,1
1528440898366452,-1,-2,-2,-4,-2,-1,-1,-1
1528440898366452,0,-1,-1,-1,0,-2,-1,-3
1528440898380429,-1,-2,1,0,-2,-1,-1,-1
1528440898380429,-1,0,0,0,0,1,-1,-2
1528440898389557,0,0,1,0,0,-1,0,0
1528440898389557,0,-1,-3,0,0,-1,-2,-2
1528440898403516,-2,0,0,0,-1,0,1,-1
