timestamp,emg1,emg2,emg3,emg4,emg5,emg6,emg7,emg8
1528448521212461,-2,-5,-4,-4,-12,-1,-8,-5
1528448521212461,3,1,3,3,27,30,13,2
1528448521213460,0,2,1,1,7,0,-15,-2
1528448521213460,1,2,4,11,7,21,7,0
1528448521214456,3,4,4,11,58,25,13,6
1528448521214456,-4,-3,-2,-2,-29,-14,-4,-2
1528448521215454,-4,-2,-5,-7,-36,-29,-12,-4
1528448521215454,-2,-1,-5,-9,-3,-22,-18,-4
1528448521220441,0,2,1,2,-9,-9,1,-1
1528448521220441,-3,-2,-3,-3,3,6,-3,-2
1528448521227421,-1,-1,-4,-16,-20,-29,-6,-3
1528448521227421,-5,-8,-5,-3,-11,5,0,-2
1528448521240386,1,2,4,5,-2,-3,-8,1
1528448521240386,1,0,1,-1,19,5,6,2
1528448521253399,-2,-3,0,1,-14,-6,5,1
1528448521253399,0,0,-1,-2,-3,-1,1,-2
1528448521255393,0,1,2,4,19,34,10,1
1528448521255393,1,-1,4,10,4,-4,-2,-1
1528448521279283,0,-1,2,6,27,21,13,5
1528448521279283,-1,-6,-8,-5,5,-1,-8,-1
1528448521319177,-3,-8,-2,8,22,20,4,3
1528448521319177,1,3,4,4,0,8,8,1
1528448521320221,-2,2,3,-2,0,-9,-8,-5
1528448521320221,-2,-2,-7,-3,-11,-2,-4,-5
1528448521321171,-4,-11,-11,-10,-8,-14,-3,-2
1528448521321171,0,-2,-1,1,10,3,4,0
1528448521324163,1,-2,0,6,10,15,12,4
1528448521324163,-2,0,0,-5,-7,-8,-7,-2
1528448521330147,0,0,2,-2,-11,-12,-16,-9
1528448521330147,-3,0,-2,0,0,1,-7,1
1528448521347103,7,6,5,1,-3,-2,1,3
1528448521347103,-2,-5,-1,1,11,6,4,-3
1528448521349125,-3,-1,-2,-5,-7,-2,0,-2
1528448521349125,-5,-5,-5,-12,-20,-27,-19,-7
1528448521361065,-4,-8,-5,-3,-8,-2,2,0
1528448521361065,1,1,5,13,17,20,13,6
1528448521370040,0,-3,-3,2,15,8,0,-4
1528448521370040,0,-2,-2,-2,-7,4,2,1
1528448521383005,-4,-2,-4,-5,-14,-10,-7,0
1528448521383005,-5,-5,-3,-3,8,-7,-8,-9
1528448521392979,2,6,3,6,1,10,13,8
1528448521392979,-1,-1,-2,1,2,2,-1,-4
1528448521415917,0,2,-2,-6,-8,-2,-6,-4
1528448521415917,-1,0,0,-3,-12,-12,-7,1
1528448521415917,0,2,1,-1,-4,-1,-1,-4
1528448521415917,0,1,0,3,11,3,4,1
1528448521429880,-2,-4,-3,-3,3,0,2,1
1528448521429880,0,2,0,9,2,3,-1,0
1528448521430877,0,1,1,2,4,0,-1,1
1528448521430877,-3,1,-7,-12,-22,-19,-12,-8
1528448521442846,-6,-8,1,2,11,7,8,1
1528448521442846,3,1,-3,3,11,19,10,4
1528448521452819,-2,-1,-1,-4,-6,-2,-5,-5
1528448521452819,-2,-3,1,4,7,4,-2,-1
1528448521465784,4,4,-1,-8,-8,-13,-10,-4
1528448521465784,0,0,1,-4,-10,-16,-9,-7
1528448521472765,-1,-4,-5,-2,1,4,8,8
1528448521472765,2,-5,-3,-4,4,4,0,0
1528448521489722,2,0,-4,-8,-13,-9,0,2
1528448521489722,-1,2,1,-4,-10,-21,-25,-14
1528448521490718,8,9,11,14,23,23,26,4
1528448521490718,-5,-2,2,0,7,13,26,20
1528448521502686,-4,-7,-3,3,9,10,2,2
1528448521502686,2,-2,-3,-6,-6,0,-1,0
1528448521512662,-5,-4,-7,-20,-28,-42,-40,-20
1528448521512662,-2,2,5,12,4,2,-4,-10
1528448521526656,-3,-2,1,7,11,14,15,6
1528448521526656,-2,-2,1,-3,4,8,7,9
1528448521533604,5,0,-4,-4,-3,-4,-4,-1
1528448521533604,-2,0,-5,-8,-16,-15,-11,-1
1528448521549561,-3,3,1,4,-3,-9,-19,-25
1528448521549561,-3,1,1,0,2,4,7,3
1528448521551555,-8,-6,0,-3,-6,-13,-34,-12
1528448521551555,4,-1,-8,-9,-14,-23,20,16
1528448521563526,1,1,3,-1,-9,14,6,8
1528448521563526,-1,2,2,14,32,24,31,10
1528448521572499,-2,-4,-4,3,11,25,31,17
1528448521572499,2,1,0,-4,12,7,-18,-11
1528448521586462,-2,-3,-6,-10,-18,-37,-40,-22
1528448521586462,-2,-3,2,-3,-13,-26,-22,-17
1528448521593483,4,8,12,14,15,52,59,35
1528448521593483,7,1,-5,0,9,19,21,7
1528448521624389,0,-4,12,1,-2,3,7,4
1528448521624389,-5,-5,-29,-16,-9,-19,-26,-16
1528448521626355,-5,-3,-10,-18,-31,-49,-34,-21
1528448521626355,-4,-6,4,12,-3,8,3,3
1528448521632340,-2,3,0,6,17,12,6,0
1528448521632340,2,3,4,-2,3,5,3,3
1528448521633337,-2,-1,-3,-6,-6,0,2,0
1528448521633337,-2,-3,-1,9,-8,-13,-14,-12
1528448521645304,-4,0,1,8,6,-11,-5,-1
1528448521645304,1,-2,5,3,0,21,14,7
1528448521654294,7,7,2,-1,6,14,9,6
1528448521654294,-3,-11,-6,-14,-5,-10,-23,-14
1528448521669242,-13,-7,-10,-10,-19,-26,-17,-10
1528448521669242,5,3,-3,-3,-2,10,34,17
1528448521671263,-8,-6,-3,0,2,-12,-14,-11
1528448521671263,2,5,11,14,10,18,4,3
1528448521692224,6,-1,-1,17,35,15,-2,0
1528448521692224,-2,-2,-2,-21,-34,-18,0,-10
1528448521693221,-2,-3,2,3,-9,-24,-9,4
1528448521693221,-6,-4,-16,-43,-24,3,9,2
1528448521705145,7,7,19,35,48,39,15,9
1528448521705145,4,7,10,8,4,-8,-15,-4
1528448521714142,-13,-26,-24,8,8,0,-9,-13
1528448521714142,2,7,17,50,39,3,-5,0
1528448521729081,3,-3,-6,-12,-23,-8,2,2
1528448521729081,1,7,17,-9,-11,-7,-8,-1
1528448521731076,-1,-2,-3,2,-4,-5,-2,0
1528448521731076,-1,5,4,19,10,7,1,1
1528448521752021,-1,-9,-20,-28,-13,-5,-2,-2
1528448521752021,0,0,13,19,1,2,2,5
1528448521754028,4,21,12,-19,-19,-8,-7,-5
1528448521754028,-9,-9,-40,-61,-40,-20,-10,-9
1528448521766019,-1,2,20,48,27,10,6,1
1528448521766019,-2,-28,-36,-8,2,-3,-6,1
1528448521774995,-2,8,10,-14,-6,1,-4,-3
1528448521774995,0,1,12,16,18,10,4,0
1528448521789919,1,8,-5,-37,-38,-19,-2,1
1528448521789919,-5,-5,-7,-8,-20,-14,-7,-6
1528448521790915,2,-12,3,26,34,26,9,5
1528448521790915,0,6,14,-2,-7,-5,-4,-3
1528448521811906,-9,-13,-38,-61,-48,-25,-8,-7
1528448521811906,-8,-15,13,62,40,16,0,-3
1528448521817898,-1,-4,-16,3,8,-2,-2,-4
1528448521817898,-1,10,-1,-22,-25,-15,-7,-4
1528448521825875,-2,0,3,1,3,1,0,0
1528448521825875,0,-1,14,-4,3,0,-3,-2
1528448521834799,-11,-34,-63,-46,-32,-14,-6,-5
1528448521834799,2,3,12,7,19,11,3,1
1528448521849759,-2,-5,-11,4,-14,-10,-6,-5
1528448521849759,4,14,-6,-19,-5,6,3,1
1528448521850760,8,19,25,15,3,-2,-2,6
1528448521850760,0,-10,10,11,7,-3,-3,-2
1528448521871700,0,4,-1,-8,-5,5,3,5
1528448521871700,2,0,3,2,1,-4,2,4
1528448521873695,-7,-2,2,-12,-13,-6,-3,-6
1528448521873695,0,8,0,4,-15,-14,-3,-2
1528448521885719,2,-1,10,23,31,19,5,1
1528448521885719,4,-1,-6,3,18,7,-2,0
1528448521900679,1,3,2,-7,-10,-6,-7,-6
1528448521900679,-2,-1,-7,-5,-7,-5,-2,0
1528448521909650,-1,-1,-3,4,7,3,6,4
1528448521909650,-7,-3,-2,-13,-15,-7,-1,-1
1528448521910648,4,8,9,7,9,3,-2,0
1528448521910648,0,-7,-4,8,3,1,-3,-2
1528448521931540,0,2,4,4,5,10,6,2
1528448521931540,-6,1,-9,-21,-17,-10,-16,-15
1528448521933535,2,-2,3,1,-11,-17,-3,7
1528448521933535,-1,-9,0,14,19,7,7,0
1528448521945502,3,4,2,-2,2,-1,-5,-3
1528448521945502,-4,3,-1,-3,-2,21,27,4
1528448521954478,-4,-4,0,2,-8,-1,3,3
1528448521954478,6,3,-1,0,6,9,5,8
1528448521969490,-7,-5,-10,-18,-8,-16,-2,-3
1528448521969490,-5,1,4,13,5,-3,-15,-13
1528448521971433,3,3,6,6,4,1,-10,-4
1528448521971433,-7,-9,-9,-17,-18,-8,1,-7
1528448521992527,1,3,4,3,-1,-1,3,6
1528448521992527,3,0,-1,-3,0,-2,-1,6
1528448521993374,-1,2,0,0,7,11,1,-1
1528448521993374,-2,-1,5,14,22,7,-10,-11
1528448522005342,0,-4,-4,-8,-13,-13,-9,1
1528448522005342,-11,-7,-5,-12,-13,-14,1,-3
1528448522014320,2,1,5,5,8,5,-9,6
1528448522014320,-1,-3,-7,-7,-9,-5,4,4
1528448522029280,1,2,2,4,10,20,24,4
1528448522029280,1,-3,-5,-8,-9,-19,-11,-2
1528448522031274,3,6,7,7,5,14,21,13
1528448522031274,-3,2,3,-6,-6,-2,7,3
1528448522052255,-3,-4,-8,-5,-14,-23,-25,-7
1528448522052255,2,1,5,2,5,5,-6,-9
1528448522053215,-4,-1,4,11,11,6,-7,-6
1528448522053215,-4,-4,-6,-8,-5,-6,-8,-9
1528448522065184,4,3,6,4,1,5,8,6
1528448522065184,1,1,-7,-19,-9,-4,2,5
1528448522074158,-5,-8,-12,-13,-22,-15,-2,-5
1528448522074158,0,2,7,34,30,14,6,6
1528448522089119,-2,1,7,-8,-17,-5,-8,-12
1528448522089119,-1,-3,-18,-9,14,12,3,3
1528448522095103,-1,-4,3,20,9,1,2,-3
1528448522095103,0,3,-6,-23,-23,-13,-6,-2
1528448522112162,-3,-5,5,16,16,5,0,-2
1528448522112162,3,5,5,-4,-8,-1,1,5
1528448522114053,1,2,-7,-16,-13,-9,3,0
1528448522114053,1,-1,-12,-35,-17,-6,-6,-1
1528448522126019,-6,-13,10,11,-9,-6,-4,-5
1528448522126019,8,14,29,76,84,47,20,12
1528448522134995,-6,-15,-10,-6,5,-4,-8,-10
1528448522134995,0,2,-2,-12,-26,-14,-6,-2
1528448522149956,0,2,-19,-28,-6,-3,2,1
1528448522149956,-2,-3,-4,-42,-58,-30,-9,-3
1528448522150953,-1,3,9,39,33,16,6,-3
1528448522150953,0,-5,-14,-5,14,4,-2,-1
1528448522179875,1,-3,9,10,-8,0,1,-2
1528448522179875,1,-5,-5,3,-1,-3,-3,-2
1528448522180889,1,6,0,-30,-11,-2,0,0
1528448522180889,-2,4,10,8,-23,-13,-5,-3
1528448522185902,-3,-1,-2,10,29,11,0,-4
1528448522185902,-6,-11,-14,-11,-8,-5,0,0
1528448522194836,0,6,1,-38,-44,-22,-4,-4
1528448522194836,2,-10,1,37,42,20,6,4
1528448522209837,-1,4,-2,8,12,8,2,0
1528448522209837,-2,0,1,2,-8,-7,-8,-4
1528448522210880,-4,-10,-16,-1,13,1,0,-2
1528448522210880,-2,-2,3,-12,-15,-6,-3,-3
1528448522231761,1,1,-1,8,10,2,0,-1
1528448522231761,0,2,-5,-21,-9,-3,-1,-2
1528448522233732,-2,4,21,21,-4,-5,-2,-3
1528448522233732,1,-3,-19,-39,-33,-11,-3,-1
1528448522245712,2,-8,6,39,52,24,8,5
1528448522245712,0,-1,-4,-6,-12,-8,-5,-6
1528448522255166,-6,5,11,20,20,7,-4,-3
1528448522255166,-1,0,9,-5,-10,-5,2,5
1528448522269110,-2,0,-7,-26,-26,-11,-4,-2
1528448522269110,-1,-3,-4,3,-1,1,-3,-1
1528448522275954,4,-1,-6,-8,-7,-4,-5,-2
1528448522275954,-3,3,6,11,11,4,0,-2
1528448522300048,-4,-4,-14,-14,-8,-3,-5,-4
1528448522300048,-1,-2,7,10,3,-3,-2,0
1528448522300917,2,1,-1,-5,-8,-3,5,2
1528448522300917,1,0,3,5,12,7,0,-1
1528448522315090,1,-1,5,-3,-10,-7,-4,-1
1528448522315090,-2,1,-2,-11,-8,-5,-4,-5
1528448522316050,1,-1,-4,-5,-1,4,4,2
1528448522316050,0,1,4,28,23,8,1,0
1528448522336993,-3,-2,-1,-2,-2,-2,-3,-5
1528448522336993,-6,-5,-7,-11,-9,-7,-8,-3
1528448522338991,-5,-4,-5,-9,-27,-25,-6,-2
1528448522338991,1,1,3,7,16,14,-12,-10
1528448522351174,4,3,0,-2,2,9,13,8
1528448522351174,-5,-3,-4,-2,-6,-21,-28,-5
1528448522359426,1,-5,-1,7,16,43,66,28
1528448522359426,-3,-3,-3,-7,-8,-6,1,7
1528448522374227,-4,1,-3,-11,-20,-36,-55,-31
1528448522374227,4,0,3,4,8,15,14,3
1528448522376223,0,-4,-3,0,3,21,36,21
1528448522376223,-1,-1,-4,-3,-3,4,1,-4
1528448522397383,-2,3,1,-5,-1,-3,0,-1
1528448522397383,-1,-1,-3,0,-4,-11,-20,-10
1528448522399270,-4,-1,-3,-2,-5,-20,-39,-22
1528448522399270,2,-1,0,1,0,3,9,4
1528448522411238,4,3,-1,-6,-10,-5,5,9
1528448522411238,-3,-5,-1,2,1,0,0,-3
1528448522419425,-1,2,3,6,8,3,-1,0
1528448522419425,-4,-4,0,-1,1,-1,1,-4
1528448522434401,-2,-2,-5,-6,-8,-5,-3,-4
1528448522434401,0,0,1,0,-1,4,14,11
1528448522436244,-1,-1,0,-2,-4,-5,-12,-9
1528448522436244,-3,0,1,-2,-2,-7,-10,-5
1528448522457304,-1,0,2,1,4,8,9,5
1528448522457304,0,-2,4,5,5,9,13,4
1528448522459175,-2,-7,-13,-11,-5,-12,-17,-10
1528448522459175,-2,1,-8,-7,-12,-12,-9,-7
1528448522471208,2,0,-1,-4,-4,6,13,8
1528448522471208,0,6,9,8,6,6,6,0
1528448522480136,-1,-13,-1,0,2,-7,-16,-7
1528448522480136,-1,9,3,-3,-3,1,6,4
1528448522494082,-1,-4,-5,-6,-8,-4,1,0
1528448522494082,2,-8,-3,2,3,-4,-6,-2
1528448522496077,-7,-3,-7,-2,-4,-6,-6,-5
1528448522496077,0,-8,-6,0,5,6,6,2
1528448522524003,-1,8,4,4,5,7,4,2
1528448522524003,3,6,10,-5,-11,-4,1,-1
1528448522525999,2,4,-2,-3,2,1,0,0
1528448522525999,-1,-5,3,1,-4,-3,-2,-2
1528448522530984,-3,-20,-30,-34,-15,-6,-3,-3
1528448522530984,1,14,12,17,3,-3,2,1
1528448522539997,4,9,9,51,43,19,4,3
1528448522539997,-1,-6,5,5,4,-2,-6,-3
1528448522554980,-1,-3,-3,4,1,0,0,-1
1528448522554980,0,-7,-14,-21,-15,-6,1,-2
1528448522555930,-2,5,6,-10,-5,-5,-5,-4
1528448522555930,-6,-19,-9,-4,-4,-5,-2,-2
1528448522576916,2,20,14,2,-6,-3,-1,-2
1528448522576916,5,16,-4,-11,-4,1,3,2
1528448522578855,-2,-14,5,22,20,4,-2,-4
1528448522578855,6,-2,-4,-3,0,1,1,2
1528448522599833,-8,-6,4,4,2,4,3,5
1528448522599833,-2,-11,-9,-4,-5,-3,-4,-5
1528448522600812,2,9,-3,-25,-15,-6,-6,-3
1528448522600812,-4,1,0,6,3,-1,1,-1
1528448522614812,3,-1,-3,2,1,7,3,0
1528448522614812,-6,0,4,7,10,3,1,1
1528448522615794,0,-9,-7,-7,-16,-4,-2,2
1528448522615794,-2,4,-5,-2,3,-4,-4,-4
1528448522636755,2,-3,5,9,8,0,-1,-1
1528448522636755,1,-10,-3,12,25,12,5,2
1528448522638735,-12,3,-6,-22,-26,-15,-7,-7
1528448522638735,3,3,3,-2,-6,-3,-2,1
1528448522659692,-2,-3,-5,-3,-4,-4,-2,-2
1528448522659692,1,-3,4,1,-3,2,-1,-2
1528448522661635,1,1,-8,-5,9,1,1,-1
1528448522661635,2,7,-5,-7,-17,-5,1,2
1528448522672660,-2,-5,2,9,14,3,0,-2
1528448522672660,-10,-20,-16,-15,-21,-14,-7,-4
1528448522682609,4,17,10,0,-11,-4,-4,-1
1528448522682609,0,0,-2,-6,1,-7,-3,-4
1528448522696541,3,1,1,1,0,6,6,1
1528448522696541,-2,1,0,0,2,4,-1,0
1528448522698535,3,5,8,-3,-7,-4,-2,-2
1528448522698535,-5,-6,-1,-1,1,-1,-5,-3
1528448522710555,-4,-2,-4,-8,-8,-10,-5,-2
1528448522710555,-1,0,1,6,6,10,4,2
1528448522719480,1,-13,2,4,9,4,3,1
1528448522719480,-4,5,1,0,9,4,2,-2
1528448522734466,-1,4,2,2,-2,-7,-5,-4
1528448522734466,-2,7,-5,-9,-21,-14,-6,-5
1528448522736434,4,4,5,9,14,11,5,5
1528448522736434,-1,-6,-5,-4,-5,2,1,2
1528448522757415,-2,-8,2,5,-8,-9,-6,-3
1528448522757415,1,-1,-9,2,24,14,6,4
1528448522758376,-3,-1,4,-4,-9,-11,-9,-4
1528448522758376,-1,-3,1,2,-10,-3,-1,-1
1528448522779321,-2,-1,-10,-9,-12,-4,0,-1
1528448522779321,0,-2,-5,-7,5,-3,1,1
1528448522781314,-3,-7,-4,9,6,2,-1,0
1528448522781314,-1,3,7,0,-6,-1,-1,1
1528448522794279,1,5,10,18,18,7,-1,-2
1528448522794279,0,2,1,0,-2,1,-1,-1
1528448522800263,-2,-2,-7,-10,-12,-10,-5,-2
1528448522800263,1,4,5,6,5,5,5,1
1528448522817218,-1,-4,-9,-11,-11,-5,-1,-2
1528448522817218,-4,-1,0,-3,0,-1,-2,-2
1528448522818215,-4,-3,-8,-9,-13,-10,-6,-3
1528448522818215,0,-1,-4,-4,-11,-13,-6,-4
1528448522831218,-2,-4,-2,6,15,16,6,2
1528448522831218,2,2,8,12,6,7,3,1
1528448522840186,0,-3,-12,-16,-7,-2,0,-2
1528448522840186,-2,0,3,1,-4,-5,-4,-2
1528448522854292,-1,-3,-14,-21,-17,-9,-3,-1
1528448522854292,0,-2,2,2,-5,-12,-9,-2
1528448522860442,0,5,9,17,21,23,12,5
1528448522860442,-3,-5,-5,-4,-6,-3,-4,-3
1528448522877389,0,-1,-1,-12,-7,-3,-1,-2
1528448522877389,-3,-3,-7,-6,-3,-5,-7,-4
1528448522878352,0,-4,-4,-7,-7,-4,-2,-1
1528448522878352,-1,-1,-4,1,1,0,1,0
1528448522891195,-2,1,10,11,8,4,4,2
1528448522891195,-3,-3,-2,-1,-5,-2,-1,-1
1528448522906920,1,2,1,-6,-7,-9,-5,-3
1528448522906920,-1,-3,-4,-6,4,8,3,-2
1528448522914039,-4,-1,4,9,9,-1,-3,-2
1528448522914039,-1,-2,-4,-2,-5,4,2,1
1528448522921019,0,-1,3,4,-6,-4,-2,-3
1528448522921019,1,2,-1,-2,7,9,6,2
1528448522937335,-2,-2,0,-4,-10,-10,-7,-2
1528448522937335,-1,-1,0,0,0,-1,1,-4
1528448522939199,1,4,1,2,-1,0,-2,0
1528448522939199,-1,-5,-3,-6,-5,-9,-7,-2
1528448522951177,0,-1,-4,-1,1,2,2,-2
1528448522951177,-1,-1,4,5,2,1,0,-2
1528448522959121,-1,-5,-6,-2,-1,-2,-1,0
1528448522959121,-1,-1,1,0,-3,-4,-2,-3
1528448522974220,0,0,-9,-3,6,2,-2,-1
1528448522974220,-2,1,1,3,-2,-2,-1,0
1528448522981061,-1,-1,0,1,0,2,1,1
1528448522981061,-5,-4,-6,0,1,-1,-3,-3
1528448522997019,-1,2,6,4,2,2,-1,-3
1528448522997019,-2,0,-4,-13,-17,-14,-6,-3
1528448522999170,1,-4,-8,-1,22,13,8,2
1528448522999170,0,0,0,6,-1,-2,0,1
1528448523019302,0,-1,-2,-5,-2,2,2,1
1528448523019302,-2,-2,-2,-2,-5,-3,-1,-2
1528448523020193,-2,-2,4,1,-5,-6,-4,-4
1528448523020193,-1,-3,-2,-7,-6,-4,-4,-2
1528448523034405,-1,2,1,-2,-3,-1,0,-1
1528448523034405,0,-3,-8,-6,-2,-3,-2,0
1528448523041459,0,-1,-2,-2,-12,-11,-4,-2
1528448523041459,3,2,0,9,21,17,8,4
1528448523056824,-2,-1,4,-1,-3,-5,-4,-1
1528448523056824,-1,-1,-4,-2,0,3,4,0
1528448523057662,-1,0,-6,-12,-9,-6,-6,-4
1528448523057662,-1,-2,-3,-6,-8,-8,-5,-3
1528448523078705,-1,-1,1,3,-4,-3,-3,-3
1528448523078705,0,0,1,3,3,3,1,1
1528448523079610,-1,-2,-2,4,4,2,2,4
1528448523079610,0,2,-1,-4,-2,0,1,0
1528448523093665,-1,-4,-1,-4,-6,-2,1,0
1528448523093665,2,1,1,-3,-5,-4,-3,-2
1528448523101767,0,-1,1,-4,-2,2,0,-1
1528448523101767,-3,-5,-4,6,12,8,1,0
1528448523116722,-2,-3,-3,0,1,0,-4,-1
1528448523116722,-2,-3,-1,-1,-1,-3,-1,-1
1528448523117617,0,1,5,5,7,5,2,1
1528448523117617,0,2,-1,-8,-11,-7,-5,-3
1528448523138662,-1,2,1,3,6,3,1,-2
1528448523138662,0,-2,0,1,-3,-2,0,-2
1528448523139507,-4,-1,-4,-2,1,-1,-3,-4
1528448523139507,-1,-3,-2,-5,-5,-6,-3,-1
1528448523153622,1,2,1,8,-2,-1,1,0
1528448523153622,-1,-1,0,-7,-5,-3,-3,-1
1528448523161607,1,-2,4,12,13,4,2,0
1528448523161607,2,1,-3,1,1,-1,-1,0
1528448523176573,0,-1,-1,-2,-2,6,3,-1
1528448523176573,-2,-3,-4,-3,0,0,-1,-1
1528448523177583,-1,1,-4,-4,-9,-3,-3,-2
1528448523177583,-2,-3,-3,-13,-15,-11,-4,-2
1528448523199769,1,2,9,13,13,7,5,1
1528448523199769,-3,-4,-12,-3,5,2,3,-2
1528448523214870,-2,1,2,-2,-4,-3,-2,-1
1528448523214870,-3,-2,-8,-1,0,-4,-5,-1
1528448523215861,-2,-5,-10,-14,-14,-12,-6,-6
1528448523215861,-1,2,6,3,3,2,0,0
1528448523228894,0,-1,-1,1,-3,-2,-1,-1
1528448523228894,1,1,1,1,5,5,2,-1
1528448523236233,-1,-2,-1,-1,-3,-4,-1,0
1528448523236233,-1,-1,0,0,-2,-1,-3,-2
1528448523237069,-3,-6,-5,-4,-3,-6,-4,-2
1528448523237069,-4,-2,-1,-3,-4,-2,2,-1
1528448523259341,0,0,-2,-1,-1,0,1,1
1528448523259341,-2,0,1,0,2,0,0,-1
1528448523260183,0,-1,-3,-4,-4,-4,-2,0
1528448523260183,1,1,1,3,-1,0,1,0
1528448523273553,-2,-3,-2,-3,0,1,-5,0
1528448523273553,-3,-2,-4,-7,-6,-4,-2,-2
1528448523288685,0,-2,0,3,2,-2,1,0
1528448523288685,0,1,4,7,8,7,4,-1
1528448523295946,-1,-3,-6,-7,-7,-6,-4,-2
1528448523295946,-1,-1,0,0,2,1,-2,1
1528448523296944,-2,-3,-4,-6,-6,-3,-3,-2
1528448523296944,-4,0,3,4,0,-1,-1,-3
1528448523319341,-1,-2,-1,2,11,3,1,1
1528448523319341,-1,-1,0,1,-3,2,2,0
1528448523319341,-2,0,0,-2,1,3,0,-1
1528448523319341,0,-2,-2,-5,-6,-5,-4,-3
1528448523333390,-1,0,-2,-3,-3,-5,0,-1
1528448523333390,-1,-1,1,6,2,-2,-3,0
1528448523341698,-3,-2,-1,-3,-5,-3,-1,-2
1528448523341698,-1,-1,-1,1,2,2,-2,0
1528448523356650,-2,-2,0,-3,-5,-2,-4,-3
1528448523356650,0,0,2,0,1,-2,0,0
1528448523357649,-2,-1,-3,-4,-4,-1,-1,-1
1528448523357649,-2,-1,-2,-4,-4,-5,-3,-1
1528448523378672,-2,-3,0,1,-2,0,2,0
1528448523378672,1,-1,0,2,6,4,0,1
1528448523386651,-3,-1,0,-4,-3,-3,-1,-2
1528448523386651,0,0,0,3,3,2,2,0
1528448523392636,-1,-1,-2,-9,-8,-6,-6,-3
1528448523392636,0,-2,0,-1,-5,-4,1,-1
1528448523408591,0,2,2,5,5,5,3,2
1528448523408591,1,-4,0,2,8,2,-1,0
1528448523416571,-1,-2,-5,-3,-6,-4,-2,-2
1528448523416571,-2,-1,-2,-4,-9,-10,-6,-2
1528448523416571,-1,0,-4,-4,-6,-4,-3,-1
1528448523416571,-1,2,2,6,12,7,3,1
1528448523438717,0,0,1,0,3,4,0,-2
1528448523438717,0,-3,-4,-3,-4,-2,-2,-2
1528448523439715,-1,-1,-3,-7,-9,-7,-2,-1
1528448523439715,-1,1,0,6,-5,-5,-1,-1
1528448523461862,-1,-1,0,2,-2,-1,0,2
1528448523461862,-2,1,0,1,8,5,0,-1
1528448523462848,-1,-2,0,2,1,1,-1,-1
1528448523462848,0,0,-2,-8,-7,-1,-1,-2
1528448523484948,1,1,-2,0,2,0,-1,-1
1528448523484948,0,-3,0,1,-2,0,-1,-1
1528448523484948,-3,-3,-2,-2,-2,-3,-1,-2
1528448523484948,-2,-1,-1,-2,-1,-2,-3,-1
1528448523498912,-1,-1,-2,-1,-6,-6,-2,-1
1528448523498912,-2,-3,-2,-6,-6,-2,-1,-2
1528448523499753,-2,-2,-3,-2,2,2,-1,-1
1528448523499753,-3,-3,-2,-6,-10,-7,-1,-1
1528448523513723,-1,0,1,2,5,2,3,1
1528448523513723,-1,0,0,3,7,2,0,1
1528448523521852,0,0,1,2,3,2,-2,-1
1528448523521852,-1,-1,-3,-2,0,-1,0,0
1528448523536218,-1,-3,-4,-9,-11,-7,-3,-4
1528448523536218,0,-1,3,5,2,1,0,-1
1528448523537069,-1,0,-1,-1,-1,1,-1,-1
1528448523537069,-2,-5,0,1,0,-1,-2,-3
1528448523559019,-2,1,-1,0,4,3,0,-1
1528448523559019,-1,-3,-3,-3,-8,-6,-3,-1
1528448523565982,0,-1,-1,1,5,-1,0,-2
1528448523565982,0,-1,-1,0,0,2,1,0
1528448523572964,-1,-1,-1,-2,-1,-2,-4,-1
1528448523572964,-1,-1,-2,1,2,-3,-1,-3
1528448523580943,1,-1,1,0,-2,3,2,2
1528448523580943,0,-3,-2,-4,-3,-3,-2,-2
1528448523595918,-3,0,2,2,1,4,1,1
1528448523595918,-2,-2,-1,0,2,-7,-4,0
1528448523596898,-2,0,-2,-1,-4,-6,-1,-1
1528448523596898,0,1,1,2,3,5,1,1
1528448523618868,0,-2,-3,-3,1,3,-1,-1
1528448523618868,-1,0,0,-2,-7,-3,0,-1
1528448523619864,-2,-4,-4,-3,-8,-10,-4,-5
1528448523619864,-3,-1,-1,-2,-6,0,-2,-1
1528448523634798,1,1,1,3,13,4,3,1
1528448523634798,-1,-1,-1,2,4,4,0,-2
1528448523640822,2,1,2,1,6,8,4,2
1528448523640822,0,-1,-2,-2,-4,-5,-3,-1
1528448523656817,-3,-2,-3,-5,-11,-10,-2,-1
1528448523656817,-4,-4,-6,-10,-12,-16,-6,-2
1528448523656817,-1,-1,-1,0,-10,-4,2,-1
1528448523656817,2,4,3,10,11,12,5,1
1528448523687015,-2,-1,-2,4,12,0,-3,-2
1528448523687015,0,0,-1,1,-4,11,4,-2
1528448523687853,-1,-4,-1,0,5,-5,-3,0
1528448523687853,-2,-2,-3,-5,-7,-7,-3,-3
1528448523692996,0,-2,-2,-2,-6,-5,-2,-1
1528448523692996,-1,2,-1,-5,-5,-6,-3,-1
1528448523701815,-1,-1,-5,-6,-4,-8,-5,-3
1528448523701815,-1,0,0,0,-1,1,2,-2
1528448523716097,3,2,1,5,10,7,1,1
1528448523716097,1,-1,0,2,5,7,2,1
1528448523717071,1,1,-2,-3,-1,4,0,0
1528448523717071,-4,-5,-6,-10,-13,-18,-10,-4
1528448523739154,-1,-3,-2,-8,-22,-21,-7,-3
1528448523739154,1,1,2,6,11,12,5,1
1528448523740116,4,2,4,15,30,31,9,3
1528448523740116,2,0,0,5,11,9,3,0
1528448523761970,-2,-2,-3,-6,-9,-3,-4,-1
1528448523761970,-2,-1,-4,-11,-16,-16,-6,-2
1528448523762941,-4,-3,-2,-2,-8,-19,-7,-3
1528448523762941,-1,0,-2,-5,-4,3,2,-1
1528448523776260,0,-1,0,2,1,0,2,-2
1528448523776260,-1,-2,-3,-1,2,0,-1,0
1528448523777109,-3,-2,-2,-4,-8,-7,-5,-2
1528448523777109,0,2,-2,1,3,4,1,1
1528448523799182,0,-1,-1,4,8,7,1,1
1528448523799182,-1,-1,0,1,1,3,-2,0
1528448523800116,-4,-2,-3,-7,-11,-12,-5,-3
1528448523800116,-3,-4,-2,-3,-10,-14,-5,-3
1528448523813000,-2,0,0,-1,-6,9,4,0
1528448523813000,1,3,2,4,3,3,2,1
1528448523821115,-1,-1,-1,2,9,6,1,-2
1528448523821115,-1,-1,-1,0,7,7,0,0
1528448523836094,-1,-2,-2,-3,-5,-7,-3,-2
1528448523836094,-2,-1,-3,2,1,2,-3,-2
1528448523836939,-1,-2,0,0,-11,-8,-2,-1
1528448523836939,-1,0,-1,-4,-4,-8,-2,-2
1528448523859245,0,-1,-3,-2,1,1,-2,-1
1528448523859245,-1,-1,1,0,-2,-1,0,0
1528448523860133,0,-1,-3,-4,-6,-1,-2,0
1528448523860133,-1,-1,1,3,3,1,-1,-1
1528448523873228,-3,-2,-3,-9,-8,-4,-1,0
1528448523873228,-1,-1,1,6,8,1,-1,1
1528448523881206,-1,1,-2,1,2,5,1,0
1528448523881206,-1,-1,-2,-2,-2,-3,-1,0
1528448523896018,-2,0,-2,-1,-1,-4,-2,-3
1528448523896018,-1,0,-1,-3,-8,-6,-3,-3
1528448523897020,-1,0,0,0,3,-1,-1,-3
1528448523897020,-1,-3,-4,-3,-9,0,-1,0
1528448523919147,0,1,1,3,4,2,1,1
1528448523919147,-1,0,1,3,10,12,4,0
1528448523919147,0,0,1,1,1,3,0,1
1528448523919147,0,-1,-2,-3,-5,-6,-3,-3
1528448523933251,0,-2,-4,-5,-6,-7,-4,-3
1528448523933251,-1,-1,-1,-6,-5,-7,-2,-3
1528448523941233,-2,0,-2,-3,-5,-3,-1,-1
1528448523941233,-3,-2,-1,-1,2,1,0,0
1528448523956183,0,0,2,3,4,3,1,-1
1528448523956183,-1,0,-1,0,0,2,0,-1
1528448523957046,-2,-3,-2,-2,-3,0,-3,0
1528448523957046,-1,0,1,-1,-3,-2,-1,0
1528448523979011,-3,-1,0,2,7,2,0,-3
1528448523979011,-1,-3,-4,-5,-2,-3,0,-2
1528448523979984,-1,0,0,-2,-1,0,-1,0
1528448523979984,0,-1,-2,0,-3,-3,-1,1
1528448524001925,-1,-3,-1,2,-1,-1,1,0
1528448524001925,0,1,0,0,-1,-2,-2,-1
1528448524002923,-1,0,-1,-2,-2,-2,-1,-2
1528448524002923,-3,-1,-3,-11,-11,-6,-1,-1
1528448524015888,-2,-1,0,11,11,6,0,-1
1528448524015888,-1,-1,0,-2,-1,-2,-2,-1
1528448524016886,1,0,0,0,0,0,-1,-2
1528448524016886,1,-2,3,-1,0,0,-1,-1
1528448524038990,0,0,-2,-7,-8,-4,-2,-2
1528448524038990,0,-3,-8,-6,-2,-2,-1,0
1528448524039987,1,2,3,2,2,-1,0,-1
1528448524039987,-1,0,1,1,1,1,1,-1
1528448524062163,-1,-1,0,-3,-4,0,-2,0
1528448524062163,-1,-2,-1,-1,0,-3,-2,-1
1528448524063162,-1,-1,-3,-3,-2,-1,-1,0
1528448524063162,-1,0,-1,2,4,1,1,-2
1528448524076283,-2,-1,-6,-5,-2,-2,-1,-1
1528448524076283,-1,0,2,-1,-1,-1,-2,0
1528448524077131,-4,-3,-4,0,0,-1,0,-1
1528448524077131,0,-1,13,10,3,-2,-1,-4
1528448524107044,2,2,-6,-5,-4,0,0,6
1528448524107044,-2,-5,-9,-7,-6,-3,-2,-4
1528448524108041,-2,2,4,4,4,1,0,-2
1528448524108041,-3,-5,-10,-2,0,0,0,0
1528448524123106,-6,4,28,10,-1,-1,1,-5
