timestamp,emg1,emg2,emg3,emg4,emg5,emg6,emg7,emg8
1529564202660509,0,-2,-3,-15,-10,2,0,-1
1529564202660509,1,1,-2,4,5,4,8,-1
1529564202668487,0,-2,1,9,5,-7,-4,0
1529564202668487,-1,0,0,-4,6,9,4,0
1529564202683488,-2,-4,0,16,0,-7,-3,-1
1529564202683488,0,-3,-7,-5,-5,-7,-5,-2
1529564202690447,-2,0,-1,-8,-4,8,1,-3
1529564202690447,-2,2,5,-2,-1,9,2,-2
1529564202705435,-5,-1,1,1,-2,-23,-5,-5
1529564202705435,2,3,1,1,1,-3,7,21
1529564202720523,0,5,9,2,5,11,-3,-19
1529564202720523,-2,-8,-11,-10,-1,11,12,-11
1529564202728329,-7,-6,-3,1,1,7,-12,6
1529564202728329,-7,-6,-9,-4,-3,-19,-9,-9
1529564202743474,10,2,2,7,4,10,21,24
1529564202743474,-2,5,0,-3,-2,-11,-13,-8
1529564202751406,8,1,-3,-12,-10,0,16,-5
1529564202751406,-6,0,5,9,-1,-12,-9,5
1529564202765773,15,4,-8,-6,-4,5,13,20
1529564202765773,1,0,-2,3,-1,-5,-8,-9
1529564202780745,2,-1,-10,-19,-10,-15,-5,8
1529564202780745,-12,-6,-7,-1,-5,-8,-10,-3
1529564202788851,9,5,14,12,6,-1,-9,-26
1529564202788851,2,-6,-8,5,0,4,3,30
1529564202803662,-13,-5,-7,2,-3,-3,6,-13
1529564202803662,-3,-11,-20,-3,-1,5,4,32
1529564202810643,-11,0,6,-7,-3,-2,-10,-42
1529564202810643,-8,-1,-6,-5,-5,-2,4,-13
1529564202825616,9,-3,-5,1,-2,-7,11,17
1529564202825616,-15,0,7,-3,0,4,-12,-30
1529564202840584,-3,1,7,5,4,1,-4,19
1529564202840584,23,-3,-1,-6,0,5,1,2
1529564202855497,-13,-6,-12,-10,-3,-3,-4,5
1529564202855497,3,-5,-7,-13,-5,-2,-3,-5
1529564202870460,-3,12,21,8,6,-5,4,-14
1529564202870460,-3,2,-3,-12,-3,4,36,31
1529564202885597,-11,0,9,20,13,5,-25,-42
1529564202885597,13,-10,-23,13,-2,-6,-4,-18
1529564202908706,-7,-1,-12,-6,4,5,-3,3
1529564202908706,0,7,16,-1,-2,3,13,9
1529564202923853,-16,-1,11,13,1,-5,2,20
1529564202923853,17,3,-10,-18,-1,7,0,23
1529564202938807,-10,-13,-23,1,11,-7,-28,-36
1529564202938807,-7,-2,2,29,8,6,32,-5
1529564202945640,16,-2,-7,-10,-9,11,19,27
1529564202945640,-9,-2,-10,-50,-16,-11,-22,-21
1529564202960573,-4,-5,-4,-12,1,3,13,2
1529564202960573,-2,-1,4,-4,0,4,-7,-17
1529564202968636,1,7,18,29,6,-4,-2,21
1529564202968636,-3,-6,-4,56,29,5,7,-9
1529564202982952,-1,-3,-3,26,-5,-5,-13,-6
1529564202982952,0,4,5,13,0,-4,-11,2
1529564202991324,-1,-4,-12,-115,-43,-12,-1,-4
1529564202991324,5,2,2,-1,-11,-4,8,14
1529564203006259,2,4,5,30,22,-4,-27,-6
1529564203006259,0,-1,5,-28,-4,20,33,11
1529564203021381,-5,-1,-2,-2,0,1,-8,-1
1529564203021381,0,-5,-16,-11,9,-4,-5,-5
1529564203028187,-3,-4,-4,39,-13,-10,0,-6
1529564203028187,-6,0,1,-3,-3,-5,-26,-6
1529564203043004,2,3,-4,5,-11,-1,25,25
1529564203043004,-1,4,7,-26,-12,-10,-16,-20
1529564203050982,-4,-11,-14,23,-8,-5,1,-1
1529564203050982,0,4,3,-36,50,14,-8,-2
1529564203065942,-5,-4,8,3,19,14,19,19
1529564203065942,-6,-4,3,17,11,4,-45,-20
1529564203080953,6,-1,-14,13,10,-7,41,17
1529564203080953,0,-1,4,7,22,-7,-3,4
1529564203087930,3,4,0,-14,-12,23,3,-1
1529564203087930,-3,3,-10,6,-47,-45,-26,-20
1529564203110868,-1,4,2,6,32,32,-31,-6
1529564203110868,4,-1,-8,18,9,16,44,13
1529564203117843,-5,-1,-24,23,-50,-24,7,-10
1529564203117843,6,4,-16,-14,57,24,27,22
1529564203132805,2,7,-20,56,3,8,-7,2
1529564203132805,-8,-2,-29,-28,-31,0,-23,-6
1529564203148753,1,-3,-24,7,10,-9,49,1
1529564203148753,-13,-2,-17,11,4,-9,-34,-21
1529564203155749,-1,2,-10,-8,0,-56,-18,-7
1529564203155749,10,0,0,-16,-38,61,42,33
1529564203170709,10,0,33,5,30,12,3,11
1529564203170709,-5,-4,33,13,11,-37,15,-6
1529564203185669,-3,4,7,-63,-35,-26,-15,-6
1529564203185669,0,-9,11,8,7,26,-29,-20
1529564203200633,3,-7,4,-12,-5,2,38,37
1529564203200633,1,7,30,18,20,-14,-17,-1
1529564203208611,0,-4,14,-25,10,12,0,9
1529564203208611,-10,-3,6,-6,-10,-3,-30,-35
1529564203223567,1,0,10,12,-2,-8,50,23
1529564203223567,-5,0,11,13,13,-2,-2,-3
1529564203230549,12,1,5,-16,-24,2,-4,4
1529564203230549,1,-2,1,-13,-7,-13,22,15
1529564203245464,-6,-1,11,13,80,-3,17,0
1529564203245464,0,1,3,8,-28,-31,-8,3
1529564203260424,-3,-1,3,16,-24,-9,-14,-14
1529564203260424,4,0,-5,-43,67,57,12,11
1529564203268402,-1,1,-9,-25,-35,-8,-1,0
1529564203268402,0,-3,-9,22,-36,-13,7,4
1529564203283394,-5,-3,-3,-14,-67,-69,-26,-10
1529564203283394,-1,4,11,15,52,22,2,-7
1529564203290389,1,6,24,44,-41,47,24,6
1529564203290389,-4,-15,-47,-39,122,58,8,7
1529564203306300,5,6,0,-27,-22,-14,-4,-1
1529564203306300,-4,6,23,5,-114,-94,-20,-14
1529564203313327,-8,-8,11,84,102,35,6,-4
1529564203313327,7,5,-2,-52,-120,-34,9,14
1529564203328242,-3,-5,-15,-20,125,27,-10,-6
1529564203328242,0,-3,-4,60,46,-5,1,1
1529564203335268,-4,9,29,-26,-94,-128,-35,-20
1529564203335268,-9,-24,-32,29,68,85,39,6
1529564203351218,4,-3,-14,14,-128,-53,-1,3
1529564203351218,-2,9,59,121,-35,-105,-37,-23
1529564203366186,-26,-25,-42,-60,66,74,20,-8
1529564203366186,-10,-6,-25,-99,-73,1,5,1
1529564203373167,50,-3,-7,30,-25,-66,-13,26
1529564203373167,21,25,-2,10,5,35,54,35
1529564203388101,4,-2,-4,40,-93,-82,-20,-8
1529564203388101,-20,-7,-11,7,73,-16,-5,-9
1529564203396096,-20,-3,-6,-33,-112,9,4,-8
1529564203396096,-11,-5,18,21,7,-53,-27,-27
1529564203411187,-8,-2,-4,-28,102,63,-11,-13
1529564203411187,-2,2,2,-26,11,23,50,14
1529564203426147,7,0,6,6,-16,5,-4,13
1529564203426147,-3,-4,-2,-2,-16,-6,-16,-13
1529564203434956,-28,-4,-11,10,79,29,-21,-3
1529564203434956,3,1,-6,-27,-47,-19,-5,1
1529564203447921,9,2,11,24,-15,-30,-7,-51
1529564203447921,22,3,-1,14,0,6,-58,36
1529564203462914,-11,-18,-15,-9,27,41,111,73
1529564203462914,-6,-1,-2,-8,-26,-34,-118,-59
1529564203478007,-29,0,-5,-25,-4,6,-25,-45
1529564203478007,-10,1,7,-8,-18,-26,-29,3
1529564203493885,-10,2,9,23,17,4,-15,-15
1529564203493885,16,-1,-1,12,-16,7,55,5
1529564203500783,11,2,-9,-26,1,-5,-33,0
1529564203500783,4,-2,-3,7,0,0,70,26
1529564203516007,10,-9,-20,-21,4,11,93,9
1529564203516007,-1,7,11,7,7,-8,-12,8
1529564203530867,4,2,-1,0,9,1,4,-5
1529564203530867,-13,-3,-5,1,-1,5,-23,-24
1529564203545660,1,0,8,9,-20,-13,6,10
1529564203545660,5,-3,-10,9,14,-6,18,-3
1529564203553913,2,5,-5,5,-6,13,-21,-6
1529564203553913,3,-3,-10,-73,1,12,18,3
1529564203568532,-8,-4,4,36,-15,-16,-27,-4
1529564203568532,1,-4,-7,8,50,-10,14,2
1529564203575930,-3,2,5,-4,-11,-1,-19,-6
1529564203575930,2,2,2,26,0,10,4,9
1529564203591349,-10,-17,8,34,-55,-25,-2,-10
1529564203591349,7,-2,-6,24,102,48,6,10
1529564203606326,3,0,-8,-49,-100,-35,-8,1
1529564203606326,-6,2,10,-7,-31,-2,12,-7
1529564203613106,5,14,3,-26,-79,-3,-19,-3
1529564203613106,1,-3,-2,111,32,-45,-2,-1
1529564203628144,-3,-5,-3,-49,65,87,2,5
1529564203628144,-9,-15,-26,19,65,60,11,4
1529564203637093,0,1,-22,-91,-73,-80,-18,-6
1529564203637093,-1,2,11,63,75,-19,-8,-5
1529564203651059,4,5,-4,-17,116,31,-6,0
1529564203651059,-2,0,-5,-43,-127,-46,-6,-4
1529564203666016,1,-7,13,57,57,-22,-6,1
1529564203666016,-3,-19,31,-2,-1,20,7,0
1529564203674029,1,6,67,-1,-4,1,-4,2
1529564203674029,-7,-8,53,5,-69,-7,-7,-13
1529564203688963,4,3,29,-1,-18,-1,6,12
1529564203688963,7,7,11,38,-56,-37,-8,-6
1529564203695948,-8,-9,-48,-61,-41,6,5,2
1529564203695948,-1,-34,-82,-56,-110,-16,-1,9
1529564203711291,2,2,-22,6,-84,-52,-16,-3
1529564203711291,4,35,-1,1,-15,3,-2,-5
1529564203726322,-3,0,-14,-19,61,48,15,5
1529564203726322,0,-5,-29,-41,-95,-14,-2,-1
1529564203733387,-5,-31,-22,58,38,25,3,-1
1529564203733387,5,11,4,-27,-68,-11,2,5
1529564203748345,0,-2,6,52,16,-19,-7,-4
1529564203748345,-11,-8,-1,12,50,-1,-2,-10
1529564203756181,7,8,7,5,51,39,11,10
1529564203756181,-5,-6,9,10,-16,-41,-17,-7
1529564203771144,-1,-4,7,31,39,25,-2,-3
1529564203771144,3,-1,-3,-16,56,39,13,7
1529564203786102,-4,-5,-2,-6,-57,-32,-9,-2
1529564203786102,-3,-3,-2,5,4,-4,-6,-1
1529564203793085,-3,-4,3,21,12,-6,-2,-7
1529564203793085,-4,1,10,-7,24,1,-6,-4
1529564203808560,1,1,-10,-27,-26,8,7,4
1529564203808560,-5,3,6,26,30,-10,-6,-8
1529564203816287,-6,-6,-14,3,22,11,1,-2
1529564203816287,5,4,8,-7,23,22,10,7
1529564203831418,0,1,-2,2,-10,-2,22,6
1529564203831418,-1,-3,-6,-28,-1,10,-4,-4
1529564203846125,0,3,11,32,26,8,3,-2
1529564203846125,-2,0,-5,-10,-13,0,-15,-5
1529564203853275,-1,2,-1,-18,5,8,-14,-6
1529564203853275,-1,-5,-4,9,-16,-18,0,3
1529564203868067,-2,-2,-3,-5,10,-7,1,-4
1529564203868067,1,0,1,0,11,9,16,6
1529564203875441,3,8,5,-5,-2,1,-10,-1
1529564203875441,-2,-3,-8,8,-2,-7,0,-4
1529564203890925,0,4,11,45,3,-12,-6,-6
1529564203890925,0,-1,0,-35,59,34,-1,5
1529564203905748,-4,-5,-5,13,-7,-6,-3,-10
1529564203905748,3,1,5,-4,-12,-2,11,6
1529564203913847,-2,-1,4,9,-10,-6,-17,-4
1529564203913847,-3,-7,-12,18,-5,0,16,-2
1529564203927998,0,0,4,12,7,-11,6,2
1529564203927998,0,0,-2,-14,0,2,-23,-8
1529564203936130,1,1,-1,-31,-5,-2,18,-1
1529564203936130,-2,-5,3,2,-1,2,3,4
1529564203950805,0,0,5,8,-15,-10,-1,0
1529564203950805,-2,2,0,5,-2,-2,1,-1
1529564203958902,-2,0,0,11,11,4,-3,1
1529564203958902,-4,-2,2,-16,-4,-8,-8,-5
1529564203973878,2,-2,-7,21,5,-1,0,-1
1529564203973878,-2,-3,-2,-5,-12,-7,0,-1
1529564203988842,2,2,21,-11,1,10,-4,10
1529564203988842,-2,-4,-39,-15,-23,-18,-2,-12
1529564203995662,-2,3,25,13,5,10,3,-1
1529564203995662,0,-4,-31,-4,32,19,-1,3
1529564204011339,5,14,28,24,-51,-26,-7,-3
1529564204011339,-1,-19,-28,-10,49,23,7,11
1529564204017995,1,0,-24,-30,-2,17,5,4
1529564204017995,-9,-4,32,77,-102,-24,-11,-18
1529564204033965,4,-5,-10,-4,23,0,-7,-3
1529564204033965,8,9,37,-31,-14,-5,0,8
1529564204048962,-3,-9,7,27,-18,-4,0,-1
1529564204048962,-5,-16,-11,8,-17,-11,-4,-7
1529564204056118,-3,-6,-21,-1,43,6,0,-1
1529564204056118,0,5,17,-15,-4,-15,-6,-1
1529564204070923,7,5,2,-12,-31,-2,6,5
1529564204070923,-3,-5,-1,-8,27,3,-3,0
1529564204078050,1,5,68,-4,-25,-8,-1,0
1529564204078050,-3,-8,-44,9,14,3,-1,-3
1529564204093001,-10,-17,-36,-29,-26,-13,-12,-10
1529564204093001,5,10,34,-9,10,2,5,3
1529564204115941,-7,-23,-17,-14,-2,7,-2,-1
1529564204115941,-6,-7,-25,49,-12,-26,-9,-6
1529564204124095,-1,1,24,13,-8,7,0,-2
1529564204124095,9,15,42,0,18,6,3,20
1529564204146249,0,6,-30,-7,-18,-7,-2,-3
1529564204146249,-6,4,-11,-14,7,6,1,-27
1529564204153025,-3,2,-49,-12,-4,-30,-12,-8
1529564204153025,-4,-10,-21,3,-52,22,2,-8
1529564204176023,-10,-25,-46,18,6,-6,-2,-15
1529564204176023,-1,14,6,-16,14,12,9,29
1529564204191274,-1,8,62,31,-12,-9,-7,-3
1529564204191274,-7,-19,-50,-13,10,4,-1,-13
1529564204205940,5,6,4,-2,-5,-2,3,15
1529564204205940,-4,-8,2,11,11,-8,-6,0
1529564204220901,4,4,1,-25,-8,14,6,15
1529564204220901,1,10,-2,-17,8,-5,-5,-6
1529564204235859,-15,-9,-57,-23,16,9,7,-9
1529564204235859,-2,-4,-12,-15,-27,-13,-2,-11
1529564204250855,5,8,46,6,25,0,5,8
1529564204250855,0,-1,-51,15,-9,1,-22,5
1529564204257837,4,7,10,-25,2,7,26,19
1529564204257837,-6,-1,-7,14,8,-12,-17,-32
1529564204280773,2,-8,-2,20,7,-3,-10,-18
1529564204280773,-4,4,-9,-16,-1,-13,-15,-23
1529564204295702,-1,-3,-1,17,-2,0,3,7
1529564204295702,-3,-9,-7,-2,-13,-9,3,7
1529564204303678,3,7,7,-12,9,23,-16,-7
1529564204303678,7,8,-8,8,12,-1,17,8
1529564204318639,-4,-5,20,-6,-11,-8,-11,17
1529564204318639,-1,-2,-1,-4,-1,8,5,-15
1529564204325620,-1,0,-1,3,-8,-19,-8,10
1529564204325620,2,7,-4,-15,3,7,1,8
1529564204333598,-6,-2,13,16,-1,-7,5,3
1529564204333598,1,-4,8,-4,11,5,-7,9
1529564204348559,0,2,8,-14,-11,1,8,-10
1529564204348559,-2,-2,4,-2,-26,-12,0,-16
1529564204355579,0,1,3,4,14,6,-6,11
1529564204355579,-3,-4,2,4,9,-11,-20,14
1529564204370501,-3,-4,6,3,-12,-3,5,-4
1529564204370501,2,9,9,19,18,-5,-11,-3
1529564204378480,-2,2,12,-21,-9,15,24,-14
1529564204378480,2,-2,-3,-40,-10,1,11,2
1529564204393834,4,-4,5,38,-9,-8,-3,39
1529564204393834,-9,-9,-1,14,13,3,-21,-63
1529564204408659,1,-7,-6,-8,-15,4,0,-21
1529564204408659,3,-2,-6,3,-12,3,7,15
1529564204415750,-5,-1,1,3,1,-7,-22,29
1529564204415750,3,-9,-7,-24,-37,5,12,20
1529564204431098,-5,10,18,-7,12,-2,-1,-16
1529564204431098,-4,-10,-26,0,12,1,-12,-4
1529564204438293,3,8,0,-6,-28,-8,1,-21
1529564204438293,0,-18,-17,17,1,6,11,15
1529564204453282,-1,-2,-3,14,4,-6,10,-16
1529564204453282,0,-2,3,16,10,3,5,0
1529564204468093,2,5,0,-39,-26,6,16,42
1529564204468093,-5,-17,2,7,10,0,-13,-14
1529564204476070,4,5,1,-12,-19,0,-28,-12
1529564204476070,-1,3,27,60,38,-8,11,-1
1529564204491210,-2,-10,-27,18,22,7,2,-14
1529564204491210,5,10,8,-3,-22,2,-8,18
1529564204498191,2,-12,-4,-9,-10,-8,-1,-5
1529564204498191,-2,-4,9,-20,-29,-5,-4,16
1529564204513969,4,10,5,11,35,3,2,-4
1529564204513969,1,11,2,-10,2,13,-1,7
1529564204520951,-1,-5,-6,-11,-39,-23,-11,-21
1529564204520951,0,8,-2,3,45,3,10,-8
1529564204536600,13,8,7,-54,-2,5,8,10
1529564204536600,-9,-16,4,24,9,7,6,-9
1529564204550473,-15,-6,-25,-22,-5,-2,-21,-41
1529564204550473,5,3,8,49,48,7,-4,64
1529564204566518,-7,-16,-12,9,16,9,14,-17
1529564204566518,8,11,-30,-63,-44,-11,-12,9
1529564204581011,3,15,0,1,5,-1,15,-4
1529564204581011,-4,1,9,13,8,10,-10,20
1529564204595560,-1,-22,-18,-51,-45,-4,3,1
1529564204595560,1,0,-10,-42,-30,-9,-4,-12
1529564204603904,-8,0,13,67,53,-1,-8,10
1529564204603904,0,-5,-5,3,-8,14,20,-7
1529564204626075,-6,6,-4,-19,-28,-4,-35,-64
1529564204626075,-2,-1,0,9,19,0,2,23
1529564204641239,7,4,18,9,0,9,5,1
1529564204641239,-3,-3,1,-8,-24,-6,2,-8
1529564204649015,-5,-7,-15,-20,-6,-1,14,20
1529564204649015,-5,-2,0,20,14,-3,-11,-36
1529564204663877,-3,-11,10,14,13,-1,-16,-3
1529564204663877,1,6,14,-47,-42,-10,-3,2
1529564204678276,6,7,0,7,12,6,36,61
1529564204678276,-3,2,-3,-19,-15,-14,-25,-10
1529564204693236,-3,-4,11,0,-7,8,4,-19
1529564204693236,3,-5,-5,9,3,-4,-26,-3
1529564204701284,0,6,-1,6,15,-1,7,1
1529564204701284,-3,0,-7,7,-7,-5,-4,1
1529564204716193,-2,-8,-13,-16,-15,-1,-8,0
1529564204716193,3,5,-2,10,20,1,1,-3
1529564204738366,-2,-8,-7,1,-4,3,-1,5
1529564204738366,15,-5,-10,-21,-9,-6,2,6
1529564204745352,-16,2,7,5,16,22,2,-20
1529564204745352,-2,-6,-3,-13,-6,-7,6,10
1529564204760993,8,-4,2,-7,-8,-5,7,27
1529564204760993,-3,-3,9,52,31,0,-11,-45
1529564204776101,1,5,1,-6,-12,-3,7,-8
1529564204776101,-3,-7,-3,-8,-11,1,4,11
1529564204791131,0,-9,-4,17,10,-7,0,-11
1529564204791131,-4,-1,8,9,2,3,0,-3
1529564204798114,0,-14,-5,-1,-6,-6,-12,1
1529564204798114,0,8,1,-16,4,-2,2,2
1529564204812896,1,6,10,9,1,2,3,-5
1529564204812896,1,-1,4,-2,-8,-3,-6,-1
1529564204828114,0,3,-1,8,3,-1,-8,5
1529564204828114,-3,0,14,11,12,2,2,-7
1529564204835835,2,-11,-9,-15,-4,-1,-3,-6
1529564204835835,-2,-4,6,-6,-11,-3,0,2
1529564204851264,1,4,-17,7,2,1,4,7
1529564204851264,-2,4,5,1,5,-6,-5,-9
1529564204858176,-2,-2,1,2,0,-3,-5,-10
1529564204858176,3,1,-7,-7,-4,1,8,7
1529564204873582,-3,0,-10,-2,-2,-6,-9,5
1529564204873582,2,11,1,-4,-8,-4,-1,10
1529564204888722,2,-1,1,-3,0,0,0,-10
1529564204888722,-5,-1,3,2,-3,-2,3,-3
1529564204895367,0,3,3,-1,0,-1,2,-1
1529564204895367,4,-8,-9,-2,-1,-1,-4,6
1529564204918360,-1,7,13,0,-1,0,1,4
1529564204918360,0,-9,-22,-3,-2,-1,-5,-1
1529564204933317,0,0,-4,1,2,-1,2,1
1529564204933317,16,-2,2,-3,-3,-5,-2,-9
1529564204948247,-5,10,0,-2,0,-2,9,-3
1529564204948247,-23,-1,-13,-2,-3,-5,-15,-21
1529564204963166,29,1,10,-2,-1,-1,1,-7
1529564204963166,-45,8,21,-2,0,0,-6,0
1529564204978555,-6,8,19,9,-1,-2,-5,-3
1529564204978555,11,-6,-2,3,-1,-1,2,3
1529564204993695,1,-2,2,-3,0,0,-9,-7
1529564204993695,-11,-10,1,1,-1,-3,3,-8
1529564205000677,0,-3,-10,-6,0,-3,-2,-4
1529564205000677,4,-6,0,-1,-2,0,-2,17
1529564205008882,4,0,5,3,1,2,12,2
1529564205008882,9,-5,-7,-7,-4,-1,-9,-14
1529564205023841,-30,-9,9,-1,1,-3,-12,-35
1529564205023841,12,-3,15,5,0,0,5,12
1529564205038642,-8,20,5,3,3,-2,-5,-30
1529564205038642,14,-8,-7,-4,-4,-2,7,30
1529564205052801,-5,0,-16,-4,-4,-2,0,3
1529564205052801,11,-18,-27,0,4,5,2,-18
1529564205061005,9,3,-18,0,0,1,9,10
1529564205061005,2,-3,-18,0,0,-1,-18,-36
1529564205068003,-20,-1,-19,-2,-2,-1,4,14
1529564205068003,2,4,-14,2,2,0,3,-1
1529564205075981,1,-7,-10,-6,-1,0,-4,31
1529564205075981,-14,-1,2,-3,-3,-2,1,-44
1529564205083911,12,-6,-8,-6,-4,-1,3,8
1529564205083911,0,-1,-7,0,-2,0,-9,-13
1529564205090939,3,0,-7,-1,0,-1,3,29
1529564205090939,-9,-1,0,6,3,4,20,-4
1529564205105903,5,0,0,0,2,-1,-22,-2
1529564205105903,-3,-3,-3,-4,-4,0,5,-26
1529564205112702,3,-3,5,-7,-4,-3,-5,20
1529564205112702,-1,-1,5,-4,-3,-2,4,24
1529564205121077,2,-3,0,-1,-3,-3,2,15
1529564205121077,3,5,-5,-3,-3,-2,2,14
1529564205127890,10,-4,-10,-1,-1,1,18,5
1529564205127890,-24,-2,-1,2,-1,-2,-34,-70
1529564205151048,1,1,-4,2,1,1,1,-11
1529564205151048,-2,-4,-14,-7,-4,-5,-6,27
1529564205158550,-2,-1,-7,-3,-3,-1,4,-8
1529564205158550,10,2,-2,2,0,-3,5,21
1529564205173169,-4,-10,-9,-5,-2,-1,-2,-12
1529564205173169,-4,-1,0,0,-1,2,13,-8
1529564205181148,0,0,3,0,0,-3,-22,-5
1529564205181148,3,-1,5,-2,1,1,6,12
1529564205188128,0,1,5,0,-4,-3,-11,4
1529564205188128,1,-1,12,-1,3,3,9,12
1529564205203268,-1,0,4,0,0,1,-8,-28
1529564205203268,-1,-3,-2,-4,-4,-6,-12,-10
1529564205211068,-2,0,-5,-1,-2,-3,12,8
1529564205211068,-7,-7,-8,-4,-4,-3,2,-22
1529564205226201,6,3,7,-1,1,-1,-3,-6
1529564205226201,-2,0,-3,1,-2,-3,3,6
1529564205233005,-7,-3,-11,-7,-2,-2,-10,-19
1529564205233005,5,-1,2,1,-1,-2,3,21
1529564205240988,-1,-2,-8,-2,-1,0,7,8
1529564205240988,-1,0,3,-1,-1,0,-8,-12
1529564205248413,0,-1,0,3,1,3,5,4
1529564205248413,1,-1,-6,0,-2,-2,2,2
1529564205263506,1,-1,-4,-3,-3,-3,-9,-2
1529564205263506,-3,-1,2,3,4,6,4,10
1529564205271110,-2,-1,-6,-1,-1,-2,-4,-9
1529564205271110,1,-1,-2,0,-1,1,-3,-1
1529564205286068,-3,-2,-2,2,1,-1,1,5
1529564205286068,-2,-1,-6,-3,-2,-2,-1,1
1529564205293050,-3,-1,2,0,-3,-1,0,-10
1529564205293050,1,1,1,-1,0,1,-5,3
1529564205301026,-2,-4,-7,-2,-3,-2,3,3
1529564205301026,1,1,1,-3,0,1,0,-6
1529564205308010,-1,0,0,0,-1,-1,2,-11
1529564205308010,-1,-1,2,6,3,-2,-9,13
1529564205322967,1,1,1,-1,0,0,3,3
1529564205322967,-1,-8,-16,-3,-3,-4,0,0
1529564205330946,-1,1,-1,-2,-1,1,-2,-5
1529564205330946,-1,-2,1,-1,-3,-2,1,0
1529564205345909,1,2,4,-1,-2,-1,4,12
1529564205345909,-3,-1,-1,-3,0,2,4,-14
1529564205352890,1,-1,3,0,0,-2,-14,-1
1529564205352890,-1,-4,-1,-2,-2,-3,-2,-1
1529564205361171,0,0,7,3,2,1,1,-1
1529564205361171,0,3,10,0,-3,-1,-1,1
1529564205368906,0,-2,-3,-6,-4,-1,3,1
1529564205368906,-1,-2,1,2,2,0,-3,-4
1529564205383862,-1,-2,-3,2,1,1,0,-2
1529564205383862,1,2,7,-2,-2,-2,-1,1
1529564205390959,-3,-7,-15,-1,0,-1,-2,-2
1529564205390959,-1,1,0,-1,-1,0,-1,-2
1529564205405750,-1,-2,-6,-2,-3,-1,1,6
1529564205405750,0,2,5,3,2,1,-3,2
1529564205420884,1,4,8,0,1,1,-2,-1
1529564205420884,-2,-6,-18,-12,-8,-5,-3,-4
1529564205427899,-2,1,3,0,3,-2,-1,0
1529564205427899,-1,0,2,-4,-3,0,1,1
1529564205443906,1,5,16,8,3,-1,-2,-3
1529564205443906,-1,-4,-11,-4,0,0,2,2
1529564205450806,-1,-1,0,-1,-3,-1,-1,0
1529564205450806,2,-1,-4,-4,-2,0,0,1
1529564205466088,-2,-3,-2,12,6,0,0,-2
1529564205466088,-1,0,2,6,3,0,-1,0
1529564205481048,7,-2,-9,-53,-6,0,-1,1
1529564205481048,-7,-1,6,3,0,0,-1,-1
1529564205488906,-4,-1,4,35,10,0,-1,-3
1529564205488906,2,-2,-3,-4,-1,-2,-1,0
1529564205503755,-7,-1,-4,1,-7,-5,-2,-2
1529564205503755,5,-7,-10,6,2,0,-1,1
1529564205511151,1,2,4,-15,-4,2,0,0
1529564205511151,-1,3,8,21,16,4,3,0
1529564205525954,2,-5,-16,-28,-23,-5,-2,-1
1529564205525954,0,3,8,6,-2,-2,-2,-2
1529564205532906,-2,-1,-2,-14,-2,-1,0,1
1529564205532906,2,-4,1,24,5,2,0,2
1529564205540884,-2,3,1,-37,1,-3,-3,-3
1529564205540884,-3,0,-2,16,0,-1,-2,-1
1529564205547892,-2,3,6,23,3,-2,-3,-2
1529564205547892,5,3,-1,-21,-1,-6,-4,0
1529564205563906,-15,-19,0,47,12,0,2,1
1529564205563906,-1,-1,-8,-52,-19,-1,-2,-2
1529564205570807,8,-4,-6,1,-4,1,1,0
1529564205570807,4,9,2,-69,-18,3,4,1
1529564205585767,-3,1,-10,6,-4,-4,-2,-2
1529564205585767,0,3,12,47,18,0,-4,-1
1529564205592788,-9,-13,-19,12,-7,-3,-3,-2
1529564205592788,-1,-1,-2,-7,6,-1,-1,-3
1529564205600766,2,0,-1,27,0,0,2,0
1529564205600766,-4,0,-2,-31,-1,-1,-2,-2
1529564205608749,3,6,14,44,22,0,-2,0
1529564205608749,-6,-8,-14,-42,-31,-4,0,-2
1529564205623709,4,3,5,0,1,3,1,0
1529564205623709,-1,0,0,1,-2,-2,1,0
1529564205630706,-3,-1,0,-17,-10,-3,1,-2
1529564205630706,-4,-7,-10,9,2,-3,-2,-3
1529564205645893,-1,-2,-2,19,10,1,1,0
1529564205645893,0,0,8,8,2,0,-2,-1
1529564205653854,-1,-6,-3,-20,2,0,0,0
1529564205653854,-1,1,0,10,5,0,-2,0
1529564205660839,2,3,2,-4,-6,-1,-1,-2
1529564205660839,-2,-4,-6,1,-4,0,1,0
1529564205668190,-1,3,0,-20,-5,1,0,0
1529564205668190,-2,-2,-1,9,2,-3,-5,-4
1529564205683145,0,1,5,11,4,2,1,0
