timestamp,emg1,emg2,emg3,emg4,emg5,emg6,emg7,emg8
1528190035449809,5,-3,-6,-7,-3,-1,1,-18
1528190035449809,1,3,12,1,-1,-4,-5,-6
1528190035449809,-3,0,-24,-7,-2,8,-1,-3
1528190035449809,-2,-1,11,-3,-2,-6,-2,-7
1528190035451805,0,0,2,-6,-2,11,-3,11
1528190035451805,-1,-4,-5,-1,5,6,4,0
1528190035452802,-1,0,5,4,5,2,4,-3
1528190035452802,-2,-3,-3,-1,0,8,1,15
1528190035460779,-12,-4,-8,-1,-4,-24,-11,-27
1528190035460779,-3,-2,-2,-3,-9,4,-4,-6
1528190035466763,-1,-1,6,1,5,2,-1,2
1528190035466763,1,-1,-5,-4,-7,2,1,-4
1528190035474762,3,-1,3,2,1,-2,1,5
1528190035474762,-3,-2,-6,-4,-1,-15,-7,-4
1528190035504663,1,-1,2,6,10,-18,-3,-1
1528190035504663,3,0,1,-2,0,4,0,-1
1528190035508653,1,2,-3,-21,-3,19,-1,-6
1528190035508653,5,-4,-12,-6,-11,5,5,-3
1528190035510648,-9,-1,-5,35,6,9,4,30
1528190035510648,-10,-8,9,-23,1,-32,-15,-32
1528190035522614,6,0,-10,17,-10,-6,-6,9
1528190035522614,0,0,0,-16,-5,2,6,-2
1528190035535580,3,3,0,-4,13,-1,4,-10
1528190035535580,0,-3,-5,3,4,16,5,4
1528190035538573,-1,2,11,3,1,5,1,8
1528190035538573,-5,-7,-9,-20,-17,-67,-12,-5
1528190035555529,1,-5,-14,-19,-5,44,-6,4
1528190035555529,-3,5,11,28,-2,4,3,-16
1528190035610407,0,-7,-15,-58,-15,12,0,-2
1528190035610407,8,10,8,5,-1,-7,-2,2
1528190035611377,-1,-3,-11,11,-2,-6,-2,3
1528190035611377,-2,2,12,-7,-8,-19,-5,-5
1528190035612376,20,-3,8,19,-5,3,-1,2
1528190035612376,-12,-9,32,-17,10,5,5,-2
1528190035613372,-33,5,14,11,7,1,-5,-13
1528190035613372,-13,-19,-79,3,-14,5,3,13
1528190035617363,4,5,9,-1,-10,-12,2,2
1528190035617363,-6,-2,0,-12,14,5,-3,-8
1528190035623347,-27,-3,-12,30,5,38,4,2
1528190035623347,13,8,-13,0,6,-14,0,19
1528190035630327,-5,-5,0,-12,9,7,1,-9
1528190035630327,8,3,-5,-22,-5,7,-1,12
1528190035646283,1,-2,-17,-3,-3,-10,-1,-7
1528190035646283,8,-3,15,21,0,-9,-4,14
1528190035662249,7,26,-44,-27,-24,0,-1,-13
1528190035662249,-10,-14,5,29,6,2,4,55
1528190035663239,-14,-5,-24,-31,-6,-8,-5,-84
1528190035663239,2,0,-3,7,16,1,-2,14
1528190035692213,10,-17,-26,-31,-13,-13,7,50
1528190035692213,14,9,29,43,26,12,-7,-35
1528190035693205,-19,-1,3,11,-8,-20,0,15
1528190035693205,10,2,-5,4,-14,6,0,-11
1528190035707141,15,-6,2,3,7,-2,-3,-9
1528190035707141,-1,5,2,-33,-1,2,4,-15
1528190035707141,-13,-8,7,12,1,-5,-4,18
1528190035707141,15,7,0,-8,-2,2,0,-19
1528190035721085,3,3,2,6,5,5,-1,8
1528190035721085,-4,-4,-5,-8,-8,-9,-2,-7
1528190035722081,8,-2,-3,-15,6,4,7,52
1528190035722081,-17,2,-9,-3,-1,1,-5,-48
1528190035744059,59,8,54,31,9,5,-2,0
1528190035744059,-41,-20,-38,-19,-30,-13,-3,-5
1528190035745020,-2,-1,-11,-3,18,13,5,-3
1528190035745020,9,6,34,-54,-11,2,5,24
1528190035774000,-13,-14,15,-35,22,8,11,37
1528190035774000,25,16,-4,66,14,-7,-12,-61
1528190035774939,-11,4,50,73,0,-9,0,27
1528190035774939,-17,-5,-50,-56,-27,6,-1,-7
1528190035788954,-1,-10,-23,21,-25,-5,-3,0
1528190035788954,-4,0,26,-35,6,-3,0,18
1528190035789900,13,-2,-17,4,3,9,2,-5
1528190035789900,-7,6,-2,36,16,2,-2,-15
1528190035804865,-39,-4,-4,-13,-14,-12,-11,-27
1528190035804865,-4,-1,14,-4,-15,-4,-1,-52
1528190035804865,-2,-7,-27,-24,-14,-10,0,82
1528190035804865,0,-15,4,19,13,-1,3,15
1528190035834780,21,7,2,-20,-7,5,3,-10
1528190035834780,4,0,49,28,7,1,1,5
1528190035835777,-2,9,-49,-86,-8,-5,-7,-37
1528190035835777,18,10,33,48,3,-7,-4,0
1528190035840764,-54,-19,30,27,1,-3,-4,-18
1528190035840764,11,12,4,-29,-12,6,2,8
1528190035841773,1,-9,14,22,22,8,6,-8
1528190035841773,2,-1,-39,-33,-23,-7,3,72
1528190035864701,-2,-5,-29,10,13,-3,-12,-76
1528190035864701,0,8,4,-17,-10,-5,-3,8
1528190035864701,14,-5,11,8,-12,-6,-1,-13
1528190035864701,-1,5,-2,3,10,-5,0,17
1528190035886660,0,2,-1,14,16,15,5,7
1528190035886660,-5,2,-13,-26,-6,-2,2,18
1528190035887639,-2,8,20,-32,-14,-5,-4,-20
1528190035887639,-26,-25,-49,13,-7,0,3,2
1528190035916569,11,4,-4,-33,-11,-4,-4,8
1528190035916569,-17,-8,8,28,17,2,-3,-50
1528190035917559,-35,-17,-38,-29,-8,-1,6,68
1528190035917559,31,23,32,-6,19,6,1,-9
1528190035924540,20,3,-9,21,-13,-9,-11,-53
1528190035924540,24,7,8,37,8,1,-2,18
1528190035925537,14,0,-8,-14,-11,-3,-5,-34
1528190035925537,-9,-3,33,30,12,3,-2,-40
1528190035946483,-48,-3,-45,-25,-2,0,2,45
1528190035946483,22,-7,23,-13,0,1,4,42
1528190035947478,5,-3,9,8,-6,-3,-5,-17
1528190035947478,-9,1,8,11,-16,-4,-1,-9
1528190035970419,7,-3,-8,5,23,-9,-6,-16
1528190035970419,-10,0,-16,-14,-33,4,6,10
1528190035972411,2,9,14,17,22,0,-2,3
1528190035972411,-3,-11,-18,-35,-11,7,1,-13
1528190035984411,0,-2,27,-6,22,17,3,2
1528190035984411,6,-7,-4,46,27,6,3,22
1528190035984411,-21,4,10,8,-30,-11,-6,-22
1528190035984411,9,-2,0,-4,-6,-8,-1,-11
1528190036006322,2,-7,-13,-12,-23,-1,2,16
1528190036006322,-38,-13,-4,-34,1,-6,-11,-36
1528190036008317,66,-11,-22,24,11,12,4,-7
1528190036008317,8,19,22,-9,8,-6,-3,18
1528190036020317,3,4,-6,-2,-18,-3,4,35
1528190036020317,22,-7,-22,6,1,2,-1,-17
1528190036029274,-28,-3,25,-39,-10,-4,-2,-3
1528190036029274,-25,-16,-27,27,8,1,-3,-5
1528190036059179,27,6,1,8,-1,-1,2,2
1528190036059179,7,7,2,5,10,-3,-4,5
1528190036061175,-12,5,-60,-26,-8,-9,-3,-28
1528190036061175,-5,-4,7,7,7,11,0,14
1528190036067159,4,13,19,7,3,1,3,1
1528190036067159,-24,-10,22,3,-3,0,4,17
1528190036068156,5,5,12,8,15,5,4,46
1528190036068156,-6,2,-15,-12,-13,-13,-11,-92
1528190036080127,-2,0,11,6,8,4,4,47
1528190036080127,21,14,-6,-25,-7,-9,-6,-12
1528190036089099,-11,16,31,28,-7,-2,-3,-23
1528190036089099,-40,-28,-22,5,3,-3,-3,13
1528190036104080,48,10,33,5,-21,-4,0,-15
1528190036104080,-8,-8,-49,-37,-15,-11,-2,-2
1528190036106055,-2,1,7,12,13,2,-6,-8
1528190036106055,-4,8,-4,-43,-9,13,9,17
1528190036126420,12,0,72,39,5,1,-3,-12
1528190036126420,5,-3,-56,-24,-10,-4,0,17
1528190036134401,-6,-13,-34,30,7,0,-1,-6
1528190036134401,16,20,-6,-17,-21,-14,-8,5
1528190036140657,-29,-7,-16,-15,6,-3,-1,19
1528190036140657,42,0,10,-36,-18,5,9,-25
1528190036149684,-23,-8,9,19,3,-6,-5,2
1528190036149684,10,3,10,31,3,-5,-4,-2
1528190036164644,-29,-11,-12,-3,4,-1,-1,-11
1528190036164644,-8,2,-2,-14,-13,3,0,9
1528190036165642,8,-2,-30,-51,-16,-7,-1,1
1528190036165642,-1,-16,25,41,19,4,2,-4
1528190036195770,-47,-8,-8,-23,-14,-9,-6,-6
1528190036195770,62,19,44,8,-4,-6,-3,8
1528190036196560,-23,-15,7,51,14,5,2,-16
1528190036196560,2,-9,-27,-65,-10,-5,-2,13
1528190036216506,-9,1,-18,-11,-10,-1,-3,-5
1528190036216506,-3,-10,8,47,22,8,6,27
1528190036218502,11,18,-3,-37,-15,-6,-9,-38
1528190036218502,13,-14,1,8,2,4,0,-11
1528190036224494,-1,4,-54,16,2,-3,1,5
1528190036224494,-38,-1,37,4,10,3,-3,-14
1528190036225516,26,5,56,19,6,-5,-8,-5
1528190036225516,-30,-26,-25,2,0,9,18,59
1528190036246433,17,18,9,-12,-2,-2,-9,-43
1528190036246433,-20,5,-14,-12,-10,-7,-2,13
1528190036248421,-21,-19,-16,41,10,-4,-6,-2
1528190036248421,12,8,-17,-4,-4,1,-3,-7
1528190036260628,4,-5,13,-7,11,1,2,6
1528190036260628,-42,1,7,-2,6,-6,-6,-26
1528190036277345,23,0,-61,-25,-23,10,8,28
1528190036277345,5,-8,-11,-6,7,-7,0,38
1528190036292584,-1,-1,12,-1,6,-1,-8,-62
1528190036292584,-23,-12,-39,1,-13,-2,-5,-18
1528190036293311,6,-4,5,-11,14,0,0,1
1528190036293311,8,12,18,24,5,-3,-4,2
1528190036307564,-5,-13,-13,-16,-18,-4,0,14
1528190036307564,1,-9,-56,1,-1,-2,-2,3
1528190036308545,4,20,113,-6,0,-3,1,13
1528190036308545,12,11,-10,15,4,2,-3,-32
1528190036320512,1,-1,-4,-1,-2,-1,-1,15
1528190036320512,-2,-3,-9,12,2,5,1,-14
1528190036329783,-9,-18,-17,9,10,4,6,29
1528190036329783,0,8,24,16,-15,-8,-9,-23
1528190036344051,-9,2,-20,-20,-23,-12,-1,5
1528190036344051,2,-9,3,13,3,1,-1,-10
1528190036359692,6,-8,-18,-20,20,-2,0,16
1528190036359692,0,10,37,-9,14,7,3,0
1528190036366930,-33,-12,-35,-26,5,2,3,-4
1528190036366930,22,11,20,29,-17,-1,-2,8
1528190036368669,11,-4,1,-3,-34,-17,-9,-20
1528190036368669,-1,-9,-3,13,20,10,5,-4
1528190036380881,7,3,-24,-4,-1,2,2,34
1528190036380881,10,1,65,9,21,3,-1,0
1528190036395838,-20,2,-5,-11,-9,0,-1,-26
1528190036395838,-5,-1,-20,11,-16,-6,2,29
1528190036403604,2,-2,14,-8,-1,4,0,-26
1528190036403604,13,1,-23,1,10,-6,-3,9
1528190036410559,1,4,-60,-8,-4,2,-1,1
1528190036410559,-9,-8,16,-29,-7,-8,-6,-22
1528190036426532,2,5,22,23,12,4,2,10
1528190036426532,-3,-7,-8,-6,-2,-1,-2,4
1528190036428508,-8,12,43,-6,-5,2,0,-25
1528190036428508,5,-22,-65,7,5,0,1,28
1528190036449793,8,-18,10,6,1,2,1,-10
1528190036449793,-5,4,28,4,-3,-2,6,39
1528190036450450,-5,0,-29,-8,-1,0,-6,-32
1528190036450450,-17,13,0,-9,-3,0,-3,-5
1528190036463434,37,4,16,52,3,0,-2,-2
1528190036463434,-11,-4,-2,-7,1,-5,0,15
1528190036470650,2,23,10,-39,17,6,5,20
1528190036470650,-16,-11,-17,-23,-38,-9,-2,-15
1528190036487377,12,8,-20,-10,-2,-4,-5,2
1528190036487377,-11,12,-2,5,0,1,-1,-18
1528190036489242,4,-11,6,22,6,1,1,13
1528190036489242,-1,-3,17,31,14,3,0,-4
1528190036510084,-30,-6,2,-15,-10,-4,-2,5
1528190036510084,26,-8,10,-17,-11,-4,-1,4
1528190036510911,-5,7,-34,3,0,0,0,-2
1528190036510911,-8,6,62,6,-9,-7,-4,-7
1528190036524219,-3,-9,-11,19,10,5,3,10
1528190036524219,-6,6,-20,-16,2,-1,-4,-20
1528190036530287,-4,-22,11,11,5,4,1,9
1528190036530287,13,13,-31,-4,-1,0,0,16
1528190036547302,36,12,-2,-15,-8,-3,-1,-9
1528190036547302,-21,-1,0,-11,-9,-9,-5,0
1528190036548256,-2,-1,3,-7,-8,1,4,4
1528190036548256,17,20,10,-44,3,2,1,-13
1528190036569202,-25,-25,-18,43,8,-12,-4,53
1528190036569202,-2,3,-27,-35,-18,8,-9,-67
1528190036571157,8,3,42,15,-21,-3,-3,-1
1528190036571157,-6,4,2,-47,2,-1,-5,-17
1528190036591102,-10,4,3,6,-3,4,5,15
1528190036591102,-8,-12,-13,-11,1,-7,-2,18
1528190036608071,10,-7,-20,-3,0,-2,-1,-2
1528190036608071,7,10,12,18,-7,-6,-3,-7
1528190036608071,-4,8,21,11,2,4,3,-20
1528190036608071,-17,-11,3,20,13,1,-4,-9
1528190036614042,-37,-7,-18,-41,-5,-4,0,-5
1528190036614042,44,-1,14,30,5,-5,0,14
1528190036629002,-8,-7,-15,-15,4,3,-1,-11
1528190036629002,-3,9,12,3,-5,4,3,1
1528190036631001,13,0,-10,-5,1,-2,-2,9
1528190036631001,1,-1,-50,18,-1,3,-1,-3
1528190036652937,-10,-4,1,11,12,-17,-6,-13
1528190036652937,8,-4,-16,-34,28,25,7,17
1528190036653934,17,-2,10,39,5,1,0,0
1528190036653934,-35,-22,21,-54,1,-1,1,-19
1528190036665939,40,10,1,-17,-18,-1,-7,-2
1528190036665939,-42,-9,-9,54,-4,-16,0,10
1528190036674882,7,-6,-3,13,5,-6,-3,-5
1528190036674882,-7,4,2,43,-1,7,3,14
1528190036689855,-7,-6,8,-54,-7,-5,-2,-16
1528190036689855,16,16,17,-12,-1,-3,0,18
1528190036690836,5,-5,6,-5,0,4,3,11
1528190036690836,-9,-16,-30,15,-8,-6,-2,-3
1528190036711835,-25,-1,36,2,2,2,-1,-5
1528190036711835,9,1,6,-5,-8,-4,-3,-3
1528190036717808,3,-1,-12,-15,-13,-1,-2,-3
1528190036717808,-32,-18,-8,18,19,2,2,8
1528190036725798,2,-1,0,-8,7,4,-4,-15
1528190036725798,2,-3,-19,-23,-20,-9,0,5
1528190036734745,-19,-2,18,17,6,-2,-2,-7
1528190036734745,53,11,13,-8,8,4,-1,6
1528190036749734,-14,-2,2,5,-10,0,2,19
1528190036749734,-31,0,-13,-2,-8,-8,0,20
1528190036750677,18,14,-19,-16,0,-2,-10,-37
1528190036750677,-8,-1,15,5,0,0,-6,-15
1528190036771676,-10,4,6,11,9,6,4,-13
1528190036771676,58,7,0,-23,-7,4,9,41
1528190036773616,-16,8,38,22,8,-5,2,29
1528190036773616,-14,-18,2,-22,-24,-7,-6,-25
1528190036785639,9,4,-25,2,5,-3,-4,5
1528190036785639,-12,-15,19,20,10,1,-2,-26
1528190036794560,14,13,-19,-29,-8,0,1,8
1528190036794560,1,19,3,-1,-11,-4,0,5
1528190036808522,4,-15,6,36,8,2,0,-4
1528190036808522,-10,12,-16,-46,-13,-2,-2,-9
1528190036815557,22,-4,0,19,-4,0,0,-6
1528190036815557,-4,-1,-9,-34,5,-7,-2,11
1528190036832511,-1,-3,-15,-1,-13,1,2,1
1528190036832511,12,2,11,21,14,5,2,-7
1528190036833508,-15,-5,-10,-7,5,0,1,-15
1528190036833508,-18,-7,0,-22,4,-2,-2,5
1528190036845423,2,6,-13,-9,-15,-5,-3,9
1528190036845423,-24,-14,-2,3,-1,-3,-2,-10
1528190036862414,14,0,2,26,12,1,1,2
1528190036862414,-10,4,-8,-30,-16,1,1,-12
1528190036876398,6,0,-7,-4,6,-3,-2,-3
1528190036876398,0,5,-5,16,4,0,0,1
1528190036878335,-14,-27,-25,-23,-12,-4,-3,-3
1528190036878335,3,0,-1,36,4,-1,-2,2
1528190036892298,9,3,3,-19,0,0,0,2
1528190036892298,2,-9,-5,8,1,-1,-1,-10
1528190036893296,-9,0,6,11,2,-3,-2,11
1528190036893296,10,9,1,-2,-3,-1,0,-1
1528190036914294,-7,-5,-1,-12,-9,-2,0,-2
1528190036914294,2,-5,1,19,12,1,-2,-3
1528190036916234,-3,4,10,-12,-10,0,0,2
1528190036916234,-1,-2,-5,6,7,2,2,4
1528190036937233,-2,-5,0,14,9,-2,-1,-7
1528190036937233,4,1,3,-3,-6,-3,1,3
1528190036938176,-6,-2,1,-7,-7,-3,-3,-1
1528190036938176,2,-3,-5,17,10,4,-2,-4
1528190036952193,-3,4,-6,-12,-5,2,-1,-1
1528190036952193,2,-3,5,-3,-8,-4,-3,-2
1528190036953135,-4,-1,-6,-8,-3,-3,-1,-1
1528190036953135,0,0,20,11,6,0,-1,-1
1528190036974116,2,-7,-8,0,-3,2,0,1
1528190036974116,-3,-1,-2,-7,-6,0,-1,1
1528190036980360,-3,2,-1,8,-2,0,-1,-4
1528190036980360,1,0,-9,2,-3,-2,0,2
1528190036997319,0,0,4,-1,2,1,2,2
1528190036997319,-2,-1,4,2,0,-3,-1,-4
1528190036998311,-3,-2,-2,0,-4,-3,0,-3
1528190036998311,0,-2,-2,0,5,-2,0,-1
1528190037011280,-2,-2,-2,-12,-11,-3,0,-1
1528190037011280,1,-1,2,5,1,0,-3,-2
1528190037025484,-1,0,-2,0,3,1,-1,-3
1528190037025484,-2,-2,-3,-5,-9,-4,-3,-1
1528190037036209,0,0,2,2,5,1,0,-1
1528190037036209,0,0,0,2,-2,-2,-2,1
1528190037037254,0,-1,1,-1,-1,-3,-3,-1
1528190037037254,0,-2,-3,-2,-11,-4,-5,-3
1528190037048178,0,0,-2,4,15,0,-4,-1
1528190037048178,0,-1,-1,-1,0,0,-1,-2
1528190037057154,-3,-1,0,-2,1,1,0,-1
1528190037057154,-2,-1,-6,-1,-6,-1,1,-1
1528190037079342,-1,0,-1,-1,-3,-1,-2,-3
1528190037079342,-1,-2,-1,-1,-2,-1,-2,0
1528190037081090,0,1,-1,0,4,-3,-3,-2
1528190037081090,0,-1,-2,-1,2,2,1,1
1528190037102071,-3,-2,1,-3,-6,-5,-1,-2
1528190037102071,-1,0,0,1,4,3,2,-1
1528190037103069,-1,-1,0,-2,-2,-1,1,0
1528190037103069,2,0,0,-1,-2,-4,-1,-1
1528190037108019,0,0,0,-1,-1,0,0,-1
1528190037108019,-2,-3,-2,-1,-4,-1,-1,-2
1528190037117990,-1,-1,-1,0,1,1,0,0
1528190037117990,-5,-2,-2,-1,2,2,-1,-2
1528190037139932,0,-1,0,-2,-6,-3,-3,0
1528190037139932,2,0,-1,-1,1,0,0,1
1528190037141926,-1,-2,-1,0,-2,-3,-2,0
1528190037141926,-1,-2,-2,-4,-2,-1,0,-2
1528190037142924,-1,1,-2,-1,-4,-3,0,-1
1528190037142924,-1,-2,-2,5,-6,-5,-1,0
1528190037172844,-2,-1,-1,-7,-1,2,-1,-2
1528190037172844,-1,-2,-2,0,-10,-5,-4,-1
1528190037174839,0,1,1,0,25,7,1,0
1528190037174839,1,0,-2,-12,-1,-1,-1,-2
1528190037176834,-1,0,-1,0,0,-2,-1,-2
1528190037176834,0,-1,-2,-1,-10,-3,-2,-1
1528190037192792,-2,-4,-2,0,-6,-5,-1,-1
1528190037192792,-1,-2,1,5,0,0,1,-1
1528190037194786,1,1,0,1,1,0,1,1
1528190037194786,0,-2,-1,-3,1,0,0,-2
1528190037223743,-2,-1,-6,-2,-7,-1,1,-1
1528190037223743,-2,1,4,-1,1,-1,-1,-2
1528190037223743,-2,-1,-6,-2,-7,-1,1,-1
1528190037223743,-2,1,4,-1,1,-1,-1,-2
1528190037225702,0,-1,1,-1,-1,-3,-3,-1
1528190037225702,0,-2,-3,-2,-11,-4,-5,-3
1528190037229692,0,0,-2,4,15,0,-4,-1
1528190037229692,0,-1,-1,-1,0,0,-1,-2
1528190037231686,-3,-1,0,-2,1,1,0,-1
1528190037231686,-2,-1,-6,-1,-6,-1,1,-1
1528190037254935,0,1,1,0,25,7,1,0
1528190037254935,1,0,-2,-12,-1,-1,-1,-2
1528190037265596,-1,0,-1,0,0,-2,-1,-2
1528190037265596,0,-1,-2,-1,-10,-3,-2,-1
1528190037273824,-2,-4,-2,0,-6,-5,-1,-1
1528190037273824,-1,-2,1,5,0,0,1,-1
1528190037292049,1,1,0,1,1,0,1,1
1528190037292049,0,-2,-1,-3,1,0,0,-2
1528190037292951,-2,-1,-6,-2,-7,-1,1,-1
1528190037292951,-2,1,4,-1,1,-1,-1,-2
1528190037296805,-2,-2,-1,0,1,1,0,-1
1528190037296805,2,1,-1,-2,3,3,1,2
1528190037297801,1,1,-1,0,-4,2,1,-2
1528190037297801,0,1,-2,0,-1,-3,-2,-2
1528190037307095,1,1,1,1,0,-1,-3,-1
1528190037307095,-2,-2,1,4,-13,-2,-1,0
1528190037308771,0,0,-1,-2,6,4,-2,-1
1528190037308771,0,-1,-2,0,3,4,1,0
1528190037311948,-2,1,-2,-1,5,-1,0,-2
1528190037311948,-3,-2,-1,1,4,2,-3,-2
1528190037321998,-2,-1,-2,-1,-6,0,0,-2
1528190037321998,-3,-1,-1,-1,-6,-5,-3,-2
1528190037321998,1,-3,0,3,-11,-1,-2,-1
1528190037321998,0,1,-1,-4,4,0,-2,-1
1528190037328717,-1,-1,0,-8,-3,-1,-1,0
1528190037328717,-1,-2,-2,-4,2,-3,-2,-4
1528190037328717,-2,-1,1,-1,-5,-5,-2,0
1528190037328717,-1,-2,-1,2,3,-1,0,-1
1528190037332952,-2,-2,0,0,-4,-2,-1,-3
1528190037332952,0,2,-1,-1,0,-1,1,-1
1528190037340693,-1,0,0,-2,-2,-1,-1,-2
1528190037340693,-3,0,-1,-2,0,-4,0,-3
1528190037356931,3,0,-2,0,1,-2,0,-1
1528190037356931,-2,-4,1,-1,-1,-1,0,-1
1528190037364231,-2,-1,-2,-2,-5,-1,0,-1
1528190037364231,1,0,-1,-2,2,0,1,2
1528190037378225,-3,-7,-2,1,-1,-3,-1,1
1528190037378225,0,1,2,2,-3,-1,-1,0
1528190037387112,-2,-4,-1,0,0,1,-1,-2
1528190037387112,-1,-1,-2,-1,0,1,-1,0
1528190037388848,-1,4,1,-1,-11,-5,-2,0
1528190037388848,-1,-6,-3,-2,7,1,1,0
1528190037417014,0,-1,-1,-1,0,0,-1,0
1528190037417014,0,-2,-3,-3,-10,-3,-2,-1
1528190037418769,-2,-4,-1,3,6,0,-3,-2
1528190037418769,-1,4,-2,-1,-5,-1,-1,-2
1528190037424019,-2,0,0,-4,-2,-1,-1,-1
1528190037424019,0,-3,-3,-1,-1,-2,0,-2
1528190037437720,-2,3,-1,-1,-3,0,-1,-1
1528190037437720,0,1,-2,0,-1,2,-2,0
1528190037446694,0,-5,-3,-1,-1,-2,-1,0
1528190037446694,0,1,3,5,10,2,0,-1
1528190037448715,-2,0,-2,-9,-13,-1,0,-1
1528190037448715,-2,-4,-3,-1,3,-1,0,-1
1528190037469680,1,2,-1,-5,-5,-5,-2,-1
1528190037469680,0,-3,-3,0,3,-1,0,0
1528190037470840,0,0,0,8,7,-1,1,1
1528190037470840,-3,-2,-2,-8,-10,-1,1,3
1528190037484151,-2,-2,-1,1,5,1,3,1
1528190037484151,-2,1,0,-3,-7,0,3,1
1528190037491198,3,1,2,-1,7,3,0,0
1528190037491198,0,-3,-1,-1,-2,-3,0,-1
1528190037507546,-1,1,1,-1,-2,0,0,-2
1528190037507546,-3,-2,-1,0,8,3,0,-2
1528190037509253,-4,-6,-2,-2,-8,-3,-3,-1
1528190037509253,0,-1,1,-2,-2,-2,-2,-1
1528190037522097,0,0,1,3,2,5,0,-1
1528190037522097,-1,0,-2,-3,-5,-2,-2,-1
1528190037530085,-3,-4,-4,-2,-1,0,-1,-3
1528190037530085,-1,-1,-2,-3,-1,-4,-3,-1
1528190037544276,1,2,1,-2,3,-3,0,0
1528190037544276,-1,-2,-2,-2,-4,-2,-1,0
1528190037551160,1,1,-2,1,3,0,0,-2
1528190037551160,-2,0,0,5,1,0,-2,-1
1528190037566979,-2,-2,-1,-3,-5,-2,-3,0
1528190037566979,-2,-3,2,0,-2,0,-2,-1
1528190037568275,-2,0,-2,0,2,0,0,-1
1528190037568275,-1,-1,0,1,-5,0,-1,0
1528190037581208,-3,-3,-3,-1,5,-1,-1,-1
1528190037581208,-3,-2,-2,-2,-3,-1,0,-1
1528190037589524,4,0,1,1,0,-1,0,1
1528190037589524,0,-1,-2,-2,0,0,-1,-2
1528190037612606,-2,-1,-2,0,-3,-2,-4,0
1528190037612606,-1,-1,-2,0,1,-2,-1,-2
1528190037613330,-2,-1,0,2,-2,-1,-1,-1
1528190037613330,0,-2,-2,-4,1,-2,-1,-1
1528190037626295,-1,-1,-1,0,-3,-1,-1,-3
1528190037626295,-1,0,-1,-1,-1,0,-2,-1
1528190037634274,-1,-1,-1,-1,-2,-1,0,0
1528190037634274,-2,0,0,0,2,-3,1,3
1528190037640636,-2,-1,-3,1,2,1,1,0
1528190037640636,-1,1,2,-2,0,-1,-1,2
1528190037649566,1,3,3,-1,2,1,-2,1
1528190037649566,1,2,2,1,0,0,0,0
1528190037664935,2,1,0,-1,-3,0,1,-1
1528190037664935,3,0,-1,-4,-1,-1,0,0
1528190037670510,1,1,0,0,0,-1,-1,2
1528190037670510,0,-1,0,0,1,-1,0,-2
1528190037687295,-1,0,0,-1,-1,0,0,-1
1528190037687295,-1,-2,-1,-3,-1,0,0,0
1528190037689293,-2,-2,-2,-1,-2,-2,-2,-2
1528190037689293,1,0,1,0,0,-1,-1,0
1528190037701261,0,0,0,-2,-1,-2,-2,-1
1528190037701261,1,0,-2,-1,-2,-4,-3,-2
1528190037715485,-1,-1,-3,-2,-1,-2,-3,-1
1528190037715485,-2,-2,-4,-1,-2,-3,-4,-2
1528190037724391,-3,-3,-2,-2,-2,-4,-1,0
1528190037724391,-3,-3,-3,-3,-2,-1,-1,-2
1528190037738161,-4,-3,-4,-2,-2,-2,-1,-3
1528190037738161,-1,-1,-1,0,-3,0,1,-3
1528190037747454,0,-2,-1,0,-1,0,-1,-1
1528190037747454,-2,-1,-3,-2,-4,-2,-2,-1
1528190037748135,-4,-2,-3,0,0,-2,0,-3
1528190037748135,-1,-1,-2,0,-2,-1,-2,-1
1528190037761203,-1,-2,0,-2,-4,-2,-1,-2
1528190037761203,-2,-1,-1,0,-1,-2,-1,-1
1528190037770134,-1,-3,-2,-4,-1,-1,0,0
1528190037770134,-1,-1,-1,-1,-1,-1,-1,-1
1528190037783349,-1,-2,-1,1,-1,-2,1,0
1528190037783349,-2,1,-2,-1,0,-1,0,0
1528190037790331,-1,-2,-1,-2,-1,-1,0,-2
1528190037790331,-3,-2,-1,-2,-1,-1,-2,-2
1528190037807175,-2,-1,-2,-3,-2,0,0,-1
1528190037807175,-2,-1,-1,-2,0,-1,-2,-1
1528190037809159,-2,0,-1,-1,1,1,-1,1
1528190037809159,-3,-1,-1,0,0,0,0,-3
1528190037829767,-3,-1,0,1,-3,-2,-2,-2
1528190037829767,-1,-2,-1,-1,-3,-2,-1,-1
1528190037830759,-1,-1,-1,-2,1,2,0,-1
1528190037830759,1,-1,-1,-1,0,-2,-1,-2
1528190037843718,-2,-2,-2,-2,-1,0,-2,-2
1528190037843718,0,-1,0,0,0,0,0,-1
1528190037850951,-2,-1,-2,-1,-4,-2,1,1
1528190037850951,0,0,0,-2,1,3,1,4
1528190037867674,-1,-1,-1,-1,2,0,1,1
1528190037867674,0,2,2,-1,0,1,0,1
1528190037868652,-6,-1,1,1,0,-2,-2,-1
1528190037868652,5,1,0,0,0,-1,0,1
1528190037880620,1,0,-2,-2,0,-2,-1,0
1528190037880620,1,-1,0,0,0,0,0,-2
1528190037889595,3,-1,0,-2,-1,-2,-1,-2
1528190037889595,-1,-1,-1,-2,0,-2,-1,0
1528190037912153,-1,1,-1,-1,0,-1,-1,-1
1528190037912153,0,0,-3,-1,-1,-1,-1,-1
1528190037912837,0,0,-2,-1,0,0,-1,-2
1528190037912837,-4,0,0,-1,-1,0,-2,-1
1528190037926487,1,0,0,-1,-1,-2,-2,-1
1528190037926487,-1,-1,-2,0,0,-1,-1,0
1528190037933401,1,-1,-1,-2,-1,1,0,1
1528190037933401,-1,-1,-1,0,-1,1,-1,-2
1528190037941209,-1,-2,-2,-1,-2,0,-1,-1
1528190037941209,1,0,-1,-1,-1,-2,0,0
1528190037949114,0,-2,-1,0,0,-1,-1,-2
1528190037949114,-1,0,-1,-3,-1,-2,1,-1
1528190037972072,0,0,-2,0,-1,-2,0,-2
1528190037972072,-2,-2,-2,-1,-1,0,-2,-2
1528190037974203,-1,-1,-2,-1,-2,-1,-1,-2
1528190037974203,-2,-2,-1,0,-3,-1,-1,-1
1528190037995081,-2,-2,-1,-1,2,-1,0,-1
1528190037995081,-5,-2,-1,-3,-1,-2,0,0
1528190037996004,7,1,-2,-2,-1,-1,-2,-2
1528190037996004,-1,-1,-2,-2,0,-3,-1,-2
1528190038001070,-1,0,-1,0,-1,-1,-1,-1
1528190038001070,0,-1,-2,1,0,-1,-1,-1
