timestamp,emg1,emg2,emg3,emg4,emg5,emg6,emg7,emg8
1529295699273169,-1,0,-2,-1,-2,-2,-3,-1
1529295699273169,-1,0,0,-3,-2,1,0,-1
1529295699282170,0,1,0,-1,0,-1,-2,-1
1529295699282170,-2,-1,-2,-2,-1,0,-1,1
1529295699288128,0,0,-1,0,-1,2,1,1
1529295699288128,-1,-1,-1,0,-1,0,-1,0
1529295699303108,0,0,-1,0,-1,-2,-2,-1
1529295699303108,-1,0,1,0,-2,0,-1,-2
1529295699311068,-2,0,0,-1,0,1,1,-1
1529295699311068,-2,-1,-1,0,-1,-1,0,-3
1529295699320045,1,-1,-1,-1,0,-2,-1,-2
1529295699320045,-2,0,0,-1,2,1,-4,-3
1529295699334006,-1,-2,-7,-8,9,4,1,1
1529295699334006,1,1,14,14,-7,-1,4,-1
1529295699348967,-4,-3,-10,-5,-12,-6,-1,0
1529295699348967,-1,3,13,0,-6,3,-12,0
1529295699349963,0,-3,1,0,-10,-7,-9,-2
1529295699349963,-1,-2,-9,9,52,4,-2,-1
1529295699363926,-2,-2,0,11,-25,-2,1,-2
1529295699363926,-2,0,-7,-21,10,3,6,-2
1529295699370907,-1,0,-6,-8,-18,0,0,-2
1529295699370907,0,3,15,22,3,4,-2,-3
1529295699379885,4,2,6,-7,4,2,3,2
1529295699379885,-1,-4,-11,-11,6,0,1,-3
1529295699393846,-2,0,13,30,15,1,-1,-2
1529295699393846,0,-7,-23,6,-13,-8,0,2
1529295699402823,-1,-2,3,-2,21,8,3,3
1529295699402823,-1,0,5,3,-12,-1,3,2
1529295699408833,0,-7,-22,-27,-5,0,2,-2
1529295699408833,2,18,32,14,-8,-2,-5,0
1529295699424765,-1,9,10,17,14,-2,-8,0
1529295699424765,6,-8,-20,-2,-6,4,1,3
1529295699430785,0,13,5,-10,-5,1,8,3
1529295699430785,-3,-19,-8,-8,-6,5,0,1
1529295699439725,-2,0,-4,-8,4,-7,6,-2
1529295699439725,0,9,5,3,-3,-1,-13,-2
1529295699453686,-5,4,-1,10,10,-14,4,-2
1529295699453686,0,-6,-20,-42,-5,6,6,3
1529295699462662,3,-3,2,11,-32,-23,0,-4
1529295699462662,3,-8,-1,6,25,46,1,1
1529295699468647,1,5,16,8,4,-36,-9,1
1529295699468647,-2,-7,10,-6,-11,-9,-1,-2
1529295699483632,-2,5,-14,-11,2,-4,-3,0
1529295699483632,-6,-6,-13,3,-11,-40,-15,-9
1529295699490614,7,0,3,-6,0,38,17,3
1529295699490614,-4,13,8,3,7,15,3,6
1529295699499591,-4,-12,-4,-7,-1,-16,-13,-9
1529295699499591,7,2,5,9,12,27,22,10
1529295699513526,-9,-4,7,-3,-6,4,-12,-12
1529295699513526,-7,-11,-14,-7,-5,-25,-10,-13
1529295699522502,3,6,2,-3,9,23,24,6
1529295699522502,-5,7,4,-1,-17,-8,-5,-4
1529295699528533,3,-12,-11,-1,5,17,-6,8
1529295699528533,11,9,-3,-1,1,-29,8,10
1529295699543447,-7,-10,1,1,13,31,-18,-7
1529295699543447,0,-7,-4,-16,-42,-70,-22,-10
1529295699551462,-5,0,1,5,16,4,4,-14
1529295699551462,4,3,0,4,8,19,12,3
1529295699560401,-6,0,-1,-7,10,31,5,-9
1529295699560401,10,3,5,9,12,28,44,22
1529295699573366,-3,-4,-8,-3,-9,10,-5,4
1529295699573366,-1,-3,-1,-7,0,-37,-46,-14
1529295699582353,1,0,0,3,-26,-35,-10,-2
1529295699582353,-4,0,2,2,2,22,-8,-5
1529295699588327,7,2,-2,-1,4,-4,22,10
1529295699588327,-3,-4,-3,-1,1,29,32,4
1529295699603286,-5,2,3,4,12,4,-15,-6
1529295699603286,0,1,0,0,10,10,-3,-3
1529295699611266,0,0,-4,-3,-7,-1,-4,2
1529295699611266,-6,-5,-7,-2,-3,-27,-7,-8
1529295699620242,12,6,4,-2,-4,-4,-5,18
1529295699620242,-10,-6,4,5,-2,-10,-9,-12
1529295699633206,12,8,8,15,27,32,17,10
1529295699633206,-12,-8,-5,-10,-24,0,-1,-1
1529295699642209,11,3,0,-1,-5,-12,4,6
1529295699642209,-5,2,-2,-2,-3,-3,-10,-2
1529295699648225,-6,-2,-1,-2,-6,-12,-10,-13
1529295699648225,2,0,-8,-8,8,-9,8,-1
1529295699672102,-1,-2,3,4,-5,-4,-17,2
1529295699672102,7,7,5,2,8,-15,-7,2
1529295699672102,-4,-5,-7,-7,-12,-10,-9,-5
1529295699672102,7,5,11,13,8,25,4,4
1529295699680081,-3,-4,-5,-5,7,14,13,1
1529295699680081,-5,0,0,2,10,-6,-7,-8
1529295699694044,-1,-2,-2,-2,-4,-9,-3,5
1529295699694044,-1,2,-9,-6,-16,2,6,1
1529295699703019,-7,-4,7,-5,20,2,-10,-9
1529295699703019,2,6,4,7,3,7,9,4
1529295699709007,-4,-6,-8,-8,4,-14,-7,-2
1529295699709007,0,0,10,10,-5,7,-5,-4
1529295699723980,0,0,7,12,-11,-7,4,1
1529295699723980,3,1,-6,-23,2,2,5,2
1529295699730972,1,3,4,8,10,7,5,5
1529295699730972,-1,-2,-10,-14,-9,-8,-6,-1
1529295699739922,1,-3,-17,-15,-1,11,8,2
1529295699739922,-4,-3,9,25,-2,-23,7,-1
1529295699753884,1,-1,-6,-24,-5,0,-15,-5
1529295699753884,1,5,0,5,21,10,-5,-1
1529295699762862,1,-3,-10,-17,0,5,22,3
1529295699762862,1,4,7,7,-11,-18,-22,-1
1529295699776824,1,-5,1,8,7,8,4,2
1529295699776824,2,4,5,2,0,7,-4,-1
1529295699783803,-12,-9,-12,-6,-1,-25,0,-3
1529295699783803,-2,-5,-4,-10,-19,4,2,-5
1529295699790830,3,4,7,11,-3,-7,-6,1
1529295699790830,2,4,5,-2,3,17,-3,1
1529295699799760,-3,-1,-3,0,-18,-19,-5,-5
1529295699799760,-2,-6,-5,-2,20,21,8,2
1529295699813743,-5,-4,0,-2,-21,-29,-30,-6
1529295699813743,2,2,-2,8,25,16,12,3
1529295699822700,3,9,16,12,-13,-13,-2,-2
1529295699822700,-4,-8,-9,-8,-2,-2,-7,-2
1529295699836666,0,-2,-4,4,6,-3,13,0
1529295699836666,-3,3,23,-11,-21,-32,-16,-9
1529295699843644,2,1,1,7,8,8,-4,0
1529295699843644,-3,-7,-5,-7,4,14,12,0
1529295699851628,3,1,-5,0,-4,22,16,3
1529295699851628,-1,-5,-9,-3,-20,-32,-13,-1
1529295699859640,-3,5,8,5,15,18,12,1
1529295699859640,-2,-2,-6,-5,-5,-8,-9,-2
1529295699873605,0,0,6,2,1,4,2,1
1529295699873605,-3,-5,0,-2,-8,-3,5,-1
1529295699882540,5,4,-4,-5,7,5,-4,4
1529295699882540,3,2,0,6,4,-7,3,3
1529295699896532,-7,-7,-9,-10,-10,-7,-2,-5
1529295699896532,-2,-2,-8,3,37,13,-5,-1
1529295699905487,-5,-6,2,-1,-20,-6,-8,-4
1529295699905487,-2,2,3,13,-5,6,8,0
1529295699911461,5,2,-3,-16,1,3,12,-1
1529295699911461,3,4,4,3,-14,15,-17,4
1529295699920443,-2,-5,-1,-2,-18,-22,-1,-2
1529295699920443,-2,-2,-2,1,-1,-2,-7,-4
1529295699933429,-2,2,3,2,5,-2,0,-3
1529295699933429,0,-6,-13,-9,-12,15,6,-2
1529295699942412,1,-2,-6,6,10,-11,3,0
1529295699942412,2,0,2,-9,-13,-2,-5,1
1529295699956343,-2,1,5,6,5,0,5,2
1529295699956343,-2,0,0,0,2,-3,-8,1
1529295699963363,1,3,6,9,8,23,10,1
1529295699963363,0,4,8,2,-2,-5,11,-2
1529295699971303,-6,-6,-2,2,-8,-16,-27,-3
1529295699971303,1,3,2,3,10,-1,11,1
1529295699980315,-2,-6,-6,-5,-3,4,-11,-4
1529295699980315,-2,-3,-1,-5,-16,7,15,3
1529295699993244,2,5,8,10,6,-4,-15,-2
1529295699993244,-1,-5,-2,2,-4,-9,-5,-2
1529295700002219,0,0,-4,-3,-7,8,3,2
1529295700002219,1,2,-3,-7,8,8,-2,4
1529295700017192,2,3,4,6,-13,-5,9,-1
1529295700017192,-4,-5,-4,0,-8,3,4,-1
1529295700023163,4,2,8,1,4,-5,-1,-1
1529295700023163,-1,0,1,-8,0,-5,-10,-3
1529295700031197,-1,0,-7,-10,3,-2,5,1
1529295700031197,0,-6,-9,1,3,0,5,1
1529295700040122,-1,2,3,-4,-18,6,10,-1
1529295700040122,-3,-4,-2,4,32,-7,-11,-2
1529295700054083,1,2,0,-4,0,-1,0,-2
1529295700054083,-1,-2,-6,-9,-2,3,-6,-1
1529295700063363,-6,-6,-14,-15,40,10,7,0
1529295700063363,-4,-4,0,17,-70,-28,-1,-3
1529295700077385,-1,2,-3,-26,-4,-11,-5,-1
1529295700077385,5,11,16,22,12,8,7,0
1529295700083507,1,6,16,-3,-10,1,4,0
1529295700083507,-2,-3,-6,-2,26,-2,-6,-1
1529295700091501,-6,-10,-8,5,-8,-11,-15,-5
1529295700091501,0,3,-6,2,-8,6,21,2
1529295700106220,-1,-4,-8,-13,-8,-11,-16,-1
1529295700106220,1,-2,-5,-1,6,23,7,-1
1529295700113201,2,4,19,17,-10,-4,-3,3
1529295700113201,0,1,1,0,10,-16,-2,-1
1529295700122178,0,1,-1,10,4,10,1,0
1529295700122178,-2,-5,-14,-18,10,-5,-6,-2
1529295700137139,2,6,22,19,12,7,1,-1
1529295700137139,-6,-5,1,-7,-21,9,-1,-4
1529295700143123,5,-3,-4,-3,-13,-9,-8,2
1529295700143123,5,12,5,1,8,14,13,3
1529295700151101,-2,-4,-10,-10,4,1,2,-2
1529295700151101,-2,-3,-2,5,8,-17,-12,-3
1529295700166061,-2,-2,0,-6,-10,-6,4,-1
1529295700166061,1,0,4,1,-10,9,10,4
1529295700173043,-1,-2,-9,-4,27,12,-3,0
1529295700173043,-3,-4,-2,13,2,-11,3,-2
1529295700183016,3,8,7,-23,29,7,-8,0
1529295700183016,-1,-2,-2,4,-46,-9,2,1
1529295700196977,2,0,-5,-4,3,-4,-6,1
1529295700196977,-1,-2,-1,-1,-8,1,-9,-2
1529295700203968,-1,-3,-3,12,20,-6,2,-1
1529295700203968,1,0,7,2,9,5,9,1
1529295700218973,1,-2,-10,-3,-17,5,-2,2
1529295700218973,0,0,-2,-14,21,8,6,0
1529295700225953,-2,1,2,10,-31,-17,-22,-3
1529295700225953,3,5,7,0,12,-8,1,2
1529295700233932,-6,-8,-6,5,-7,-2,1,-4
1529295700233932,0,3,2,-3,-15,12,10,0
1529295700242881,-1,-4,-8,-12,13,12,-1,-4
1529295700242881,-1,4,12,18,18,-21,-16,-1
1529295700256857,0,-2,3,1,-7,7,13,0
1529295700256857,-3,-1,1,-5,-8,-1,-2,1
1529295700263800,-1,-5,-7,0,-3,1,-4,-2
1529295700263800,-4,-5,-8,-5,13,5,-6,-3
1529295700279757,4,1,0,2,-15,-9,2,1
1529295700279757,-1,1,1,-5,0,3,-2,1
1529295700285794,2,3,0,8,-12,4,21,5
1529295700285794,-4,-2,12,12,14,0,-6,-5
1529295700302695,-1,1,2,-4,8,0,6,-3
1529295700302695,0,-5,-9,-7,-5,0,0,-2
1529295700303693,-5,-5,-9,-6,-6,-10,-10,-4
1529295700303693,2,2,-4,-5,6,4,-2,-1
1529295700316683,-1,-1,4,5,-5,-1,0,-1
1529295700316683,2,2,2,0,-1,-2,-2,0
1529295700323692,-1,-1,0,2,0,3,6,2
1529295700323692,0,-3,-12,-11,7,6,6,3
1529295700339651,-3,-4,6,3,-11,-2,-11,0
1529295700339651,-2,7,3,1,5,9,5,0
1529295700345636,3,5,1,5,-1,-20,-2,0
1529295700345636,-2,-5,-3,-5,-4,4,-1,-2
1529295700362582,-2,1,-6,-6,5,-1,-1,1
1529295700362582,-2,-7,-3,-5,-14,-3,5,-1
1529295700363588,-3,-2,-3,5,25,0,-17,-3
1529295700363588,1,2,-2,-9,-15,-6,7,2
1529295700376498,-4,-6,-7,3,-2,7,-1,-2
1529295700376498,3,4,7,5,13,-10,-3,3
1529295700385523,-2,0,-1,-3,-1,4,-1,-1
1529295700385523,2,-2,-1,0,11,3,1,-1
1529295700399491,0,2,-2,-7,-20,13,11,1
1529295700399491,-3,-7,-8,1,0,-10,-8,-4
1529295700406472,-1,1,5,0,-3,-1,3,-2
1529295700406472,-1,-2,-5,-1,5,6,-5,0
1529295700422375,4,5,-2,0,9,6,14,2
1529295700422375,-1,2,3,-1,4,2,-7,1
1529295700424369,-5,-8,-3,-1,-3,-8,0,-3
1529295700424369,0,1,6,4,-7,3,6,0
1529295700436337,-2,-4,-6,-7,1,-1,-2,-3
1529295700436337,-3,-3,-3,-5,-11,-6,1,-1
1529295700445315,3,2,0,3,-11,8,7,2
1529295700445315,0,0,6,0,12,2,-4,1
1529295700459583,0,0,-3,0,7,-7,1,1
1529295700459583,-2,-3,-2,-7,-15,8,-5,-4
1529295700466757,-1,-4,-8,-1,-15,6,4,-1
1529295700466757,2,6,9,2,-5,-5,-8,-2
1529295700482521,-1,3,12,9,5,-18,-16,-1
1529295700482521,0,-2,-4,-7,-6,-6,2,0
1529295700484517,-4,2,6,5,19,5,-3,-1
1529295700484517,-4,-5,-9,2,-16,2,6,-3
1529295700496511,-1,-3,-5,-1,1,3,1,0
1529295700496511,1,5,6,2,9,2,5,1
1529295700505460,2,1,-5,-5,4,-14,-11,-2
1529295700505460,-4,-7,-3,-1,-14,-4,-6,-2
1529295700519453,2,0,-1,-3,7,4,5,3
1529295700519453,1,-1,-1,7,1,0,-1,-1
1529295700526666,0,1,-2,-5,0,5,7,1
1529295700526666,-1,-4,-9,4,-20,-15,-3,-2
1529295700543268,-3,0,4,-8,26,1,-14,-10
1529295700543268,2,2,-7,-5,3,0,-3,0
1529295700544115,3,5,16,5,-5,-4,-4,-1
1529295700544115,-3,-1,-3,-5,8,8,2,-2
1529295700556441,-3,-3,-8,-1,-17,-5,8,3
1529295700556441,-5,-4,-3,-3,3,4,-1,-3
1529295700565381,-3,-4,0,2,3,-7,3,-1
1529295700565381,1,1,0,5,2,-4,-11,1
1529295700579762,1,2,8,8,-3,8,7,3
1529295700579762,-3,-3,0,-6,-8,1,-10,-2
1529295700585745,1,-2,-7,-11,6,3,2,1
1529295700585745,2,7,20,27,-8,-13,-3,1
1529295700602787,3,-1,-11,-15,12,-5,-4,1
1529295700602787,2,-3,-9,-8,-3,0,-3,0
1529295700603694,1,1,-2,-6,12,9,2,2
1529295700603694,-1,-1,-3,-9,-5,-10,-3,-2
1529295700616848,0,6,17,26,18,0,-11,-1
1529295700616848,-2,-2,2,9,-48,-6,3,-3
1529295700625016,0,-2,-6,-4,-5,6,1,-1
1529295700625016,-2,-6,-22,-12,16,8,1,4
1529295700640067,1,-4,-10,-27,-6,0,2,8
1529295700640067,-2,0,-3,4,12,1,3,-20
1529295700645996,0,11,12,10,-17,-6,-4,-4
1529295700645996,-3,-10,-13,-19,5,8,5,-5
1529295700663161,-3,-6,8,19,-13,0,7,4
1529295700663161,4,3,0,-7,9,-4,-5,6
1529295700663945,-3,-5,-8,-2,-8,4,9,-2
1529295700663945,1,2,4,7,15,-15,-9,-1
1529295700676632,2,6,2,-13,11,3,0,-3
1529295700676632,-3,-3,6,7,-20,-6,3,4
1529295700685289,-2,-3,1,12,14,9,-4,-3
1529295700685289,0,0,-8,-7,-4,3,-4,0
1529295700699523,-1,0,-1,9,0,0,4,-3
1529295700699523,1,4,12,4,14,-1,-8,0
1529295700706496,-2,-5,-8,-2,-15,-12,-1,1
1529295700706496,1,1,10,1,-6,6,0,-2
1529295700723224,0,1,1,1,-13,-4,2,-4
1529295700723224,0,-1,-8,-7,20,9,10,2
1529295700724216,-1,-1,-3,-3,9,2,-3,-3
1529295700724216,0,1,0,-3,-3,5,5,2
1529295700736153,-2,-4,-5,-3,-12,-3,-6,-5
1529295700736153,0,2,-8,-4,-2,-4,-2,5
1529295700745660,7,1,5,2,-2,1,1,5
1529295700745660,2,7,14,13,12,4,2,0
1529295700759364,-1,-2,-1,5,-1,4,0,2
1529295700759364,-1,-3,-8,-9,-4,-14,0,0
1529295700766608,0,1,-1,-10,-7,2,-8,-2
1529295700766608,1,5,7,0,-8,10,7,0
1529295700782615,1,-1,-3,0,-3,-7,0,0
1529295700782615,-2,-1,-1,14,0,-1,0,0
1529295700783615,-3,0,0,-6,19,4,-1,0
1529295700783615,-2,-5,-5,-7,-10,-10,-4,-1
1529295700796583,-2,-4,-4,-1,-1,3,-2,-5
1529295700796583,0,-2,2,-2,2,-3,-3,1
1529295700804890,1,-3,-1,7,-7,6,9,-1
1529295700804890,-1,-1,-7,-11,4,1,-3,0
1529295700818815,0,0,-7,-5,-12,-14,-2,-1
1529295700818815,1,-3,-1,-3,7,9,4,0
1529295700826085,-2,-1,0,2,4,-9,-9,-3
1529295700826085,-1,-2,-12,-9,-6,5,-2,-1
1529295700842345,-2,-1,6,0,-15,-11,-3,-1
1529295700842345,0,1,9,5,12,6,6,5
1529295700844341,-1,-1,6,4,10,-3,-16,1
1529295700844341,-2,-4,-9,-7,-32,-9,-1,-2
1529295700856347,-1,0,-5,-7,-6,5,1,-2
1529295700856347,0,0,3,-3,-7,0,-1,-3
1529295700865284,2,2,1,6,5,-2,6,1
1529295700865284,0,-3,-8,-7,3,2,2,1
1529295700879931,-2,1,12,10,-6,3,-1,1
1529295700879931,0,0,0,-2,-3,-4,-2,-1
1529295700886051,-2,-3,-3,-4,-26,3,5,-1
1529295700886051,1,0,2,9,29,8,-5,-1
1529295700902308,-3,-5,-14,-10,4,5,5,0
1529295700902308,0,5,-1,-24,-6,-9,-10,-2
1529295700903947,0,6,25,18,-14,-5,-4,2
1529295700903947,-2,-1,11,19,2,-1,-3,0
1529295700916146,-2,-5,-10,-5,5,1,-1,-3
1529295700916146,-3,0,-1,8,4,6,1,-2
1529295700925031,-1,-4,-11,-8,-5,0,7,0
1529295700925031,-4,-4,1,-17,-20,-5,-14,-2
1529295700939954,0,-3,-8,15,3,-10,2,-1
1529295700939954,0,-4,-10,-35,-1,-2,-8,0
1529295700946816,-2,6,17,22,4,1,4,2
1529295700946816,2,-1,-2,2,7,7,4,0
1529295700962502,-1,-2,-7,-10,-15,-10,-3,-4
1529295700962502,-5,-7,-13,-1,42,1,3,-4
1529295700964243,1,-1,6,3,-36,-14,-8,0
1529295700964243,1,-1,-7,-7,2,8,15,3
1529295700976786,4,11,16,8,4,5,-9,1
1529295700976786,2,3,8,19,4,1,17,14
1529295700984997,-4,-6,-12,-22,-2,-2,-10,-21
1529295700984997,-3,0,-3,-2,-7,-6,-8,-4
1529295701000039,-1,-3,-4,-6,3,-3,3,-3
1529295701000039,1,-2,7,10,-18,1,3,0
1529295701006032,-2,-4,-15,-8,18,13,10,5
1529295701006032,-1,1,4,9,-5,-18,-10,-1
1529295701021984,0,3,-1,-16,0,6,5,0
1529295701021984,1,4,17,28,-4,-4,-4,-5
1529295701023974,3,-2,-15,-23,15,7,8,9
1529295701023974,1,8,23,17,13,-11,3,-3
1529295701036089,-2,-2,-3,-4,-3,7,-2,6
1529295701036089,1,-2,-8,-5,-4,-6,-3,0
1529295701044998,-4,-4,-8,-4,0,5,2,-2
1529295701044998,2,1,-3,-1,3,7,8,6
1529295701059921,-2,-2,-6,-10,-5,-9,-7,-3
1529295701059921,-5,0,10,7,-18,3,-3,-1
1529295701066095,0,0,-5,-9,11,-3,-4,1
1529295701066095,-2,-3,-8,-12,-1,-1,1,0
1529295701083155,-1,-1,-1,12,-13,-7,-2,-2
1529295701083155,-3,-4,-7,-7,3,8,-9,-2
1529295701088802,-2,-2,0,6,7,-2,7,1
1529295701088802,0,-4,-8,-7,0,-10,-10,-4
1529295701104993,-1,2,7,9,3,4,-12,-3
1529295701104993,1,-2,-6,0,10,3,-4,2
1529295701106753,-1,-1,3,-4,-11,-9,-4,-2
1529295701106753,0,0,-12,-9,7,7,10,0
1529295701118984,1,0,4,5,-3,1,5,0
1529295701118984,2,1,3,4,-3,-5,-3,0
1529295701127698,-1,0,1,3,-2,2,-2,1
1529295701127698,0,-3,-4,-5,-7,-1,1,-1
1529295701141965,0,-2,-4,-6,2,-1,-3,-3
1529295701141965,4,1,4,3,-7,0,5,1
1529295701149216,1,0,-3,3,5,3,5,1
1529295701149216,-3,0,3,2,6,3,0,0
1529295701156190,-4,-2,-4,-8,-4,-3,-1,-1
1529295701156190,0,1,-4,-1,37,8,2,0
1529295701164993,-1,0,6,7,-32,-5,-5,-1
1529295701164993,0,0,-2,3,-6,-16,0,2
1529295701179926,-1,1,9,-2,16,5,3,2
1529295701179926,-3,-5,-15,-8,-10,-3,-9,-3
1529295701185985,1,3,11,4,5,0,-2,-1
1529295701185985,0,0,0,4,-2,3,-5,-2
1529295701202065,-3,-4,-7,-4,-8,4,2,-2
1529295701202065,-2,0,1,-2,-4,-12,-2,-2
1529295701209031,-2,-1,-2,-2,-1,-1,-11,0
1529295701209031,-2,-2,-2,0,2,3,0,-1
1529295701225013,2,0,2,1,16,2,-2,0
1529295701225013,-1,2,3,-1,-10,0,3,0
1529295701226738,-1,-2,-5,1,-8,5,8,-1
1529295701226738,-1,1,5,0,-5,-6,-5,-2
1529295701240054,1,3,4,3,11,-2,-10,-1
1529295701240054,0,-1,-2,-5,-13,2,2,0
1529295701246791,-1,-2,-4,-11,2,-11,4,2
1529295701246791,-3,-1,5,7,-17,-12,-4,-1
1529295701261884,-1,2,3,-2,-5,-1,2,0
1529295701261884,0,-2,-3,-3,-6,2,2,0
1529295701268889,1,-1,-4,-1,-1,5,2,-1
1529295701268889,2,1,0,-3,-1,3,2,0
1529295701292562,-1,-1,-1,6,17,1,-4,2
1529295701292562,0,-3,-1,-2,-15,-1,7,1
1529295701294785,1,2,0,3,11,-1,-2,6
1529295701294785,0,2,0,0,14,7,-6,-10
1529295701298809,1,-1,-2,1,-5,0,4,2
1529295701298809,-1,1,1,-2,5,-5,-2,-1
1529295701307353,-2,-2,1,0,-22,-11,-7,-4
1529295701307353,0,-1,-2,1,15,11,2,2
1529295701322044,-4,-2,-3,-6,2,3,8,1
1529295701322044,-1,-2,0,1,-5,-4,-3,-2
1529295701329304,0,0,-1,2,-1,-1,1,1
1529295701329304,0,0,-1,-4,13,2,1,1
1529295701345583,1,-3,-2,0,-3,-2,-1,-2
1529295701345583,1,1,3,2,5,-5,-7,-3
1529295701347369,-2,-1,-2,1,14,5,0,-4
1529295701347369,-3,-1,-1,-3,-2,-5,-3,0
1529295701358692,-1,-1,-1,1,-9,-7,-3,0
1529295701358692,-1,0,-3,-4,12,4,6,5
1529295701367676,-1,-1,-2,-2,-28,4,-12,-12
1529295701367676,-4,-2,0,-5,-8,-6,-5,-6
1529295701381862,0,1,1,0,14,-2,-2,-9
1529295701381862,1,5,2,1,-21,0,4,8
1529295701388878,-2,-5,-3,5,10,-1,6,4
1529295701388878,-1,-6,-4,-3,8,11,0,-8
1529295701405667,2,-1,-1,0,-26,-4,8,-5
1529295701405667,-4,-2,1,2,19,-1,-13,-7
1529295701406567,-1,2,0,-4,-5,-4,-8,-9
1529295701406567,-2,-1,1,5,-14,-5,1,10
1529295701419198,0,-1,-1,5,31,14,6,9
1529295701419198,-1,-4,-6,-15,-22,-3,5,7
1529295701427281,1,4,-1,3,9,2,2,3
