timestamp,emg1,emg2,emg3,emg4,emg5,emg6,emg7,emg8
1529306698603172,3,-3,-5,3,3,1,0,3
1529306698603172,5,10,12,6,10,5,2,1
1529306698604169,-2,0,-6,-11,-16,-8,-4,-1
1529306698604169,-4,-5,0,2,-1,-1,1,-2
1529306698607188,-4,-11,-8,-9,-3,0,1,1
1529306698607188,0,1,0,4,4,3,1,2
1529306698608158,-2,-6,-5,1,5,4,-1,-1
1529306698608158,4,9,4,-2,-3,-4,-2,1
1529306698614142,1,11,19,15,9,3,2,-1
1529306698614142,-5,-9,-9,-13,-13,-6,-4,-4
1529306698622120,-3,-4,-2,2,2,-1,-3,0
1529306698622120,1,2,0,-6,-8,-4,-3,0
1529306698628105,-3,-1,-2,0,3,3,0,-2
1529306698628105,-4,-3,-7,2,2,-1,-4,-3
1529306698645060,0,3,3,-3,1,1,2,0
1529306698645060,-3,-10,-9,-3,2,-4,1,-2
1529306698652041,0,4,-3,-1,-5,-4,1,-2
1529306698652041,1,-1,-3,-10,-12,-5,1,1
1529306698658025,-3,-3,-4,7,8,3,0,-3
1529306698658025,0,-3,-6,-9,1,0,0,0
1529306698673018,-5,-7,-6,1,2,2,-1,0
1529306698673018,-3,-4,-4,-2,-13,-11,-5,-3
1529306698721854,-5,-8,-7,-1,0,-1,-2,-3
1529306698721854,6,9,6,-3,-5,-1,1,2
1529306698722859,0,2,1,8,4,0,0,1
1529306698722859,-2,-7,-4,-4,0,0,1,-1
1529306698723862,-1,4,2,-6,-10,0,-1,-2
1529306698723862,-3,-5,-1,1,3,-2,-1,-2
1529306698725844,-1,-3,-4,-5,-6,-1,-2,-2
1529306698725844,1,0,0,-1,4,2,0,0
1529306698732825,-2,-4,-3,4,0,-4,-3,0
1529306698732825,-2,-2,-2,-1,3,2,-1,-3
1529306698741803,-1,-2,0,-2,-6,-6,-3,-1
1529306698741803,-3,-2,-1,0,-3,2,-1,0
1529306698747786,-1,-5,-6,-1,-1,-2,-2,-1
1529306698747786,0,2,1,0,-1,1,-1,0
1529306698763752,2,-1,1,-3,-3,0,0,0
1529306698763752,-1,1,-2,-2,0,0,1,-1
1529306698770724,1,1,0,-3,0,2,3,2
1529306698770724,0,2,3,4,-2,-2,-3,-2
1529306698777705,-1,0,-1,0,3,1,0,-3
1529306698777705,1,1,0,0,-3,-3,-2,0
1529306698794698,0,3,4,-1,3,0,-1,-2
1529306698794698,-3,-4,-1,-1,0,1,-1,-2
1529306698801642,-2,-2,-2,-3,-2,-2,0,0
1529306698801642,2,2,1,3,-2,-5,-2,-3
1529306698807632,0,0,2,-1,1,-1,0,0
1529306698807632,-2,-4,-4,-2,0,0,-1,-1
1529306698823584,0,1,2,1,-3,1,0,0
1529306698823584,0,2,-2,-4,1,2,0,-1
1529306698830564,0,-1,-5,-9,-9,-3,1,-1
1529306698830564,0,4,10,5,5,-1,1,0
1529306698839542,0,0,7,19,15,2,1,0
1529306698839542,-1,0,0,1,1,3,1,-1
1529306698852507,1,-2,1,5,5,2,-1,-1
1529306698852507,1,0,-7,-8,-10,-1,-2,0
1529306698861528,-1,4,3,4,7,-1,-2,-2
1529306698861528,-3,-3,-1,4,5,3,1,1
1529306698868463,-1,-1,0,-4,-9,-4,-5,0
1529306698868463,-1,-3,-4,0,1,1,1,1
1529306698883439,0,-1,-2,-5,-5,14,1,2
1529306698883439,-2,-1,0,-1,1,9,1,0
1529306698890404,-1,1,0,2,3,3,0,0
1529306698890404,0,0,0,-1,0,-3,-2,0
1529306698897387,-1,-5,-6,-8,-8,-14,-4,-1
1529306698897387,4,9,12,10,10,-5,0,0
1529306698913369,-1,-1,-1,0,0,-7,-1,-2
1529306698913369,-1,-3,-1,-2,-7,-6,1,-1
1529306698921321,0,0,-1,1,8,3,1,-2
1529306698921321,-2,-3,-6,-8,-17,-11,-4,-1
1529306698928303,0,0,0,5,12,5,2,1
1529306698928303,-1,-1,-1,0,1,2,-1,-1
1529306698943297,-1,-2,-2,2,7,1,0,3
1529306698943297,-1,-1,1,-3,-6,-6,-2,-1
1529306698950244,2,1,1,2,0,-3,-1,-2
1529306698950244,-1,-3,-1,-2,1,3,-2,-1
1529306698958264,-2,-1,-2,-5,0,-4,-3,1
1529306698958264,-1,-1,-2,-1,-4,-2,-1,-2
1529306698973218,-1,-2,1,-1,-1,2,1,0
1529306698973218,-1,2,0,5,7,2,0,2
1529306698981192,-1,1,-1,-10,-18,-6,-2,-1
1529306698981192,0,-1,3,10,12,0,-2,0
1529306698988142,0,-1,-2,-12,-12,3,-1,1
1529306698988142,0,-3,-3,0,2,-4,-1,-1
1529306699003218,2,4,2,3,1,0,1,-1
1529306699003218,-3,-5,-6,-8,-8,-6,-2,-4
1529306699010216,-1,-1,0,2,4,3,1,-1
1529306699010216,0,2,2,-2,-5,-4,-2,0
1529306699018165,-4,-5,-5,-9,-4,1,-1,-2
1529306699018165,0,-3,-4,-1,-2,-4,-3,0
1529306699033126,3,8,13,10,14,4,1,1
1529306699033126,-1,-1,-3,-1,-2,3,-1,0
1529306699041104,-1,-1,0,3,2,0,-1,0
1529306699041104,-3,-1,-2,-5,-6,-2,-4,-1
1529306699048086,-3,-5,-8,-8,-7,-3,-2,-3
1529306699048086,-3,-1,-1,2,1,-1,-2,-3
1529306699064041,2,0,4,8,13,10,3,2
1529306699064041,-2,-4,-3,-10,-12,-2,0,-1
1529306699070042,0,1,0,0,-6,-6,-4,-1
1529306699070042,0,-1,-3,-5,-3,-2,-1,-1
1529306699078005,-1,-1,2,6,1,0,0,1
1529306699078005,-1,0,-2,-4,-9,-6,-2,2
1529306699092966,2,3,3,9,8,6,1,2
1529306699092966,-2,-3,-5,-11,-2,0,1,-2
1529306699100944,-2,0,0,6,0,-2,-2,-4
1529306699100944,0,-1,0,1,6,4,3,1
1529306699107924,-3,-6,-6,-9,-11,-8,-2,-3
1529306699107924,0,-3,0,-1,-5,-2,0,-2
1529306699123881,1,-1,-3,-4,-2,-1,-1,1
1529306699123881,-2,-2,-2,-2,4,2,0,-2
1529306699130865,-2,-3,-5,5,5,5,1,-1
1529306699130865,3,1,4,2,0,0,0,1
1529306699137846,-2,2,-1,-7,-10,-10,-5,-3
1529306699137846,1,-1,1,1,2,4,2,1
1529306699152805,0,2,0,1,-6,-7,-5,0
1529306699152805,-1,2,3,4,10,1,-4,0
1529306699160784,-1,-4,-2,-5,-8,0,0,-1
1529306699160784,0,2,3,6,14,8,0,0
1529306699167765,-1,-4,-4,-7,-7,-4,-1,-1
1529306699167765,-1,0,-1,-2,-7,-3,-2,-2
1529306699183725,1,2,3,3,11,6,2,0
1529306699183725,2,3,3,2,-6,-6,-3,-1
1529306699190707,0,0,3,6,11,8,2,0
1529306699190707,-2,-3,-6,-8,-9,-6,-4,-2
1529306699197685,-4,-10,-8,-7,-6,-1,-1,-1
1529306699197685,2,4,4,5,10,5,4,1
1529306699212644,-1,-2,-3,-3,-1,7,3,-1
1529306699212644,1,1,0,-3,-5,-6,0,1
1529306699220623,-3,-3,-5,-5,-10,-5,-3,-2
1529306699220623,-2,-4,-2,-2,3,4,-1,0
1529306699227606,0,1,1,0,2,-5,-1,-1
1529306699227606,-1,-2,-3,-4,2,1,0,0
1529306699243580,3,5,3,0,-2,0,1,0
1529306699243580,-4,-5,-8,-10,-15,-9,-6,-3
1529306699250543,2,4,5,5,3,1,0,0
1529306699250543,2,-1,-3,-6,-9,-4,3,3
1529306699257527,1,-1,0,6,12,7,1,0
1529306699257527,0,1,-1,-3,0,-1,0,-1
1529306699272485,-3,-4,-4,-8,-7,-1,-4,-4
1529306699272485,-3,-2,-5,2,-6,-4,-6,-6
1529306699281461,-2,1,-1,0,1,0,-5,-5
1529306699281461,-3,-1,-1,-1,-1,-3,-7,-5
1529306699287444,0,0,0,0,3,-3,-5,-1
1529306699287444,-1,-1,1,-3,-2,-3,-5,1
1529306699304399,4,1,4,-3,-1,-2,3,9
1529306699304399,0,-3,2,0,4,0,7,7
1529306699310385,0,-3,0,-7,-12,-5,8,4
1529306699310385,0,-1,4,5,8,1,6,1
1529306699327338,-4,-4,-5,-2,-11,-10,-2,-3
1529306699327338,2,-2,-4,-1,15,20,4,0
1529306699333322,0,7,7,11,4,0,-2,-2
1529306699333322,-2,5,5,0,1,-1,0,-3
1529306699342297,0,-1,-2,2,0,0,1,-2
1529306699342297,1,4,1,8,-4,-5,-1,-2
1529306699348281,-3,-3,-6,-7,-1,-2,-2,-1
1529306699348281,2,4,8,12,6,2,0,1
1529306699364239,-3,1,-4,-7,-7,-6,-4,-2
1529306699364239,-4,-5,-2,1,3,-3,-6,-3
1529306699370223,0,-2,-3,-6,-3,-1,-4,-1
1529306699370223,0,-2,0,6,6,1,-1,0
1529306699387178,3,4,5,0,0,3,1,1
1529306699387178,1,-1,1,2,4,1,1,1
1529306699393161,-2,-2,-2,-3,-7,-11,-2,0
1529306699393161,-1,-5,-6,-2,3,4,1,-1
1529306699402138,0,-1,-1,0,1,0,0,0
1529306699402138,-2,-1,2,-1,-8,-3,0,-1
1529306699408123,-2,-2,-3,-1,-2,-4,-1,-1
1529306699408123,1,2,1,3,4,6,-1,-1
1529306699424098,1,-3,-6,-4,-1,-2,-2,0
1529306699424098,1,5,7,3,-5,-3,-1,3
1529306699430063,0,0,-2,-1,0,1,0,1
1529306699430063,-1,-1,-1,2,1,1,-1,2
1529306699447018,-2,-1,-1,-6,-5,-6,-5,-4
1529306699447018,-1,-5,-5,-3,-9,-1,-1,-2
1529306699453003,3,5,5,4,8,0,1,1
1529306699453003,0,0,-1,-3,-5,-4,0,0
1529306699461978,1,1,1,0,7,7,3,1
1529306699461978,-1,-2,-4,-4,-4,-7,-2,-3
1529306699467963,0,0,3,7,3,4,0,-1
1529306699467963,-1,-3,-4,-7,-6,-1,-1,-1
1529306699483920,-3,-2,-2,-3,-6,-4,0,0
1529306699483920,2,2,4,4,1,-2,-1,0
1529306699489956,-1,1,-1,5,13,9,3,-1
1529306699489956,-1,-1,0,-4,-6,-6,-1,0
1529306699506858,-2,-1,0,-4,-5,0,-1,0
1529306699506858,-1,-2,-3,-3,0,-1,-1,-1
1529306699512894,-1,-3,-1,-5,-3,-3,-2,-1
1529306699512894,1,-1,1,5,2,1,2,-1
1529306699521821,1,-1,2,8,8,1,-1,-1
1529306699521821,-3,-3,-5,-5,-4,2,-1,-2
1529306699527854,-2,-2,0,-3,-9,-11,-5,0
1529306699527854,-1,0,-1,-2,3,2,-3,-2
1529306699544755,-3,-2,-2,-1,0,-1,-3,-3
1529306699544755,0,0,0,5,10,2,6,5
1529306699550743,-1,-1,0,-3,-8,0,0,-1
1529306699550743,-3,-2,-6,-9,-3,-2,-2,-1
1529306699566698,0,-1,1,1,-4,-5,-3,-2
1529306699566698,-1,1,0,1,2,2,-1,-2
1529306699572682,0,0,2,-1,-4,-7,-6,-1
1529306699572682,0,-1,3,8,15,9,0,1
1529306699581658,-1,-2,-2,-2,-3,-4,-2,-2
1529306699581658,0,-1,-2,-7,-7,-6,-3,-2
1529306699588219,-1,-4,-2,1,-2,3,1,2
1529306699588219,-1,-1,-2,-2,-6,-7,-2,-3
1529306699604431,1,-1,2,-2,1,-1,-1,-1
1529306699604431,0,0,1,2,1,3,1,0
1529306699610515,-2,-5,-9,-14,-13,-1,-2,-1
1529306699610515,1,1,2,7,4,2,2,2
1529306699627489,1,3,2,0,0,-3,1,0
1529306699627489,-1,-1,0,4,-1,-6,-2,-2
1529306699632460,0,5,5,4,8,-1,0,0
1529306699632460,-1,0,-1,-5,-7,2,0,-1
1529306699642637,-2,0,0,-4,-2,-3,-3,-1
1529306699642637,-2,-3,-4,2,7,6,0,-3
1529306699655398,0,2,4,7,2,-4,-2,-4
1529306699655398,-1,0,-2,-3,-5,-2,1,0
1529306699664402,-2,0,-2,0,-1,-2,0,1
1529306699664402,0,-2,-2,-2,2,2,-1,0
1529306699670601,0,3,2,0,-3,-1,3,3
1529306699670601,-1,0,-4,-2,-5,-7,-1,-1
1529306699686988,-3,-5,-2,0,5,5,1,-2
1529306699686988,-2,-5,-7,-8,-18,-7,-4,0
1529306699693509,-2,2,5,9,8,5,2,-1
1529306699693509,-2,-3,-5,-4,1,-2,-3,-3
1529306699708682,5,10,11,6,3,4,3,2
1529306699708682,0,0,1,-2,2,0,0,0
1529306699715753,-2,-5,-5,-6,-2,0,-1,-4
1529306699715753,-3,-4,-5,-8,-12,-8,-2,0
1529306699731110,3,1,2,3,-3,-2,-1,0
1529306699731110,0,0,0,0,-1,1,1,-2
1529306699731710,0,-5,-4,-7,3,0,0,-1
1529306699731710,1,4,3,2,1,4,0,-1
1529306699746705,-4,-5,-6,2,6,3,0,-2
1529306699746705,3,5,4,0,-2,-3,0,1
1529306699753651,-1,-3,-4,-3,-7,0,-1,1
1529306699753651,0,-3,-3,-2,3,2,0,0
1529306699767614,-3,-1,-1,2,1,1,1,0
1529306699767614,-4,-3,-4,-5,-4,-4,-3,-2
1529306699776007,0,1,-1,2,-3,-2,1,-1
1529306699776007,0,-1,-3,-1,-2,2,1,-1
1529306699791581,-1,-4,-4,3,11,4,2,-1
1529306699791581,0,3,4,-2,-11,-10,-3,-1
1529306699791581,-1,-1,-2,-3,9,5,2,0
1529306699791581,-1,-2,-3,-5,-7,-8,-5,0
1529306699806509,-1,-3,-1,1,-2,5,0,-2
1529306699806509,-2,-6,-7,-4,-7,-4,-4,-2
1529306699821208,2,4,3,-2,5,6,0,1
1529306699821208,-1,-1,6,11,9,2,0,1
1529306699828115,0,3,3,-8,-5,-2,-2,-1
1529306699828115,-2,-2,1,1,4,3,3,2
1529306699836331,-1,-3,-3,1,-4,0,-2,0
1529306699836331,-1,-2,-3,-4,4,-1,0,0
1529306699851975,-1,-2,-2,2,-1,-3,-1,1
1529306699851975,-2,-2,-1,-2,-6,-4,-2,-3
1529306699851975,-1,0,1,1,9,7,2,-1
1529306699851975,1,2,4,-3,-3,-3,-2,-2
1529306699866594,0,-2,-5,-6,-7,-7,-3,1
1529306699866594,1,3,6,10,10,3,2,2
1529306699872572,-1,-3,-5,-4,-9,-6,-2,-1
1529306699872572,0,-1,-2,-3,2,3,-1,1
1529306699887565,0,1,1,1,0,-3,-1,0
1529306699887565,-3,-1,0,-9,-2,1,0,-2
1529306699895817,-1,-1,-2,0,-10,-10,-2,-1
1529306699895817,1,1,3,7,8,7,4,2
1529306699911812,-1,-3,-5,-2,1,2,2,2
1529306699911812,-1,1,-3,-3,4,3,1,-1
1529306699911812,-1,-1,0,0,1,-1,1,0
1529306699911812,-2,-4,-6,-10,-11,-3,-3,-2
1529306699927422,-2,-2,-2,1,-7,-6,-5,0
1529306699927422,5,3,6,7,4,4,1,1
1529306699933406,-2,-3,-5,-10,-9,-3,-1,1
1529306699933406,-1,1,1,0,-8,-9,-3,-2
1529306699948375,-1,0,0,-1,6,2,2,0
1529306699948375,-2,1,-2,-2,-1,-2,-5,-5
1529306699955348,-2,-2,-6,-1,-3,0,1,1
1529306699955348,-2,0,1,1,-3,0,2,-1
1529306699971304,0,-2,-3,-1,-4,0,-1,0
1529306699971304,-2,-4,-3,-4,4,-1,1,1
1529306699972574,1,1,0,-1,3,0,-2,0
1529306699972574,-1,1,-2,2,0,0,-1,-1
1529306699987262,-1,-2,-1,-2,-5,-1,-2,-1
1529306699987262,-2,-1,-5,-5,-5,-2,-2,-1
1529306699993495,0,0,1,4,-1,-5,-3,-5
1529306699993495,-1,2,3,4,11,11,1,-1
1529306700008207,-2,2,-1,-4,-3,-5,-1,-3
1529306700008207,0,-1,0,0,-3,-1,3,0
1529306700015186,-1,-4,0,1,1,0,1,5
1529306700015186,3,-1,1,0,-4,-1,4,7
1529306700031183,-1,-2,0,-1,1,3,1,1
1529306700031183,-2,-2,-4,-3,-2,-3,0,1
1529306700032141,-2,1,-2,-5,-5,5,1,-4
1529306700032141,-4,-2,0,8,11,2,-2,-3
1529306700047101,1,1,-2,-3,-7,-2,-2,2
1529306700047101,-1,-1,-1,-3,-5,0,-2,-1
1529306700053116,-1,-3,-3,0,0,-2,-2,-4
1529306700053116,1,3,5,-3,-4,-2,0,0
1529306700068058,-2,-6,-7,-3,0,0,1,-4
1529306700068058,3,8,11,12,9,3,0,0
1529306700075027,-2,-1,-2,-3,-2,-3,-2,-3
1529306700075027,-2,-2,-5,-5,-5,-4,-1,-2
1529306700090985,0,-4,-2,-5,-2,0,0,-1
1529306700090985,0,-1,-4,-1,-3,-2,-3,-1
1529306700091996,5,5,10,7,5,-2,0,4
1529306700091996,-2,0,0,-2,-3,-3,-2,-1
1529306700106948,-1,-2,-1,0,-3,-5,-2,-2
1529306700106948,0,-2,-3,-2,5,10,3,0
1529306700112963,-3,0,-4,-4,-4,-7,-3,-3
1529306700112963,0,-3,-3,3,1,1,1,-1
1529306700135864,0,2,4,1,-3,-3,1,0
1529306700135864,-1,-3,-4,0,2,-1,-1,-2
1529306700136862,-1,-5,-5,0,0,-1,-3,-2
1529306700136862,-3,-1,1,-4,-4,0,-2,-2
1529306700150825,2,6,-1,5,8,3,2,2
1529306700150825,0,-1,0,-4,-5,-6,0,0
1529306700151821,-1,-4,5,4,4,3,0,-1
1529306700151821,0,-3,-5,-3,-5,-6,-1,-1
1529306700166782,-1,1,1,-3,-4,0,-2,-1
1529306700166782,-2,-2,-4,-3,-8,-6,-3,0
1529306700172765,0,3,1,1,0,-5,-1,-1
1529306700172765,0,-4,-2,1,3,3,-1,0
1529306700187737,-1,3,4,-2,1,0,0,-1
1529306700187737,1,-2,-10,-4,-3,-3,-1,0
1529306700195708,1,3,4,4,3,4,1,1
1529306700195708,-1,-1,-4,-3,-3,-2,-1,-3
1529306700210668,-4,-10,-6,-3,2,0,0,-3
1529306700210668,2,11,12,4,-10,-7,-2,0
1529306700211662,-2,-4,-6,-3,11,8,2,3
1529306700211662,0,0,2,2,-1,3,2,0
1529306700226621,0,-4,-3,-6,-2,0,-1,0
1529306700226621,-2,-2,1,6,-1,1,-1,-1
1529306700232606,0,0,-2,-3,-8,-5,-3,-3
1529306700232606,0,3,1,2,7,-1,1,1
1529306700249560,-1,-1,-2,-1,-2,-1,-2,0
1529306700249560,-2,-3,-1,0,2,-2,-1,-1
1529306700255545,1,4,1,1,-3,-1,1,0
1529306700255545,-1,3,3,0,-1,-1,0,0
1529306700271506,-3,-4,-4,-4,-4,-3,-2,-1
1529306700271506,1,4,7,5,3,-5,1,1
1529306700271506,-3,-3,-5,-2,7,13,2,-3
1529306700271506,0,-5,-4,-5,-9,-10,-3,0
1529306700286462,1,5,9,5,7,9,1,1
1529306700286462,0,0,0,0,4,4,0,2
1529306700292449,-2,-1,1,-1,-7,-8,-2,-1
1529306700292449,-2,0,-1,1,3,2,1,-1
1529306700308656,1,-1,-3,1,4,3,1,0
1529306700308656,-1,-4,1,-4,-5,-2,0,-2
1529306700315384,1,0,-2,-1,0,-1,1,0
1529306700315384,0,0,0,-2,2,3,-3,-1
1529306700331581,0,2,5,2,-5,-5,-1,-3
1529306700331581,-3,-5,-5,-2,-1,0,-1,-1
1529306700332338,0,-1,-1,-4,0,-2,-3,1
1529306700332338,1,-3,-8,-1,-3,-2,-2,2
1529306700346977,3,6,11,5,2,-2,1,0
1529306700346977,-4,-7,-5,-2,-1,0,-1,-4
1529306700353167,1,7,6,4,3,1,1,3
1529306700353167,-2,-3,-4,-6,-5,-2,0,0
1529306700367724,-1,0,6,6,5,0,-1,0
1529306700367724,-1,0,-2,-2,-1,-1,2,-1
1529306700375660,-2,-5,-5,-4,-6,-1,0,0
1529306700375660,1,3,2,0,-2,-6,-3,0
1529306700391154,0,4,1,2,-8,-7,-3,0
1529306700391154,-2,-1,-2,-2,6,7,-1,-1
1529306700391904,0,-4,-2,-1,-1,-3,-3,-2
1529306700391904,1,-1,2,2,2,2,2,-1
1529306700406893,-1,-1,-2,-8,-5,-2,1,0
1529306700406893,2,4,6,5,-2,-1,-1,-1
1529306700413092,-1,-1,-3,-4,-5,-5,1,0
1529306700413092,-3,-4,-5,-3,4,3,-1,-3
1529306700436857,-2,-7,-9,-9,-4,-2,-1,0
1529306700436857,0,-1,0,5,0,-2,-2,1
1529306700436857,1,3,3,2,-1,2,1,1
1529306700436857,-3,-2,1,-1,2,-3,-2,-2
1529306700451339,-2,-4,-9,-1,1,0,-1,-1
1529306700451339,-1,0,-1,-3,0,-2,0,-1
1529306700452063,-2,-4,-1,2,-2,-3,0,-2
1529306700452063,0,1,1,-1,-5,-1,1,-1
1529306700467024,2,2,0,-3,-1,0,0,1
1529306700467024,-3,-1,-2,-3,-2,0,-1,0
1529306700473269,-2,0,1,3,3,1,-3,-3
1529306700473269,-2,-1,-1,-1,2,0,-4,-3
1529306700488037,0,-3,-2,1,2,0,1,0
1529306700488037,2,2,0,-2,-2,-2,-2,-1
1529306700495518,0,1,1,-2,2,2,0,-2
1529306700495518,1,-3,-3,-2,-2,1,1,0
1529306700511566,0,3,5,4,0,-2,-1,0
1529306700511566,0,-3,-4,-3,1,1,-1,1
1529306700512206,-1,0,-2,0,0,-1,-2,0
1529306700512206,-1,-2,-1,0,-4,-3,-2,-1
1529306700527433,-1,-4,-5,-1,1,4,0,-1
1529306700527433,1,-2,3,-1,1,-2,-1,-1
1529306700533183,2,1,0,-1,0,-1,0,1
1529306700533183,2,8,7,7,1,-2,1,2
1529306700548456,-1,-6,-6,-1,0,1,1,0
