timestamp,emg1,emg2,emg3,emg4,emg5,emg6,emg7,emg8
1528271065751097,0,0,0,-1,-1,-1,-3,-1
1528271065751097,-1,0,-1,-2,0,0,-2,-2
1528271065751097,-2,-1,-2,-2,0,-2,0,0
1528271065751097,-2,-1,-1,-1,-2,-1,0,-1
1528271065754090,-2,-1,0,0,-2,-2,0,0
1528271065754090,0,-3,-2,-1,-1,-2,0,-1
1528271065756086,0,-2,-1,0,-2,-1,-2,-1
1528271065756086,0,-2,-3,-1,-2,-2,-1,-1
1528271065756086,-1,-1,-2,0,-2,-2,0,-1
1528271065756086,0,1,-1,1,0,-1,-1,-1
1528271065763077,-1,-1,0,0,0,-1,0,-1
1528271065763077,0,0,-1,-1,-1,-1,-1,-1
1528271065767054,-1,-1,-1,-2,-2,0,0,0
1528271065767054,-2,0,-1,-2,0,-1,0,0
1528271065783013,0,-1,-1,-2,-1,-1,0,-2
1528271065783013,1,-1,-1,-1,-1,-2,-2,-1
1528271065791993,-3,-1,-2,-1,0,-1,-2,0
1528271065791993,0,-2,-2,-1,-2,1,-1,-1
1528271065812931,-2,0,-1,-2,-2,-1,0,-1
1528271065812931,-3,0,-1,-1,-2,-2,-1,-1
1528271065812931,-1,0,0,-1,1,-2,-1,-2
1528271065812931,-2,-1,-2,-2,-2,-2,-2,0
1528271065828891,0,0,0,-1,-2,-1,-1,-3
1528271065828891,-2,0,-1,-2,-1,-1,-2,-1
1528271065829887,0,-2,-2,0,-3,-3,1,0
1528271065829887,0,0,-1,-2,-3,-3,-2,0
1528271065875765,0,1,-2,-2,0,-2,-1,-1
1528271065875765,0,0,-1,-1,-1,-2,-2,-2
1528271065876762,0,-1,-1,-1,-1,-2,-1,-2
1528271065876762,-2,-2,-3,-1,-1,-1,-1,-2
1528271065880796,-2,-1,-1,-1,-1,-1,-2,0
1528271065880796,-1,-2,-1,-2,-2,-1,-1,0
1528271065881793,-1,-1,-1,-1,-1,-1,1,-1
1528271065881793,-2,0,0,0,1,0,-2,0
1528271065886780,0,-2,0,2,0,1,0,-1
1528271065886780,-2,-3,-2,0,1,-2,1,-2
1528271065894737,-1,-3,-2,-2,-2,-2,-3,-2
1528271065894737,-1,-1,0,-2,-4,-2,-1,-2
1528271065903743,-2,-1,0,-1,-3,-3,-2,-2
1528271065903743,1,1,-1,-1,-2,-1,-1,-1
1528271065917653,-2,0,0,0,0,0,0,-1
1528271065917653,-1,-1,0,1,0,-1,0,0
1528271065924633,0,-1,-1,-1,-2,0,-1,-1
1528271065924633,-4,-1,0,-2,0,0,0,1
1528271065948571,-2,0,-1,-2,-1,-1,-2,-2
1528271065948571,-2,-2,-1,-3,-3,-3,-3,-1
1528271065949568,2,2,4,1,-3,-2,-1,-1
1528271065949568,0,-2,-3,1,0,2,2,-2
1528271065970538,-1,0,-2,-2,1,4,1,0
1528271065970538,-1,-3,-1,0,3,1,-1,-1
1528271065972507,0,-1,-2,-1,0,-2,-1,1
1528271065972507,0,2,0,-3,-2,-3,-1,-2
1528271065985471,-2,-1,0,3,-2,-4,-1,-2
1528271065985471,0,-1,-2,1,0,0,0,-1
1528271065987466,-4,-4,-4,-1,2,1,0,-2
1528271065987466,1,0,0,-3,-6,-8,-4,0
1528271066008411,-1,-1,1,-2,-4,3,-1,-2
1528271066008411,0,2,1,-1,-5,1,1,0
1528271066009433,-2,-3,-3,-2,-2,-1,0,0
1528271066009433,-2,-4,-3,0,1,4,-2,-2
1528271066021402,1,0,0,0,3,-3,-2,0
1528271066021402,-2,-2,-2,-2,-5,-6,-3,-3
1528271066030377,-1,-2,-3,-1,3,2,-1,-3
1528271066030377,0,1,0,1,-3,-8,-2,-1
1528271066045364,0,-1,-2,0,-9,-3,-3,0
1528271066045364,0,-1,-2,0,13,15,5,-1
1528271066047305,-3,-3,-2,-3,-2,-3,-2,0
1528271066047305,1,-1,-1,-4,1,-1,-2,-2
1528271066068292,-1,-4,-3,-3,-4,-7,-1,-2
1528271066068292,0,1,-1,-2,-7,-10,1,1
1528271066070282,1,-1,0,1,3,1,-2,-2
1528271066070282,-2,-4,0,3,7,10,2,0
1528271066082264,-4,-6,-3,-2,1,-1,-2,-3
1528271066082264,1,1,0,-3,-6,-1,-2,-3
1528271066091188,0,-2,-8,-4,-4,-4,0,2
1528271066091188,2,0,-9,-5,-13,-10,-3,0
1528271066106149,2,1,-2,1,6,8,2,0
1528271066106149,-4,-8,-5,0,0,-7,-3,-2
1528271066107145,-2,-1,2,2,-1,2,-2,-1
1528271066107145,-2,-3,1,0,5,9,2,1
1528271066129102,-2,-1,1,-3,-5,-6,-3,1
1528271066129102,-3,-2,0,0,-4,-4,2,-2
1528271066130084,4,10,11,2,0,1,2,0
1528271066130084,-2,-3,-3,2,6,1,-4,-2
1528271066142054,-1,0,-1,-2,-3,-4,3,-2
1528271066142054,-1,1,2,-1,2,-2,-7,0
1528271066151028,-1,0,-1,-4,-15,-10,2,-4
1528271066151028,-1,-4,-7,-5,-10,-2,1,1
1528271066164992,0,1,3,2,15,9,5,-1
1528271066164992,1,-1,-2,0,1,-9,-5,-3
1528271066171973,-1,-4,-2,-1,4,5,-4,0
1528271066171973,-3,-3,-1,1,2,0,-15,-4
1528271066187931,-3,-2,-4,-3,-3,3,20,-2
1528271066187931,1,7,10,4,-4,-5,-7,1
1528271066189924,-3,-9,-10,-4,2,-4,5,2
1528271066189924,0,0,2,-3,-10,-12,-13,-2
1528271066201946,1,5,3,-1,-8,-7,-1,0
1528271066201946,-2,-3,-6,-2,0,0,-1,2
1528271066210883,-4,-2,-1,1,14,6,7,-3
1528271066210883,-2,-4,-5,-4,-3,0,-1,-3
1528271066225832,1,-2,-2,0,4,3,-3,1
1528271066225832,0,0,-1,0,-8,-2,3,-1
1528271066226827,1,4,5,3,0,2,-16,0
1528271066226827,-1,-5,-5,-1,3,3,13,0
1528271066247823,0,-2,-3,-3,-7,-14,2,-1
1528271066247823,0,2,4,1,3,10,-11,1
1528271066249764,-3,-7,-5,-3,-7,-3,12,-2
1528271066249764,-1,0,0,1,5,-3,-23,-7
1528271066261732,-1,-6,-7,-3,0,0,-9,1
1528271066261732,-3,0,-1,-5,-4,-6,-39,-9
1528271066270715,0,-3,-4,-1,-5,3,29,5
1528271066270715,0,0,2,-2,-3,-4,34,2
1528271066284671,-1,-4,-4,-2,-3,-1,-3,-1
1528271066284671,-1,-4,-1,0,5,-1,18,0
1528271066291666,-3,-8,-6,-5,-9,-8,-37,-4
1528271066291666,1,2,0,-2,-10,2,19,3
1528271066308607,-3,-1,4,11,22,20,4,-1
1528271066308607,0,6,1,-4,3,-1,-1,0
1528271066309605,-3,-1,-4,-4,-7,-5,-7,-5
1528271066309605,-1,0,-1,0,-9,-9,-7,0
1528271066321598,4,8,0,-9,-9,-9,-3,0
1528271066321598,-3,-7,-4,-7,-13,-6,-5,-1
1528271066330553,-3,-3,-1,-4,3,0,6,-3
1528271066330553,-1,0,1,14,20,12,3,1
1528271066344512,-1,-1,0,3,-5,-9,-18,-4
1528271066344512,-1,-3,-2,5,3,3,19,3
1528271066351492,2,1,2,3,0,6,1,1
1528271066351492,-2,1,0,-4,-3,2,-9,-3
1528271066368447,-4,-3,-2,-6,2,3,1,-1
1528271066368447,1,-2,-4,-5,-15,-16,-7,-1
1528271066369445,1,9,8,0,2,-7,-2,0
1528271066369445,-1,-3,-5,-1,3,7,3,1
1528271066381412,0,-4,-7,-15,-19,-22,-12,-4
1528271066381412,-2,-1,1,4,11,7,8,-3
1528271066390389,0,3,6,15,17,16,9,2
1528271066390389,-4,-6,-1,4,-6,-7,-6,-3
1528271066405349,-2,-3,-1,0,-6,0,-6,-1
1528271066405349,-1,0,-4,-11,-7,-6,-5,-4
1528271066412335,-1,-3,-10,-10,-20,-12,-9,-5
1528271066412335,0,2,5,-1,8,-4,-4,-2
1528271066428340,-2,-1,3,15,11,-2,2,-1
1528271066428340,-1,-7,-7,-2,0,6,8,2
1528271066429335,0,1,-1,6,14,1,-1,0
1528271066429335,-3,-10,-9,-31,-19,-15,-7,-5
1528271066450276,-1,-5,-4,3,-1,7,3,2
1528271066450276,-1,4,9,15,-6,6,5,-1
1528271066451226,-3,0,3,11,18,-1,-1,-1
1528271066451226,1,6,5,7,-3,-5,-2,-1
1528271066464191,-3,-2,4,-10,1,-1,-1,-4
1528271066464191,-1,-4,-2,-1,1,-3,-2,-2
1528271066472283,0,-5,-2,-6,-13,-2,-2,0
1528271066472283,0,1,4,3,-1,-2,-3,0
1528271066487296,1,-2,2,-1,-4,3,2,1
1528271066487296,2,-1,-1,-16,-17,-4,-2,2
1528271066488237,-1,5,5,20,22,11,6,2
1528271066488237,1,7,0,-3,-5,0,-1,-1
1528271066510223,1,5,-8,-9,-9,-2,-1,-2
1528271066510223,-4,-4,-10,5,24,4,1,-3
1528271066511175,1,-1,0,-5,-12,-6,-5,-2
1528271066511175,4,3,5,1,7,9,0,2
1528271066524193,-3,-4,2,7,7,9,13,3
1528271066524193,-3,-2,-1,1,-13,-5,-8,-1
1528271066540344,-2,-1,2,0,-10,-6,-5,-2
1528271066540344,-1,-7,-1,-12,-4,-3,1,2
1528271066548287,2,0,3,0,-2,4,0,-1
1528271066548287,1,-1,4,3,12,-1,-5,-2
1528271066548287,1,-4,0,-4,-8,1,3,0
1528271066548287,-3,-13,-1,-1,-14,-4,-6,-4
1528271066570019,-1,6,5,-5,-13,0,-1,0
1528271066570019,-1,6,-6,31,44,9,6,0
1528271066571016,-1,0,-7,-2,8,-2,-2,-1
1528271066571016,0,11,2,1,-6,0,1,1
1528271066584465,-5,-15,-17,4,10,0,-4,-2
1528271066584465,-4,-7,-3,-15,-21,-7,2,-1
1528271066592201,-2,-7,0,-6,-20,-8,-13,-4
1528271066592201,-3,-3,0,11,22,10,8,4
1528271066607503,0,7,-2,-4,-1,9,19,3
1528271066607503,2,11,-4,-10,-11,-2,-9,-1
1528271066614145,0,8,-6,-8,-12,-11,-8,-3
1528271066614145,0,6,-2,2,-6,-1,3,0
1528271066630463,2,10,2,-3,4,-3,-7,-2
1528271066630463,-3,-4,1,-8,-7,4,0,-1
1528271066631097,0,9,-1,-5,-7,-7,-7,-1
1528271066631097,-2,6,-2,-1,7,0,3,0
1528271066644443,-2,-3,2,2,1,-4,-5,-3
1528271066644443,2,2,0,-5,-5,6,6,-1
1528271066660345,-2,11,-2,-3,-7,1,3,1
1528271066660345,-6,-5,-1,-5,6,-4,-8,-4
1528271066667589,0,9,6,19,-17,-8,-8,-2
1528271066667589,1,-21,-6,-24,-1,6,8,2
1528271066668324,1,-21,-1,-1,-4,1,4,3
1528271066668324,0,-3,-3,-5,10,0,-4,-1
1528271066698247,-3,-14,-5,-13,-6,0,7,-1
1528271066698247,-5,0,-1,13,7,1,-16,-3
1528271066699241,1,13,-3,-4,-12,2,-1,0
1528271066699241,3,12,-5,5,11,4,8,2
1528271066704231,-3,0,-5,-1,-11,-9,-17,-4
1528271066704231,-4,-5,-2,11,14,-6,-16,-6
1528271066712207,-1,-12,-3,-8,5,-3,27,6
1528271066712207,-2,-19,5,10,2,3,-5,-1
1528271066727167,3,4,3,-6,-14,-1,10,-1
1528271066727167,-3,0,3,1,6,2,9,-3
1528271066728164,-2,-8,7,-10,-22,-12,-17,-8
1528271066728164,-1,-5,-4,12,14,-1,0,0
1528271066750458,3,-1,-4,-10,3,3,-3,0
1528271066750458,3,3,1,-1,-25,-6,5,5
1528271066751103,-1,2,-7,-11,21,6,-4,-3
1528271066751103,-2,13,-5,18,-11,-10,-9,-6
1528271066764329,2,7,-3,-3,5,0,0,5
1528271066764329,1,22,0,5,9,7,8,2
1528271066772308,-2,-35,0,6,-2,1,-12,-2
1528271066772308,-2,-20,1,-16,-17,0,0,-1
1528271066788227,0,-7,3,-1,-13,-10,-11,-5
1528271066788227,-1,-3,-4,-2,6,0,1,-1
1528271066788227,-4,4,-1,15,4,3,7,1
1528271066788227,-3,5,-1,4,-4,-3,1,-1
1528271066810727,0,-1,2,-1,11,-3,-2,-2
1528271066810727,-1,8,3,-13,-37,-13,-1,-2
1528271066810727,-2,-11,-7,5,30,14,6,2
1528271066810727,-2,-7,6,-2,-15,2,6,-3
1528271066825065,-1,-11,-11,-23,-25,-9,-7,-4
1528271066825065,1,-22,2,7,10,0,-2,0
1528271066832251,-1,-63,2,4,-9,-3,2,-3
1528271066832251,3,-53,-1,-21,-14,-2,-2,4
1528271066846730,1,-14,6,20,0,-4,-5,0
1528271066846730,-7,-6,3,-27,-4,2,5,-1
1528271066855733,-1,12,-13,8,39,3,-5,0
1528271066855733,4,38,0,42,37,3,1,-3
1528271066869669,-2,17,-4,-20,-4,2,-3,-3
1528271066869669,-1,24,9,28,-33,-9,-4,-6
1528271066870667,2,37,-8,-48,-2,2,-1,-1
1528271066870667,1,20,1,6,-34,-4,-6,-2
1528271066892608,2,7,0,-20,54,9,9,8
1528271066892608,-3,-11,-5,7,32,10,1,-2
1528271066893638,-4,11,3,-11,-15,-5,-2,-2
1528271066893638,1,-1,-3,-23,-6,-8,-8,-3
1528271066907610,-2,-2,-1,27,-6,-2,-1,-4
1528271066907610,5,16,-5,-8,-13,-4,-3,3
1528271066914549,-3,6,-9,-22,-21,-13,-12,-6
1528271066914549,3,27,9,-38,-51,2,2,1
1528271066938791,-7,3,10,53,-2,7,1,-4
1528271066938791,5,-13,-15,9,12,11,4,3
1528271066939502,3,28,1,-6,-73,-13,-3,0
1528271066939502,-3,-3,-21,28,55,13,4,2
1528271066952462,-5,19,-7,-49,-11,-6,-6,-5
1528271066952462,-3,6,11,53,36,6,4,1
1528271066953444,-1,18,9,70,9,-2,-3,-2
1528271066953444,-2,5,-25,-103,-97,-13,-6,-3
1528271066975940,-3,-47,-23,21,100,18,7,3
1528271066975940,-3,43,-3,-43,-47,-4,-5,-5
1528271066976770,3,9,17,5,8,-10,-3,0
1528271066976770,-4,-25,20,98,27,-5,-4,-1
1528271066990559,4,-32,8,61,26,2,1,2
1528271066990559,-3,-49,-28,-32,-6,0,-1,-1
1528271066991712,-3,-33,2,-57,-22,1,2,-2
1528271066991712,-6,-10,-2,-15,-45,-12,-9,-7
1528271067021479,-2,-15,15,-45,-51,-12,-2,1
1528271067021479,-6,-28,-17,98,87,4,0,0
1528271067021479,2,-26,-18,4,-20,4,-1,1
1528271067021479,0,-10,22,-59,0,9,6,2
1528271067036466,-3,4,-33,4,-13,-8,-5,-2
1528271067036466,1,3,15,-16,-26,-7,-1,-1
1528271067036466,-2,4,-2,8,5,-2,-1,-4
1528271067036466,-3,-7,-5,4,11,-2,-1,-2
1528271067050611,-8,0,13,-16,-24,-2,-6,-4
1528271067050611,4,10,5,-29,-15,-2,-1,4
1528271067051608,-2,5,-3,6,28,3,2,-2
1528271067051608,2,13,6,18,13,4,2,2
1528271067072931,3,11,-1,-5,-5,-13,-31,-9
1528271067072931,-2,1,-1,-12,-9,3,41,4
1528271067073969,-5,10,10,10,10,8,-14,-6
1528271067073969,-4,2,3,16,29,5,-5,-2
1528271067095904,1,14,-1,-14,-27,-13,2,-3
1528271067095904,-1,-1,9,-13,-9,-3,-8,-3
1528271067096606,-6,-7,-2,-2,-3,-8,-10,-4
1528271067096606,0,-6,-8,1,15,-5,0,-3
1528271067110723,0,3,-1,0,-1,1,17,2
1528271067110723,8,15,22,-8,-19,-8,-18,-5
1528271067110723,-5,-6,2,-5,3,-4,11,1
1528271067110723,0,-2,-8,4,22,5,8,1
1528271067132507,3,9,13,-1,-19,-3,-2,5
1528271067132507,-5,-18,-8,1,6,-2,-8,-3
1528271067133506,3,10,10,-3,-2,4,3,2
1528271067133506,0,10,0,-14,-25,-9,-2,-1
1528271067155685,-1,4,-3,28,52,6,-3,-3
1528271067155685,1,-8,-6,-8,-12,1,3,1
1528271067156443,3,7,-5,-18,-9,-1,1,0
1528271067156443,-2,-7,-2,15,3,-9,-7,-2
1528271067170685,-2,6,12,-1,-23,-1,4,-1
1528271067170685,0,6,9,-13,-5,-5,-8,-3
1528271067170685,-1,8,19,-19,-40,-5,-2,0
1528271067170685,-1,2,-3,-41,-15,5,5,2
1528271067192760,-2,7,12,54,-23,-7,-2,-2
1528271067192760,2,16,-16,-97,-53,1,1,0
1528271067193743,0,-10,9,64,-56,-10,-2,-1
1528271067193743,1,-1,-12,62,80,23,7,5
1528271067215729,-10,-19,1,25,-20,1,-4,-6
1528271067215729,2,-16,-23,-36,-27,-5,-1,2
1528271067216728,-1,-7,-22,-30,-8,-3,-4,-2
1528271067216728,7,-1,5,101,102,21,5,4
1528271067229691,-3,-4,-10,-18,-47,-12,-5,-4
1528271067229691,-4,10,36,87,-14,-7,-5,-4
1528271067230644,-4,-26,-29,-92,56,22,9,0
1528271067230644,4,2,5,-20,-61,-27,-10,-3
1528271067252639,10,0,-22,-34,48,16,7,8
1528271067252639,-7,-13,-1,-5,-56,-18,-11,-6
1528271067253582,1,-6,-10,74,87,27,9,6
1528271067253582,-9,-14,-1,-93,-85,-20,-14,-9
1528271067275523,6,16,10,30,10,14,3,1
1528271067275523,-2,-7,-40,-50,46,5,2,2
1528271067276534,-8,12,15,88,-35,-11,-12,-8
1528271067276534,-2,-22,-30,-57,-4,-2,5,5
1528271067289540,4,-1,-9,-52,-38,7,0,3
1528271067289540,4,6,23,24,-39,-3,-5,-4
1528271067290537,-4,-9,-34,-41,52,3,-4,-1
1528271067290537,4,24,-14,9,-17,-7,-2,0
1528271067312480,-5,-2,8,20,12,-4,-1,1
1528271067312480,-4,6,13,7,-50,-11,-8,-3
1528271067313422,8,-9,-3,37,72,15,10,7
1528271067313422,-9,-15,-1,18,-31,-14,-8,-9
1528271067335416,-4,-1,12,-82,21,6,3,2
1528271067335416,-1,-15,-11,4,37,7,5,1
1528271067336362,1,7,17,1,-30,-13,-7,-5
1528271067336362,-2,6,18,25,1,2,2,2
1528271067350378,-8,-16,6,9,0,-9,-6,-7
1528271067350378,-2,-5,2,14,19,-2,-6,0
1528271067350378,6,22,4,-22,-30,-15,-7,-4
1528271067350378,-1,-1,18,53,10,8,5,5
1528271067372319,1,-4,-18,-48,-35,-1,2,1
1528271067372319,-3,0,-2,-11,-12,-8,-10,-5
1528271067373265,3,-4,-2,25,50,10,9,5
1528271067373265,-6,4,3,-4,8,-3,-3,-4
1528271067397199,-2,7,9,35,-63,-19,-9,-5
1528271067397199,-4,-7,-20,31,127,29,10,3
1528271067398196,-2,-18,-8,-37,-92,-11,-2,-1
1528271067398196,2,1,-5,-2,37,6,1,-4
1528271067410220,-2,1,4,7,-3,-2,1,-1
1528271067410220,2,-1,-12,-23,-36,-19,-6,-3
1528271067411215,-2,9,12,34,19,-4,1,-2
1528271067411215,-1,-14,-15,-30,-1,6,-1,0
1528271067432160,1,0,-9,31,22,1,1,-1
1528271067432160,1,-1,19,3,1,6,4,3
1528271067433128,-4,2,-18,-39,-31,-9,-5,-3
1528271067433128,-1,8,1,4,-21,-6,-5,-3
1528271067456096,0,5,3,3,-33,-7,-7,-1
1528271067456096,-2,-3,-6,23,79,18,9,3
1528271067456096,1,-6,0,-19,-19,0,-2,-1
1528271067456096,-2,-4,-3,-29,-19,-7,-3,-3
1528271067470059,0,0,5,51,11,-1,-2,-4
1528271067470059,-3,-2,0,-23,-30,-4,0,-1
1528271067471001,3,5,12,-18,-17,-7,-2,-2
1528271067471001,-1,-1,-2,-18,10,1,-2,-3
1528271067492941,-2,-3,7,26,11,0,-1,0
1528271067492941,-3,0,4,6,1,-5,-7,-4
1528271067492941,-3,-4,-1,0,2,3,4,1
1528271067492941,0,0,4,-21,-32,-3,-2,0
1528271067516347,-2,-1,-2,-5,21,-3,-2,0
1528271067516347,0,-1,-1,13,-11,-2,4,0
1528271067516347,0,5,-2,-52,-18,2,-2,1
1528271067516347,-1,3,16,57,24,-6,-2,-3
1528271067530159,-1,-9,-32,-11,59,19,8,3
1528271067530159,0,-5,-4,-26,-30,-7,-4,-2
1528271067538235,-6,-4,4,42,20,-4,-4,-1
1528271067538235,-1,4,7,-5,-7,0,-3,-2
1528271067553273,1,4,-11,-21,2,-4,-5,0
1528271067553273,0,-1,-5,0,-14,-4,1,-2
1528271067553273,0,0,-1,-15,-11,-1,8,0
1528271067553273,-1,-1,-3,0,9,-2,-6,-3
1528271067575544,1,0,2,-25,-14,0,1,-1
1528271067575544,-2,-5,2,9,5,6,0,-1
1528271067576541,-1,2,0,3,-11,-8,-7,-2
1528271067576541,0,1,-3,-13,-9,1,0,1
1528271067590013,-1,-5,-5,-1,9,3,2,-3
1528271067590013,1,6,2,2,-14,-7,-9,-1
1528271067597784,-1,-3,1,6,11,5,-5,0
1528271067597784,-2,-6,-11,-3,3,7,16,2
1528271067612744,-1,0,3,-7,-14,-5,-8,1
1528271067612744,-1,-1,-3,-3,0,-1,8,-3
1528271067613745,0,-1,1,8,4,-2,0,0
1528271067613745,0,-1,0,6,-7,-4,-4,-2
1528271067635927,-1,-1,0,-12,-7,-6,14,3
1528271067635927,-1,1,5,27,4,3,-26,-5
1528271067636680,-2,1,1,15,-8,-4,2,-2
1528271067636680,-1,0,-8,-59,-5,-3,-7,-1
1528271067650010,-2,-5,0,-17,1,3,10,-1
1528271067650010,-1,2,5,3,-3,-3,-4,-1
1528271067658221,-1,-1,-6,-12,-2,0,-2,1
1528271067658221,-3,-3,-1,20,6,2,0,-2
1528271067673240,2,7,15,26,2,-6,-21,-2
1528271067673240,-1,2,8,16,-2,1,12,2
1528271067673240,-5,-3,-23,-29,-9,0,2,-4
1528271067673240,-2,-1,2,-21,-6,-4,-1,0
1528271067696552,0,-1,-1,-18,1,3,2,-1
1528271067696552,3,0,6,19,1,0,3,5
1528271067696552,-1,-3,2,3,-12,-6,-3,-2
1528271067696552,-3,-4,-8,-2,10,1,-4,0
1528271067718738,-2,-5,3,7,-11,-1,-5,-3
1528271067718738,4,6,0,-14,5,1,3,0
1528271067718738,0,-6,2,-3,-1,1,-4,0
1528271067718738,0,1,7,18,2,2,0,0
1528271067732870,0,0,8,-8,-6,-1,0,-2
1528271067732870,-2,-7,2,14,3,-3,1,-2
1528271067733599,-5,-5,7,-26,-12,-6,-2,-3
1528271067733599,-3,2,18,12,-4,4,2,-4
1528271067755869,-1,-4,15,8,16,0,1,-2
1528271067755869,1,-22,-88,-36,-11,0,0,2
1528271067756865,7,-3,78,77,18,4,1,2
1528271067756865,-7,14,-43,-57,-15,-13,-8,-7
1528271067770152,-8,12,-6,-20,-12,-3,-4,-2
1528271067770152,-4,0,7,-2,-3,-1,-2,-3
1528271067777815,1,17,-12,8,0,-3,-3,1
1528271067777815,0,-5,-21,15,24,10,3,3
1528271067792769,8,12,10,3,6,2,3,4
1528271067792769,-8,12,34,-5,-7,-6,-3,-3
1528271067793765,0,-1,-65,-9,-4,-3,-2,0
1528271067793765,11,-25,2,10,1,4,5,6
1528271067816016,-3,2,8,12,3,2,-1,-1
1528271067816016,-11,-19,-69,-14,0,3,2,-2
1528271067816705,4,31,42,12,1,-1,-3,-3
1528271067816705,6,0,-35,4,0,-1,1,2
1528271067829977,19,16,47,3,-1,-2,0,3
1528271067829977,37,5,-49,-25,-11,-6,-2,-9
1528271067845350,-82,-18,9,-17,1,-4,-6,-10
1528271067845350,-2,-26,-6,37,7,2,2,1
1528271067853196,2,37,60,9,-7,-2,4,6
1528271067853196,19,-24,-6,12,11,5,1,12
1528271067854041,-15,17,13,-3,4,4,5,-5
1528271067854041,43,-9,-52,6,0,3,6,-1
1528271067876971,-59,-19,37,0,-5,-4,-16,-12
1528271067876971,-3,25,15,-4,-2,-3,4,-3
1528271067876971,28,-16,-38,10,11,9,-4,5
1528271067876971,-3,9,-24,-38,-19,-10,-6,3
1528271067890184,56,-20,-66,-17,-5,-1,4,2
1528271067890184,-53,-2,43,13,1,-6,-12,-7
1528271067897898,-5,-38,-27,1,1,-1,2,2
1528271067897898,-42,-9,24,-7,-2,-9,-10,-17
1528271067912835,12,-65,-122,0,5,4,-4,-1
1528271067912835,9,20,86,1,-4,-2,3,1
1528271067912835,3,-4,26,-4,-3,-6,-4,-7
1528271067912835,17,1,26,9,-4,-3,-3,4
1528271067936134,-8,0,-24,-4,-10,0,3,-2
1528271067936134,-9,-7,-6,0,24,2,2,2
1528271067936798,7,-10,-17,-7,1,5,-2,-2
1528271067936798,15,30,47,8,1,0,0,1
1528271067965720,-17,5,-33,-4,-3,-5,-2,-4
1528271067965720,7,25,61,5,-9,-4,-2,2
1528271067966717,25,13,-29,-3,2,2,9,15
1528271067966717,-30,7,54,6,0,0,-5,-12
1528271067972701,-12,19,17,1,2,-3,6,-2
1528271067972701,6,1,0,2,-1,1,-2,3
1528271067973699,11,-9,-29,-9,-3,0,-1,-2
1528271067973699,-4,-1,34,6,-6,-5,-8,2
1528271067995927,-15,1,30,-2,-3,-1,8,-4
1528271067995927,-4,-14,-36,5,-1,-3,-4,-6
1528271067996638,9,4,-32,-37,-10,-4,-4,1
1528271067996638,-10,-3,63,18,6,0,0,-1
1528271068018579,1,8,8,-19,-8,-3,-4,-4
1528271068018579,-6,5,-2,-1,-10,-6,-10,-5
1528271068018579,-1,15,74,10,6,2,3,-2
1528271068018579,2,-1,-50,0,-9,-1,1,3
1528271068032945,2,-5,23,1,5,-3,-1,0
1528271068032945,0,-25,-13,19,24,12,1,-2
1528271068033684,-2,21,53,-2,-7,-1,-1,-3
1528271068033684,-3,-13,-59,-12,-10,-4,-2,-4
1528271068056043,-11,-15,-30,2,6,3,-2,1
1528271068056043,-1,6,-1,-14,-10,-2,3,-1
1528271068056624,-3,8,5,33,9,-1,-2,0
1528271068056624,-4,-20,-12,6,8,0,0,0
1528271068094859,9,5,-9,-16,-17,-4,-16,-3
1528271068094859,-10,-8,7,1,1,-1,18,1
1528271068095520,1,-3,-60,-15,-1,-2,2,-3
1528271068095520,-12,11,72,30,7,1,-2,-2
1528271068096886,12,11,50,-6,3,3,4,5
1528271068096886,10,20,-2,-35,-19,-8,-10,0
1528271068099513,-7,-32,-2,10,-2,-2,-2,-1
1528271068099513,1,3,-32,-11,1,3,7,1
1528271068123904,-11,-32,-5,14,0,1,-2,-4
1528271068123904,4,-1,-5,4,4,1,-4,-1
1528271068124685,1,-2,-10,-18,-18,-8,-1,-3
1528271068124685,-1,-5,-48,-10,-10,-3,-1,0
1528271068139063,-13,5,27,27,23,8,3,-5
1528271068139063,6,2,-5,-21,-13,-4,0,3
1528271068140658,4,6,-5,-4,3,2,0,2
1528271068140658,8,13,28,1,1,-6,-3,1
1528271068152714,7,15,-26,6,-8,0,1,3
1528271068152714,-10,-4,-14,-11,-7,-2,-2,-4
1528271068160919,2,5,98,13,8,3,0,-3
1528271068160919,7,0,-35,-17,-8,-5,-2,0
1528271068175672,0,4,-26,-3,-7,-8,-4,-1
1528271068175672,-3,-4,10,11,5,1,-1,-1
1528271068177650,8,1,-39,-9,-5,-4,0,0
1528271068177650,-9,0,8,-2,3,3,0,-1
1528271068205932,3,-10,-11,-6,-1,-3,-1,0
1528271068205932,-6,-8,-15,4,1,-4,-3,-1
1528271068207572,-5,-13,-21,-9,-9,-3,-4,-1
1528271068207572,3,1,12,7,7,0,2,0
1528271068212632,-1,-10,-9,-6,-5,-1,2,1
1528271068212632,8,18,18,-1,-4,6,2,-2
1528271068220535,-3,-10,-36,3,15,1,0,1
1528271068220535,1,9,13,-3,0,2,1,0
1528271068243719,-3,-2,10,18,5,5,3,-1
1528271068243719,-1,-2,-3,4,1,-1,0,0
1528271068244538,-5,-4,0,2,-4,-3,0,-2
1528271068244538,-6,-6,-12,-21,-4,0,-1,-3
1528271068258437,-2,2,-10,-18,-11,-12,-4,-3
1528271068258437,5,-6,4,21,6,1,-1,3
1528271068259432,-4,-4,-5,8,4,1,-3,-1
1528271068259432,-3,-11,3,12,-2,-2,-3,0
1528271068272978,2,5,-9,-13,-6,-4,-1,0
1528271068272978,9,7,-19,-24,-11,-6,-4,1
1528271068286984,0,16,4,8,9,5,4,-2
1528271068286984,2,-1,-21,-11,-5,0,-3,1
1528271068295631,-8,-20,-28,4,3,3,-1,-3
1528271068295631,-7,-3,56,14,9,6,2,-1
1528271068297659,4,-2,-5,-11,-5,-2,-1,2
1528271068297659,-1,5,-2,9,4,4,-2,-1
1528271068325551,3,6,-1,-12,-1,-1,-3,0
1528271068325551,-4,-11,-17,-4,-4,-3,0,0
1528271068327577,-5,8,19,6,-1,-2,-2,-3
1528271068327577,0,1,5,-4,-2,4,0,-1
1528271068332089,-5,-15,0,-4,1,2,-1,0
1528271068332089,-1,-6,-10,-5,-5,-7,-4,-3
1528271068339334,-1,10,-6,-2,-2,-5,-3,0
1528271068339334,1,1,2,-1,-3,-5,0,-2
1528271068356273,-1,-1,0,0,-4,-3,-1,-2
1528271068356273,-5,-6,6,-1,-5,-4,-4,0
1528271068357272,-1,3,13,-2,4,6,1,-3
1528271068357272,-3,-12,-8,1,0,-2,-2,-1
1528271068385947,0,-1,6,-2,-1,-2,-1,2
1528271068385947,-2,2,0,4,-1,-3,-2,-4
1528271068388086,-1,-14,-26,-3,-3,2,1,0
1528271068388086,1,8,-7,-11,-3,-3,-1,-1
1528271068392970,0,-6,18,5,4,1,-1,0
1528271068392970,-2,0,-15,-5,-6,-4,-2,-1
1528271068399356,-5,-8,-10,-6,-6,-7,-7,-4
1528271068399356,-1,-3,17,7,3,3,2,0
1528271068416057,7,16,-21,2,-1,-3,-1,1
1528271068416057,-2,-7,-8,-6,-4,1,0,-2
1528271068417185,-3,4,8,1,2,0,-1,0
1528271068417185,-1,7,14,0,-4,-6,-3,-3
1528271068439005,-5,-11,0,-3,-3,3,0,-4
1528271068439005,-3,-1,-4,7,15,2,0,-1
1528271068439993,-1,-3,3,-10,-14,-1,0,0
1528271068439993,2,5,7,-1,0,-1,-2,-1
1528271068452284,1,6,-1,-4,-1,-1,1,0
1528271068452284,-1,-8,-14,-1,-1,-4,-3,-2
1528271068460967,0,-4,-1,-1,-2,-1,-1,0
1528271068460967,-1,-1,-11,-1,-3,-2,0,-2
1528271068475065,0,0,2,-3,-6,-2,0,-1
1528271068475065,-1,-2,1,1,-1,2,2,-2
1528271068483121,2,-4,-4,-3,-4,-5,-1,0
1528271068483121,-2,-4,-5,-3,-3,-1,-1,1
1528271068498932,-2,4,-1,0,-1,-3,-2,-1
1528271068498932,-2,0,-8,-3,10,0,0,-1
1528271068499833,-1,-3,-1,4,12,11,0,0
1528271068499833,-2,1,9,0,2,-2,0,-1
1528271068521022,0,0,0,6,4,0,0,0
1528271068521022,1,-1,-7,5,-6,-3,0,1
1528271068521776,-3,-5,-7,-21,-14,-4,0,-3
1528271068521776,-4,-7,-6,-5,0,0,-1,0
1528271068535737,0,-2,-7,-4,-1,-2,-1,0
1528271068535737,-1,-6,-5,9,2,1,-1,-1
1528271068537735,0,-4,-4,7,3,-3,0,0
1528271068537735,0,-2,-16,-4,-5,0,0,-1
1528271068557682,-2,7,2,2,-1,0,0,0
1528271068557682,-1,4,-13,-6,-4,2,0,-1
1528271068559678,1,6,-1,1,1,-3,-2,0
1528271068559678,0,-4,-1,0,-4,-4,-2,-2
1528271068571644,1,-8,3,1,3,3,1,0
1528271068571644,-2,-10,4,-5,-3,1,1,-2
1528271068580617,-2,10,8,0,-3,-4,-3,-1
1528271068580617,-2,0,-3,6,3,0,0,-1
1528271068603556,-2,-22,0,-3,-1,0,-2,-2
1528271068603556,-2,-15,5,-3,-6,0,-1,0
1528271068604570,-2,-14,1,2,-2,-5,-1,0
1528271068604570,0,16,-2,-1,-2,0,-1,-1
1528271068618516,-1,30,-4,-5,-4,-3,-1,1
1528271068618516,-1,17,-2,1,3,2,1,-1
1528271068619513,1,17,2,1,3,-3,-1,-1
1528271068619513,1,-1,-1,-1,2,0,0,3
1528271068642455,0,-11,0,-2,0,-1,-1,-3
1528271068642455,-4,-11,0,-3,-3,-3,-3,-5
1528271068644446,1,-13,3,2,-1,1,0,0
1528271068644446,-3,-11,4,-1,0,1,0,-2
1528271068655735,1,0,3,-1,1,0,-1,-2
1528271068655735,-2,4,2,-2,-1,0,-1,-1
1528271068661404,-4,-5,-1,-2,-2,-2,-1,-2
1528271068661404,-3,-9,1,-1,-3,-1,-2,0
1528271068678362,-1,-4,1,2,0,-3,-2,0
1528271068678362,0,-4,-3,-2,-2,0,-1,1
1528271068679353,0,-4,-1,-2,-3,-3,-2,-1
1528271068679353,-2,-3,-2,-3,0,0,-1,0
1528271068692319,-3,5,0,-1,-2,-2,0,-1
1528271068692319,-1,2,5,-3,-1,-1,0,1
1528271068708276,-1,-3,-2,1,0,-1,-1,-5
1528271068708276,0,-5,0,-3,-1,-5,-1,-1
1528271068715298,-2,0,1,0,2,1,-1,-14
1528271068715298,5,11,3,1,-2,0,4,26
1528271068722299,-5,4,0,-2,-3,0,-5,-25
1528271068722299,3,-1,-3,-1,-3,1,1,28
1528271068738195,0,-2,-2,-4,-1,-1,2,15
1528271068738195,3,0,-1,-1,-2,-2,-5,-5
1528271068740228,-1,-2,1,-1,1,0,-1,-4
1528271068740228,-3,2,2,3,1,0,-2,-11
1528271068752398,-2,2,-3,0,-2,-2,-1,-2
1528271068752398,-2,-3,-3,-2,0,0,-1,-8
1528271068761134,-1,-6,-2,-3,-3,0,0,10
1528271068761134,-2,-2,-1,-1,0,0,-4,-13
1528271068775098,0,-1,-2,0,-2,-6,-8,3
1528271068775098,-1,8,2,-1,-3,-1,8,-7
1528271068782209,-1,3,-4,-1,-4,-4,-5,1
1528271068782209,-1,-2,-1,-1,-2,-1,3,1
1528271068798036,0,-5,0,0,1,3,-2,-7
1528271068798036,0,-7,-3,0,3,2,-2,-5
1528271068800080,-1,4,-2,-1,-1,-1,2,5
1528271068800080,-1,-1,-3,0,-1,-3,-3,-4
1528271068812259,-1,-5,0,-1,-2,-2,-2,1
1528271068812259,-3,-7,-2,-1,-2,-3,-3,-2
1528271068820974,2,-5,0,-2,-5,-4,-3,4
1528271068820974,-2,-2,-1,-4,-5,-3,-2,-5
1528271068834937,-2,-7,-4,-1,8,6,2,-4
1528271068834937,-3,-7,-3,0,-1,-2,-1,3
1528271068841919,-1,0,2,2,2,0,-1,0
1528271068841919,-2,1,-1,0,-2,-3,-1,-3
1528271068858211,-1,5,1,-3,-7,-4,-1,0
1528271068858211,-2,-3,1,1,0,-2,-2,-2
1528271068859871,1,-2,-1,-3,-1,-2,-1,1
1528271068859871,-1,-3,0,-1,0,0,-1,-4
1528271068880827,0,4,2,-2,-3,-1,-1,-1
1528271068880827,-3,-4,-5,-2,-1,-2,-2,-3
1528271068881812,0,-2,-1,0,-2,-2,0,-1
1528271068881812,1,-1,-2,-1,2,2,0,0
1528271068894777,0,2,0,-4,-3,-1,0,-2
1528271068894777,-1,6,-4,-4,-3,-3,-2,0
1528271068901762,-2,1,1,4,-1,1,2,0
1528271068901762,-1,3,2,2,0,0,-3,0
1528271068918716,-1,-4,-9,10,-2,-2,-1,-1
1528271068918716,1,-7,0,-5,3,2,0,-2
1528271068919722,-1,-3,-15,-37,-2,1,-1,1
1528271068919722,0,-1,-8,-36,-3,0,-2,-4
1528271068940655,-3,-5,-1,8,-5,-3,-2,1
1528271068940655,-4,3,7,1,1,0,3,-1
1528271068942676,-2,-12,5,38,3,-1,-1,0
1528271068942676,1,0,10,31,3,0,1,0
1528271068954660,-2,-10,-1,10,-4,-1,-3,0
1528271068954660,-2,-8,-28,-47,-10,-5,-4,-2
1528271068963593,15,-1,-2,3,-4,-3,-1,12
1528271068963593,-25,-2,-9,-42,-5,-1,-4,-23
1528271068978591,-10,3,12,45,4,1,0,-3
1528271068978591,-1,14,6,23,1,-2,-3,-2
1528271068979567,-2,9,-1,-15,-1,1,0,0
1528271068979567,9,-3,-2,17,0,-1,0,7
1528271069000495,2,0,-2,-35,0,1,-1,-1
1528271069000495,-1,-7,2,3,-3,-1,0,0
1528271069002489,-2,-3,-3,-6,-2,-3,-1,-5
1528271069002489,3,-2,-1,13,0,0,-1,3
1528271069014458,-1,-4,-7,-15,-2,-1,-2,-5
1528271069014458,4,-2,-1,-7,-1,-2,-4,-1
1528271069023434,-4,0,3,17,0,-1,-1,-6
1528271069023434,0,-1,-5,-4,-1,-1,0,2
1528271069038394,2,-2,-6,-13,-4,-3,0,-1
1528271069038394,0,2,1,9,-3,-2,-2,-1
1528271069039391,-3,-2,-3,-3,0,-2,-1,-5
1528271069039391,-2,-2,1,-2,-2,-2,0,1
1528271069061335,1,0,1,-5,0,0,0,1
1528271069061335,0,0,3,8,0,-1,0,-3
1528271069062338,-3,-3,-3,-3,1,1,2,-1
1528271069062338,2,-4,-11,-1,1,-3,-4,3
1528271069074654,-2,-8,-8,5,5,-4,-7,1
1528271069074654,-5,-19,-7,-5,5,-2,-8,0
1528271069083274,-2,-11,-14,-15,4,-6,-6,5
1528271069083274,-1,-7,-10,-12,2,-6,6,6
1528271069098375,2,6,1,-17,0,-2,3,1
1528271069098375,-2,11,9,-3,-3,3,4,-2
1528271069100230,-1,11,15,12,-5,6,0,-6
1528271069100230,1,17,18,22,-4,6,2,-10
1528271069120501,-1,14,10,12,-4,3,3,-11
1528271069120501,-4,7,-1,7,-6,4,0,-5
1528271069122501,-1,8,6,7,-1,3,1,-2
1528271069122501,-1,4,5,3,-4,1,-4,0
1528271069134464,-3,-3,-4,-4,-4,-2,-3,1
1528271069134464,0,-2,1,1,-3,-3,-6,0
1528271069143437,0,-3,-3,-5,0,-3,-3,-1
1528271069143437,-4,-5,-4,-3,0,-4,-3,0
1528271069158397,4,-5,-5,-6,1,-2,-3,3
1528271069158397,5,-2,-1,0,1,0,0,3
1528271069160567,-2,-8,-7,-4,0,-2,-1,-2
1528271069160567,22,-5,-5,-2,1,-2,-2,-1
1528271069181358,-22,-8,-3,-2,0,-1,-2,-4
1528271069181358,2,-3,-3,-1,2,-1,-1,-3
1528271069182333,-7,-4,-1,-1,-1,-1,2,-1
1528271069182333,-3,-4,-1,1,-2,-2,-1,-1
1528271069194527,6,-1,-3,-2,-1,-1,1,1
1528271069194527,6,0,-1,1,0,-2,1,16
1528271069203319,-4,1,2,-3,-3,0,-1,-18
1528271069203319,-7,-3,-3,-5,-3,-2,-2,-2
1528271069218237,2,-1,-4,-5,-3,-2,-10,0
1528271069218237,-19,-1,0,-2,-2,1,14,0
1528271069220270,27,2,-1,-2,-2,-1,-2,4
1528271069220270,-4,0,0,0,-1,-1,1,0
1528271069240183,3,2,1,-1,-4,-1,1,-5
1528271069240183,0,0,0,-1,1,-2,-7,0
1528271069242173,-9,2,0,-2,-2,-2,-1,1
1528271069242173,-4,0,1,-1,-2,0,-2,-2
1528271069254142,5,1,-2,-2,-2,-1,1,3
1528271069254142,-8,-3,-4,-3,-3,-1,-3,-5
1528271069263116,-4,-2,-2,-3,0,-1,1,2
1528271069263116,-3,-2,0,-2,-1,-1,-3,-1
1528271069278325,-2,1,2,-1,0,-2,2,1
1528271069278325,3,-1,-1,-3,-1,0,-2,-2
1528271069280105,-3,-1,0,-1,-1,-2,-3,0
1528271069280105,-5,-1,-4,0,0,0,0,-1
1528271069301019,4,0,-2,-1,0,-2,0,2
1528271069301019,1,-1,-3,0,-1,-2,-2,-4
1528271069302015,-1,-3,-2,-1,-1,-1,-2,0
1528271069302015,1,-1,-1,-1,0,-1,-1,2
1528271069314514,-1,-3,0,0,-4,-2,1,-3
1528271069314514,2,-1,-1,-1,-1,-1,-3,-4
1528271069323213,-3,-2,0,-1,0,-1,-1,0
1528271069323213,-1,-2,0,-1,0,-1,1,-2
1528271069338498,0,-2,-3,-1,-1,1,-2,-1
1528271069338498,1,-2,-1,-1,-2,-1,0,-3
1528271069340169,-4,-3,-3,-2,-1,0,-1,0
1528271069340169,-1,-2,-1,0,-2,-1,-1,-2
1528271069361343,-1,-1,-2,-1,0,1,-3,0
1528271069361343,0,-2,-1,1,-2,-1,-2,-2
1528271069362115,1,-2,-3,-1,-2,-3,-1,0
1528271069362115,14,-1,-1,-1,-1,-1,-2,1
1528271069374301,-13,-2,-1,-1,0,0,1,-3
1528271069374301,-3,-1,0,-1,-1,-2,-2,1
1528271069383057,3,1,-2,-1,-2,-1,0,14
1528271069383057,-19,-1,-1,-1,-3,-1,-3,-26
1528271069398364,16,1,-1,-1,0,-2,0,0
1528271069398364,0,1,0,0,-1,-1,-2,-3
1528271069400008,5,2,0,0,-1,0,-1,0
1528271069400008,-3,-1,-2,0,-1,-2,-2,4
1528271069420952,-5,-2,-1,-2,-2,0,-1,-1
1528271069420952,0,-1,-2,-2,-2,0,-3,-2
1528271069421964,-2,0,-1,-2,-1,-2,-1,-2
1528271069421964,1,0,-1,1,1,-1,-1,5
1528271069433946,-9,-2,0,2,0,-1,1,-7
1528271069433946,10,0,-2,-7,-2,-2,-2,7
1528271069442893,-5,-3,-2,-2,-1,0,-2,-6
1528271069442893,-4,0,1,2,-1,0,0,1
1528271069457854,3,0,1,-1,-2,-2,-1,3
1528271069457854,-3,-2,0,1,0,-1,0,-3
1528271069459848,-4,1,-1,-1,-3,0,0,-3
1528271069459848,1,0,-2,0,-1,-1,-1,2
1528271069480994,1,0,0,2,1,0,-1,0
1528271069480994,-2,-3,0,0,-1,-3,-1,-4
1528271069481790,0,-1,-2,-3,-1,-1,-2,-2
1528271069481790,4,-3,-1,0,0,0,-2,2
1528271069495088,-2,-2,-4,-1,-1,-1,-1,0
1528271069495088,-2,0,1,1,-1,-1,0,-3
1528271069503299,-2,-3,1,0,-1,-2,-2,-1
1528271069503299,-3,0,0,-1,-3,-1,0,0
1528271069518254,0,-1,0,-3,-1,0,-2,-1
1528271069518254,0,0,-3,-1,-1,-2,-2,-1
1528271069520007,-2,-2,0,0,-1,-1,-1,-2
1528271069520007,0,-1,-3,-2,-1,-2,-1,2
1528271069541194,-1,0,-2,0,-1,-2,-1,0
1528271069541194,0,-1,0,-1,-1,2,0,0
1528271069541975,-2,1,-1,2,-1,0,0,-2
1528271069541975,-2,0,-1,-2,-1,0,0,-1
1528271069555078,0,0,-1,-4,-1,-3,0,2
1528271069555078,-2,-1,-1,1,-1,0,-1,-5
1528271069563128,-2,-2,0,0,-1,-2,1,-2
1528271069563128,-1,-1,0,-2,-1,0,-1,-2
1528271069578928,-1,-1,-2,-1,0,-1,0,0
1528271069578928,-1,-1,-1,-1,0,-1,-1,-1
1528271069579896,-1,-1,-2,-1,-1,1,-3,-1
1528271069579896,0,-3,-3,-2,-1,-2,-2,1
1528271069601037,-2,0,-1,-2,-3,-2,-1,0
1528271069601037,-3,0,-2,0,-1,-2,0,-3
1528271069603066,1,1,-1,-2,-3,-1,-1,1
1528271069603066,-1,2,-1,-1,-2,-2,0,1
1528271069614754,-2,-3,-2,-2,-2,-1,0,-2
1528271069614754,-2,-1,-2,-1,-4,-1,0,-1
1528271069630717,-2,-3,-2,-2,0,-2,0,-4
1528271069630717,2,-4,0,-2,-2,0,-1,-1
1528271069637696,1,-3,0,1,-2,0,-2,-1
1528271069637696,0,-2,0,-2,0,-2,0,1
1528271069644673,-1,-3,0,-2,-1,-1,-1,-1
1528271069644673,-1,0,1,0,-1,-1,-1,-1
1528271069668613,-1,0,0,0,0,0,-1,-1
1528271069668613,-3,0,1,-3,-1,0,-2,-2
1528271069669607,-3,-1,-1,0,-1,-2,-2,-1
1528271069669607,-1,-1,-1,-1,0,-2,-1,-2
1528271069674620,-1,-3,-1,0,-3,-2,-2,-2
1528271069674620,-2,-1,0,-1,-2,-1,-1,1
1528271069683858,1,0,0,-2,0,-2,-1,-2
1528271069683858,-1,-1,-2,-1,-1,-1,0,-2
1528271069697826,-3,-1,0,-1,1,0,0,-2
1528271069697826,0,-1,-2,-1,0,-1,0,0
1528271069704536,-2,-1,-2,1,0,0,0,-2
1528271069704536,0,0,-2,-1,0,-1,-1,-1
1528271069721317,3,0,-1,-2,0,0,-1,1
1528271069721317,-5,-3,0,-2,0,0,-1,-1
1528271069722184,1,2,0,-3,0,-3,0,0
1528271069722184,-3,0,-1,-1,-2,-1,-2,-2
1528271069734807,-3,-1,0,0,-1,-1,-1,-2
1528271069734807,2,-3,-4,-1,-3,0,0,-1
1528271069743440,1,-1,-3,-1,-2,-1,-1,-1
1528271069743440,-1,-4,-2,0,-2,-1,0,-1
1528271069757394,1,-3,-1,0,-1,1,-2,-1
1528271069757394,1,-1,0,-1,0,-1,-1,-1
1528271069764692,-1,1,-1,0,-1,-2,0,-2
1528271069764692,2,0,-2,-1,0,-2,0,1
1528271069781595,-1,1,-1,0,-4,-1,-1,0
1528271069781595,-1,0,-2,-2,0,-1,-1,-3
1528271069782343,-1,-3,-2,-2,-3,1,-1,-3
1528271069782343,-5,-1,-2,-2,-1,0,-1,-2
1528271069803658,-2,0,-1,-2,-2,-1,0,1
1528271069803658,-2,1,0,2,-1,0,-1,1
1528271069804890,-1,0,0,-1,-1,-2,-2,1
1528271069804890,0,-2,-1,-1,0,0,0,-1
1528271069817965,-2,-1,-1,-3,-2,-2,-3,-2
1528271069817965,-1,-1,-1,-3,-2,-1,-3,0
1528271069831911,0,0,-1,-2,-1,-1,-1,-1
1528271069831911,0,0,0,0,-1,-1,-1,-1
1528271069841108,-1,-2,-1,1,0,-2,-1,0
1528271069841108,0,-1,-1,-2,0,-2,0,-1
1528271069841865,-2,-2,-1,-1,-1,-1,-1,0
1528271069841865,-1,-1,0,-1,0,0,-2,0
