timestamp,emg1,emg2,emg3,emg4,emg5,emg6,emg7,emg8
1529301408388308,0,3,2,-1,1,-2,-1,-2
1529301408388308,-1,-5,-3,-1,-1,0,-2,0
1529301408389306,-1,-3,-5,-2,-3,0,0,-2
1529301408389306,-1,3,3,0,-1,-2,-1,-2
1529301408393295,-1,-2,0,0,-1,-3,-1,-1
1529301408393295,-3,-4,-5,-2,-3,-1,-1,1
1529301408397284,1,2,3,1,0,-3,-2,-1
1529301408397284,-1,-1,-1,-1,1,0,0,0
1529301408400276,-4,-5,-5,-1,-3,-1,0,0
1529301408400276,0,2,1,-1,-1,-1,0,0
1529301408408255,-2,0,1,-1,-1,-3,-4,-1
1529301408408255,-1,-3,-6,-2,-2,0,-1,0
1529301408423214,0,-2,-1,-2,-1,-1,-1,0
1529301408423214,-2,2,2,0,0,-3,0,-3
1529301408428202,-2,-1,-3,-1,-2,0,0,0
1529301408428202,-2,-2,-3,-1,-2,-1,-1,1
1529301408440170,1,1,1,0,-1,1,-1,-1
1529301408440170,1,-2,0,-2,-1,-1,-3,-3
1529301408460117,-1,-2,-4,-1,-1,0,1,1
1529301408460117,-1,-2,-1,0,-1,-3,-2,-3
1529301408462110,0,0,0,-1,1,-1,-1,-2
1529301408462110,-1,0,-2,-2,-1,0,1,-1
1529301408506990,0,1,1,0,1,-1,-2,0
1529301408506990,-2,-7,-5,-1,-3,0,-2,0
1529301408507988,0,1,0,0,-1,1,0,-3
1529301408507988,-2,1,2,-1,-1,0,0,-4
1529301408508985,-3,-3,-3,-2,-1,-1,-1,0
1529301408508985,0,-1,-1,-1,-2,-2,0,-1
1529301408511977,2,2,3,-1,1,-4,-2,0
1529301408511977,-1,-1,-1,0,0,-2,0,-4
1529301408518959,1,-3,-7,-3,-2,-1,1,-1
1529301408518959,-1,4,10,1,2,-1,0,1
1529301408525941,-3,-2,-4,-1,0,-1,-1,7
1529301408525941,-4,-2,11,2,0,0,-3,-17
1529301408534917,-2,-6,-37,-9,-3,-3,1,-2
1529301408534917,4,0,2,-1,0,0,3,4
1529301408549876,-5,-5,-4,-2,-3,0,0,-1
1529301408549876,2,6,11,4,-1,2,-3,-7
1529301408557855,5,7,12,5,1,1,3,12
1529301408557855,-2,-10,-17,-3,-2,-1,-6,-16
1529301408579795,0,0,-2,-1,-1,1,7,34
1529301408579795,-7,-7,-11,-3,-2,-4,-4,-4
1529301408581791,-6,-6,5,-1,-3,-4,-4,-19
1529301408581791,0,6,-3,-2,-3,0,-2,1
1529301408594755,7,2,8,0,-1,0,0,-12
1529301408594755,-8,-10,-9,-2,1,2,3,5
1529301408600739,3,-2,-6,-2,4,2,1,7
1529301408600739,-1,1,11,3,-1,2,4,-3
1529301408617694,1,2,-12,-7,-6,-8,-13,-12
1529301408617694,4,6,-6,-8,-6,-6,-5,5
1529301408618691,1,6,12,1,-4,-2,-12,-3
1529301408618691,-1,3,8,4,6,9,32,5
1529301408639636,-3,-12,-40,-7,4,1,-6,-8
1529301408639636,-2,-7,1,-6,-7,-2,1,2
1529301408641631,-5,2,13,4,-5,0,-6,0
1529301408641631,-3,-10,-38,-24,-36,-15,-8,-7
1529301408653598,0,-1,21,25,22,-2,-8,0
1529301408653598,-1,-7,-25,-16,33,11,13,2
1529301408662574,0,-1,3,7,-2,-7,-6,-7
1529301408662574,1,12,18,17,8,9,6,11
1529301408677534,-4,-7,4,-10,-18,-1,-4,-7
1529301408677534,1,-3,-12,-13,-11,-6,-1,-3
1529301408678532,2,3,3,-9,-10,-5,-11,-1
1529301408678532,-3,-3,-7,2,-5,-15,-12,-6
1529301408699476,-2,2,4,-6,9,11,12,1
1529301408699476,1,5,17,14,-2,-6,-1,0
1529301408701471,-2,-5,-15,-14,-7,-1,-10,-8
1529301408701471,-2,-5,2,0,-6,-15,-2,1
1529301408713438,-1,0,7,18,-4,-9,-14,-4
1529301408713438,2,3,-7,-1,14,12,20,6
1529301408722414,4,0,2,-17,10,16,-8,2
1529301408722414,-2,-1,-4,5,20,-8,-57,-6
1529301408737374,-2,3,3,-2,-9,13,57,1
1529301408737374,2,0,5,12,-23,-12,-25,4
1529301408739370,-5,-4,4,9,13,18,60,3
1529301408739370,1,-3,-5,-25,-10,-2,-29,2
1529301408759344,-6,-3,19,11,11,-15,-37,-20
1529301408759344,3,2,13,-5,-31,-16,-23,10
1529301408761343,-9,-6,-18,-14,-12,3,18,-28
1529301408761343,1,2,14,32,20,2,5,-3
1529301408773353,0,0,4,-12,0,-3,-7,5
1529301408773353,0,3,-1,-7,9,10,20,-8
1529301408782285,-2,-3,0,-2,-30,-13,-19,4
1529301408782285,5,1,-4,-17,-6,11,17,7
1529301408797285,-3,-2,4,25,21,6,6,-7
1529301408797285,2,4,9,8,24,10,-7,-4
1529301408799242,6,3,5,10,23,12,-4,29
1529301408799242,-2,-6,-18,-4,6,7,3,5
1529301408820204,-1,0,-15,-21,-37,-20,9,5
1529301408820204,-8,-10,-8,-2,-20,-1,19,-26
1529301408821197,0,4,11,20,6,-2,6,1
1529301408821197,-1,4,11,7,-1,-10,-17,5
1529301408833149,5,5,-8,6,22,10,16,-8
1529301408833149,-6,-10,-9,-18,-15,10,23,9
1529301408842189,-4,-3,15,0,-27,-27,-15,-7
1529301408842189,-3,-3,10,3,11,2,-11,-1
1529301408859083,-5,-6,-31,-8,-16,-4,2,-25
1529301408859083,3,15,4,11,13,-7,-28,3
1529301408861083,1,5,-24,-9,3,-9,-14,8
1529301408861083,-5,2,7,-12,6,6,58,-5
1529301408880024,-6,-11,-29,-41,-23,-2,-25,-3
1529301408880024,3,-1,18,28,19,7,19,8
1529301408881022,1,2,1,-3,-9,-15,-58,0
1529301408881022,-1,2,2,3,-23,-13,30,-11
1529301408893015,6,1,-3,-21,21,12,15,-2
1529301408893015,-3,-8,3,12,11,9,-1,0
1529301408902964,-2,-3,-15,-20,0,-5,4,6
1529301408902964,0,2,-5,-23,-29,-8,-45,-6
1529301408916978,-3,0,-1,4,-3,5,55,2
1529301408916978,-1,-10,-8,-8,-7,-9,-1,-2
1529301408918920,4,1,4,4,10,-6,-21,-6
1529301408918920,-3,-3,28,55,19,0,-25,6
1529301408939864,-2,-10,-25,-28,1,15,8,5
1529301408939864,-5,11,-14,-18,-26,-15,4,0
1529301408941860,-4,27,3,-13,6,2,-24,-9
1529301408941860,9,7,-4,-4,1,6,14,4
1529301408953826,5,-17,18,21,2,-7,-55,13
1529301408953826,-9,-24,-8,1,11,-3,-4,-5
1529301408962831,0,-11,3,19,9,8,8,-5
1529301408962831,-14,-15,-8,-18,-14,-8,-6,-20
1529301408977763,2,24,23,4,-10,-14,-16,3
1529301408977763,5,-15,-17,-10,-5,-1,0,2
1529301408978762,-1,-34,10,7,1,1,4,0
1529301408978762,2,-35,-5,3,3,9,-16,6
1529301408999756,-3,-1,9,13,0,8,55,1
1529301408999756,-3,32,-3,-20,-20,-12,-41,-3
1529301409001751,-2,65,-10,5,5,5,30,-1
1529301409001751,-2,7,-14,-10,10,11,26,6
1529301409013693,-2,-22,-4,5,1,-5,-36,-2
1529301409013693,3,-35,7,17,8,5,3,1
1529301409022675,-5,-12,6,-20,-13,-3,4,-11
1529301409022675,1,11,-20,-8,-1,-2,4,6
1529301409037629,-2,-19,-13,3,-10,-6,-9,-1
1529301409037629,-2,-50,28,11,-5,-8,-9,-2
1529301409038601,0,-28,-15,-5,1,4,4,-5
1529301409038601,1,9,-15,-22,1,-4,-7,-4
1529301409059546,-8,-6,0,12,5,4,-11,4
1529301409059546,5,20,-11,-3,0,2,14,1
1529301409061538,1,1,5,5,0,-1,4,1
1529301409061538,-6,-4,-2,12,1,-1,2,-5
1529301409084103,2,11,4,5,-5,-5,-13,0
1529301409084103,12,20,4,-2,-1,0,-5,-4
1529301409086172,-22,6,12,0,3,2,9,-1
1529301409086172,9,-6,-11,-2,-1,-3,0,-10
1529301409097020,5,10,10,-7,-2,-1,2,19
1529301409097020,-1,9,-3,-1,0,0,-8,-12
1529301409104004,3,-28,-25,1,-4,0,3,3
1529301409104004,-1,-1,17,-4,-3,-3,-3,-6
1529301409119958,0,-4,-3,-3,4,0,-1,-3
1529301409119958,-1,-5,9,3,6,1,1,7
1529301409120955,-7,7,-8,8,-3,2,4,-3
1529301409120955,-7,3,4,-15,-15,-5,-5,-5
1529301409133930,6,4,14,17,-1,-5,-2,-6
1529301409133930,5,14,-4,-10,20,6,3,7
1529301409142208,-7,-4,5,-22,-17,-13,1,-4
1529301409142208,0,-6,-9,-4,3,3,1,1
1529301409157155,-3,1,6,-8,-8,1,-12,0
1529301409157155,-10,15,3,18,1,-2,-3,-6
1529301409163382,-3,-18,-16,-12,-2,-1,-1,-2
1529301409163382,-2,-2,-9,-5,-6,4,-2,-1
1529301409180094,9,13,-1,9,6,1,0,-1
1529301409180094,-22,-9,-7,-5,-2,3,4,1
1529301409181279,6,-1,-4,0,8,3,-1,-1
1529301409181279,-2,-9,8,12,-10,-8,-1,0
1529301409193114,-3,-11,-15,-20,-6,-6,-5,-9
1529301409193114,3,1,-2,-5,-9,-5,-5,-1
1529301409203132,2,-13,17,23,4,4,4,2
1529301409203132,3,11,7,-5,0,-2,5,0
1529301409217235,4,8,-4,-8,2,-1,-4,-1
1529301409217235,2,-6,20,7,9,4,3,6
1529301409223212,1,1,-12,-13,-7,-7,-11,0
1529301409223212,-3,6,-1,8,9,9,6,-4
1529301409239965,-7,-1,14,8,0,2,1,-4
1529301409239965,0,7,-38,1,-5,-1,-4,-2
1529301409240933,7,13,37,20,9,1,2,1
1529301409240933,1,-1,7,2,-1,-6,-4,2
1529301409253897,-4,-8,-24,-27,-9,-2,-3,-1
1529301409253897,1,12,21,-3,-6,-1,-7,-5
1529301409262905,6,11,-11,4,-4,-5,4,-1
1529301409262905,-1,4,-1,-6,0,1,1,2
1529301409276836,-1,26,5,10,4,-1,0,2
1529301409276836,-9,28,-31,-12,-13,-7,-4,-3
1529301409283853,-13,29,36,12,19,11,6,-8
1529301409283853,10,14,-3,-1,-1,-3,6,3
1529301409300282,17,-4,-10,-2,-1,0,-3,4
1529301409300282,1,-40,-2,5,3,-1,-1,-7
1529301409302086,-3,-35,1,-9,-4,1,-2,0
1529301409302086,-18,-57,7,3,-1,-4,-7,-5
1529301409322203,-5,-38,1,5,11,4,4,2
1529301409322203,5,-17,21,-1,1,12,4,6
1529301409323992,8,-3,-29,-2,2,-7,0,3
1529301409323992,2,-7,-25,-23,-16,-7,-5,-2
1529301409336939,-1,-23,21,0,-11,-13,-7,0
1529301409336939,-4,-18,-50,-7,-2,0,-4,-3
1529301409343919,0,-6,3,-5,-3,0,3,0
1529301409343919,0,11,36,9,8,-2,0,5
1529301409360506,-7,16,-6,-1,-7,1,-1,-8
1529301409360506,-5,31,29,2,8,9,9,0
1529301409361311,2,-1,-21,-1,1,2,-3,4
1529301409361311,2,7,3,9,14,6,9,2
1529301409382686,-2,24,-13,2,-10,-24,-26,-1
1529301409382686,2,9,40,14,-6,-11,-6,-8
1529301409384247,3,-11,-44,-38,-17,24,11,5
1529301409384247,-4,12,-7,10,13,5,2,3
1529301409396599,-9,-5,23,-7,19,14,1,-5
1529301409396599,4,-11,13,17,-16,-19,-7,8
1529301409403565,-5,-3,-24,0,-12,-21,-13,-8
1529301409403565,1,6,30,-25,-8,2,-2,-3
1529301409420035,3,4,7,28,1,-1,-3,1
1529301409420035,-10,-13,30,-1,-12,-11,-5,-7
1529301409421626,1,9,53,-4,10,8,4,-1
1529301409421626,7,7,-51,-8,-2,3,-3,1
1529301409442932,-5,-3,-52,5,-8,-6,6,-4
1529301409442932,-1,9,-51,7,7,7,2,0
1529301409443568,2,3,-26,16,3,-2,-1,1
1529301409443568,-3,-16,-11,5,-10,-6,-8,-4
1529301409456154,9,3,-7,-26,-6,4,7,0
1529301409456154,-10,-7,-18,11,0,0,-1,2
1529301409465240,3,-2,-4,-17,-1,-6,-4,-2
1529301409465240,8,9,1,6,5,3,0,0
1529301409478543,-22,-4,0,-3,-1,6,14,-10
1529301409478543,10,-5,-10,-19,-2,-4,-3,3
1529301409488279,0,3,30,19,2,-2,-3,0
1529301409488279,-2,5,12,8,-4,-3,-1,-3
1529301409502970,-5,-7,5,-30,-7,-3,-2,-2
1529301409502970,13,-6,-8,-17,-4,-2,-3,3
1529301409503930,-20,-3,6,-3,-4,-3,-3,-4
1529301409503930,-19,-6,0,9,-1,0,0,-3
1529301409524873,22,10,14,-6,3,1,3,7
1529301409524873,-37,1,11,-4,0,0,0,-4
1529301409526867,8,-5,-25,-14,-4,1,-3,-11
1529301409526867,-5,-2,4,12,2,0,3,0
1529301409539192,-7,4,2,17,0,2,-3,-1
1529301409539192,19,20,17,3,9,4,3,1
1529301409555152,1,-12,-11,-29,-10,-6,-1,6
1529301409555152,1,-12,-15,-19,-2,-5,-2,-2
1529301409562134,-22,0,13,21,3,4,2,-11
1529301409562134,16,3,-4,4,2,-2,-6,-5
1529301409569346,-10,8,1,-6,-2,0,3,9
1529301409569346,16,0,-6,3,-9,-3,3,9
1529301409584311,-5,-1,2,-3,-5,-3,-9,-2
1529301409584311,-4,-10,-8,-1,11,0,6,0
1529301409586304,7,-26,4,16,2,-3,1,-8
1529301409586304,-1,9,6,9,2,1,-6,-4
1529301409598686,3,-10,3,-6,-6,-4,5,2
1529301409598686,-19,-14,-4,-6,-1,3,-5,-8
1529301409607675,20,14,12,19,4,-6,-1,3
1529301409607675,-2,-9,-5,-9,-14,-9,-6,-2
1529301409621637,-9,-6,1,-2,1,-3,-3,1
1529301409621637,9,7,6,-13,-3,1,-4,-8
1529301409628620,-2,2,-10,2,0,-2,-2,2
1529301409628620,-5,7,4,-8,-2,0,-4,-4
1529301409644577,-1,-5,-7,9,1,-3,0,0
1529301409644577,-7,-6,-10,-7,-12,3,-2,1
1529301409646572,-6,1,9,-1,1,1,-4,-4
1529301409646572,0,-1,-1,6,0,4,3,-3
1529301409658539,17,18,0,-4,19,-1,0,5
1529301409658539,1,-2,16,23,14,2,14,7
1529301409667535,-13,-12,-5,-13,-9,6,-1,-2
1529301409667535,0,2,-5,-19,-4,-3,-3,-1
1529301409681478,0,7,5,-7,-10,-5,-9,-2
1529301409681478,-1,0,-11,6,8,-3,-9,-2
1529301409688459,-2,-2,7,6,-2,1,2,0
1529301409688459,-3,1,-3,-19,-5,-4,0,0
1529301409704416,0,-8,-5,10,-1,3,1,-2
1529301409704416,0,-13,-2,-16,-6,-3,-3,0
1529301409706411,-13,5,-17,7,0,-6,-11,-3
1529301409706411,1,4,-7,-4,-1,2,7,-3
1529301409718379,4,4,-2,4,-3,-2,-1,2
1529301409718379,18,19,14,2,0,-1,3,5
1529301409727355,1,4,2,-4,-2,-3,-3,-2
1529301409727355,-18,-17,-5,7,5,1,-4,-4
1529301409741318,5,-11,-1,2,-6,-3,-6,-4
1529301409741318,2,4,-1,-11,-9,-7,-2,2
1529301409748334,6,-17,18,26,9,4,7,4
1529301409748334,-9,-22,-50,-32,-2,-3,-5,-3
1529301409764306,-27,-7,-9,2,-2,2,-1,-17
1529301409764306,-6,-6,-9,-6,-3,-2,0,-1
1529301409766251,3,0,-17,-23,-7,-2,-1,1
1529301409766251,30,19,38,36,6,1,-1,6
1529301409778273,-26,-1,-12,-13,-3,0,-2,-1
1529301409778273,11,4,-5,-11,-8,-5,-4,0
1529301409787195,3,3,1,14,6,0,3,1
1529301409787195,15,9,21,8,8,4,2,2
1529301409801212,-26,-8,-3,-16,-9,-7,2,-2
1529301409801212,-1,-5,4,10,-1,3,0,-4
1529301409808140,7,5,1,-6,-4,-5,-2,5
1529301409808140,-30,-18,-14,1,0,-1,-3,-15
1529301409825147,24,7,15,11,10,2,0,5
1529301409825147,-6,1,-18,-13,-11,3,-1,-1
1529301409826116,-2,-6,26,-7,-11,-2,1,-1
1529301409826116,-5,-5,-13,-1,-3,-5,-3,-2
1529301409847091,8,1,14,5,0,-2,2,2
1529301409847091,-10,-7,-8,1,4,-6,-8,-5
1529301409849039,8,-2,-4,2,4,2,-4,-2
1529301409849039,-5,-10,-8,2,0,3,3,0
1529301409862037,5,7,14,1,4,1,0,-1
1529301409862037,4,-4,-8,-1,2,-4,-3,2
1529301409868033,-11,7,11,5,3,-2,-4,-4
1529301409868033,-2,27,9,-7,-10,4,3,3
1529301409884987,9,-1,-6,6,6,-5,-6,1
1529301409884987,-6,32,0,-2,0,-4,-2,-2
1529301409885987,-9,27,-28,-15,-5,0,2,-3
1529301409885987,-1,-9,2,4,1,-5,-4,0
1529301409906930,9,-7,0,-3,-6,2,2,2
1529301409906930,-7,-1,5,8,3,-3,-2,-2
1529301409908871,-4,-2,-8,0,4,-5,-5,-6
1529301409908871,5,-4,0,-8,-2,-4,-3,1
1529301409920837,-1,0,-13,-6,-9,-3,-4,-1
1529301409920837,-5,12,0,3,3,2,3,-2
1529301409929813,0,-8,-2,11,2,1,4,2
1529301409929813,1,5,-5,-14,-2,-2,-3,1
1529301409945307,-1,15,5,5,1,-1,-1,0
1529301409945307,-2,-21,-4,-5,-1,2,1,-1
1529301409946072,3,-6,-3,-7,-4,-1,-1,-1
1529301409946072,-2,7,3,8,-2,-2,-3,-1
1529301409968061,3,-5,-2,-7,-2,-1,-1,0
1529301409968061,-5,-19,-6,-8,-13,-3,-5,-4
1529301409969012,-14,-11,1,6,0,1,4,-2
1529301409969012,0,1,8,12,15,3,5,2
1529301409980979,3,-17,-11,-4,0,2,2,2
1529301409980979,8,-9,-4,-3,-2,-4,-1,0
1529301409989955,1,1,6,-1,-5,-5,-4,-3
1529301409989955,0,-17,-2,1,-3,-3,-4,-5
1529301410005179,-1,-5,4,-2,-1,4,2,-1
1529301410005179,1,4,6,-9,-1,-1,-1,1
1529301410007144,0,0,-25,1,-1,-4,-4,-1
1529301410007144,-2,-2,4,-1,-4,1,0,-2
1529301410027302,2,6,-1,0,-2,-1,0,-1
1529301410027302,-5,8,6,0,-1,3,2,-1
1529301410029150,-2,-6,6,0,-1,-1,-1,-2
1529301410029150,-2,5,4,0,-2,-2,-3,-1
1529301410041118,-1,11,-4,-4,-2,0,2,-1
1529301410041118,-1,-4,-2,-1,-2,-2,-4,-2
1529301410050098,0,2,-1,-1,2,4,1,1
1529301410050098,0,7,12,2,1,-3,0,-2
1529301410064220,-2,-2,-5,-4,-2,-4,-2,-1
1529301410064220,-4,-8,0,1,1,-1,-1,0
1529301410072499,5,0,6,2,1,-1,-1,2
1529301410072499,-2,0,-8,-1,0,3,1,-3
1529301410087958,-1,-11,-4,-2,-3,-1,-2,-2
1529301410087958,-2,-3,-1,-3,-4,-1,0,-1
1529301410089757,-2,-1,-1,-3,0,-2,-2,-1
1529301410089757,3,-7,2,2,1,0,1,2
1529301410101721,-1,-7,4,5,-2,-3,-1,-2
1529301410101721,-5,0,-11,-7,4,1,0,-1
1529301410109862,-2,1,12,4,4,0,0,-1
1529301410109862,-5,-11,-14,-5,-12,-7,-4,-1
1529301410125098,3,-1,-2,-3,-2,0,0,-2
1529301410125098,0,2,12,-5,-2,0,1,1
1529301410126356,0,-9,-25,-1,1,1,-1,-1
1529301410126356,0,-3,3,-1,1,-1,0,-1
1529301410147262,0,0,9,5,2,0,0,1
1529301410147262,-1,-8,-15,3,-3,0,0,-3
1529301410149033,-2,-5,5,-14,-7,-4,-4,-1
1529301410149033,-3,1,-5,2,-2,-3,-3,-1
1529301410161233,-3,3,0,-2,0,-2,-1,-1
1529301410161233,-1,-3,3,1,-3,-3,-2,-1
1529301410169979,2,-1,0,5,4,3,2,-1
1529301410169979,1,-3,-3,-3,0,-1,-2,0
1529301410185286,-5,-12,-4,-3,-1,1,1,-1
1529301410185286,1,-4,-2,4,0,-1,-2,1
1529301410187186,-1,1,3,-9,-6,-2,-1,-2
1529301410187186,-2,-5,0,-2,-3,-3,-1,-2
1529301410207226,-2,-1,-4,-5,-4,-1,-2,-2
1529301410207226,-2,-1,-4,1,-2,1,0,-2
1529301410209179,-1,0,4,4,-1,0,0,-1
1529301410209179,-2,-3,1,0,3,3,1,0
1529301410221414,1,0,-9,-4,-4,-3,-3,1
1529301410221414,-2,1,0,-2,-3,-3,-1,-1
1529301410230129,-2,-3,1,0,-3,-3,-3,0
1529301410230129,-2,4,-3,1,0,2,2,-1
1529301410245349,-1,11,0,0,0,2,1,-1
1529301410245349,3,-2,-1,0,3,0,0,0
1529301410247205,-4,-6,1,3,-3,0,-1,-1
1529301410247205,5,-1,-2,0,-5,-5,-4,0
1529301410268117,-24,-10,-3,-8,-3,-3,-1,-5
1529301410268117,-1,-1,1,1,1,3,2,-1
1529301410268854,1,1,-2,3,-2,-1,-1,-3
1529301410268854,-2,1,1,3,2,1,-1,0
1529301410281096,5,1,-1,0,1,-1,0,3
1529301410281096,-2,4,-1,-1,-2,-3,-2,-2
1529301410289902,-2,2,0,0,1,-1,-2,-2
1529301410289902,-1,-5,-1,-3,-1,-1,-3,-2
1529301410305338,4,-6,-2,0,-2,-3,-3,-1
1529301410305338,-5,-1,-1,4,-1,2,-1,-1
1529301410307101,2,-1,-1,-1,-2,-2,-1,-2
1529301410307101,-3,0,-4,-9,-2,0,0,0
1529301410327536,-2,0,-2,0,-1,0,-2,-2
1529301410327536,0,1,2,0,-1,-3,-1,-2
1529301410329132,-2,-2,1,2,-1,0,0,-1
1529301410329132,0,-1,-3,-2,-1,1,0,-1
1529301410341101,2,0,-1,-2,-1,-1,1,-1
1529301410341101,1,0,-2,1,0,1,-1,-1
1529301410350077,-2,-1,-1,-3,-1,-1,0,0
1529301410350077,0,0,-1,1,-1,-1,0,-1
1529301410365066,-1,-2,0,0,-1,-1,-2,-2
1529301410365066,2,-1,-3,-2,0,0,-1,2
1529301410366064,-9,-2,-2,-2,-2,-1,-1,-2
1529301410366064,-1,5,4,1,-1,0,0,-1
1529301410387975,1,-3,-7,-2,-2,-3,-2,-1
1529301410387975,-3,-4,-3,-2,-1,-1,-2,-2
1529301410388973,4,3,2,0,1,0,-1,-2
1529301410388973,-2,-2,-2,2,0,-2,-2,-2
1529301410409598,1,-1,1,-2,-1,-1,0,-2
1529301410409598,4,1,-1,-3,-2,-1,0,-1
1529301410410179,0,2,-1,1,-2,0,0,-1
1529301410410179,-3,1,-1,1,0,0,-1,0
1529301410424536,0,-1,0,-1,0,1,0,0
1529301410424536,-3,-4,0,0,0,-2,-1,0
1529301410424536,-1,-6,-2,-1,-2,-2,-2,-2
1529301410424536,-2,-3,-3,-2,-1,-1,0,0
1529301410446790,1,2,0,-2,-2,-2,0,2
1529301410446790,-2,-1,-1,-3,-1,-1,-1,0
1529301410447794,-2,0,1,-2,0,-1,-2,0
1529301410447794,0,-1,-1,-1,-1,-1,-2,-1
1529301410469995,1,1,1,1,0,0,-2,1
1529301410469995,-18,-4,2,-2,-2,-2,0,-4
1529301410469995,1,0,0,-1,0,1,0,0
1529301410469995,-1,0,-3,-2,0,0,-2,-2
1529301410484652,0,-3,-3,0,-2,-1,0,-1
1529301410484652,-4,-2,-5,-1,-1,-1,-1,0
1529301410485307,0,0,-1,-1,-3,-3,0,0
1529301410485307,-4,-3,-2,-2,-2,-1,-2,-1
1529301410507134,0,-1,-1,-1,-1,0,0,-1
1529301410507134,9,1,-1,0,-2,0,0,0
1529301410507134,-9,-1,-1,-2,0,-1,-2,-3
1529301410507134,3,-1,1,-1,-1,0,-2,0
1529301410529844,-1,-3,-2,-2,-1,-2,-1,-1
1529301410529844,3,-2,0,-1,-1,0,-1,0
1529301410529844,-1,-3,-2,-1,-2,-1,-2,0
1529301410529844,-2,-2,-2,0,-1,-1,-1,-1
1529301410544816,-4,0,0,0,-1,0,0,-1
1529301410544816,-1,-2,-2,-1,-2,-1,1,-2
1529301410544816,1,-1,-3,-1,-3,-2,0,0
1529301410544816,-1,0,0,-1,-1,-2,1,-1
1529301410566939,1,0,0,0,0,-1,-3,-1
1529301410566939,-1,-3,-2,-3,-1,-1,-2,0
1529301410567936,0,0,-3,-1,-3,0,-2,0
1529301410567936,4,1,2,-1,0,-1,-2,0
1529301410588653,-9,-2,-2,-1,-1,0,-2,-3
1529301410588653,0,0,-1,0,-2,1,-2,-2
1529301410589651,3,3,-1,-1,-1,-1,-1,-1
1529301410589651,-5,-3,-2,-2,-2,0,-1,0
1529301410604617,3,-1,0,-1,-2,-1,-1,-1
1529301410604617,-1,0,0,0,0,-1,-1,-1
1529301410605658,0,-2,0,-1,-1,-2,-1,-1
1529301410605658,-1,0,-1,0,-1,-1,-1,-2
1529301410627425,1,0,-2,-1,-1,-3,-1,0
1529301410627425,1,0,-1,0,-2,-1,-2,-1
1529301410627425,-1,-2,-2,-1,-1,1,0,-1
1529301410627425,-1,0,-3,-1,1,-1,-1,-2
1529301410649759,1,1,0,-1,-1,-1,-2,0
1529301410649759,-3,0,-2,-2,-1,-2,1,-2
1529301410650609,1,-1,-2,0,-1,-1,-2,-1
1529301410650609,-2,0,-1,0,-2,-1,-1,1
1529301410664828,0,-2,-1,0,1,0,-1,-3
1529301410664828,2,-1,-1,-1,-2,-2,-3,0
1529301410664828,-2,0,-2,-1,-2,-1,0,-1
1529301410664828,-2,0,1,-1,0,-3,-1,-1
1529301410687458,-2,-1,-1,-2,-1,-1,-1,-2
1529301410687458,0,-2,-2,-2,0,-1,-1,0
1529301410687458,0,1,1,-1,-1,-2,-1,-3
1529301410687458,0,-1,-2,-1,0,-2,-2,-1
1529301410709838,-4,-1,-2,-1,-1,-1,0,-1
1529301410709838,-2,-1,-1,0,-2,-1,0,-1
1529301410709838,-3,-2,-2,0,0,0,-1,1
1529301410709838,0,-2,-2,-1,-2,1,-1,-2
1529301410723757,1,-1,2,-2,-1,0,-2,0
1529301410723757,0,-1,-1,0,1,0,-2,0
1529301410724669,-3,1,-1,-2,-1,0,-1,-1
1529301410724669,0,-2,-2,-2,-1,-2,-1,-1
1529301410748248,-1,0,0,-1,-1,-1,-1,-1
1529301410748248,-1,-1,-1,-2,-1,-1,-2,-2
1529301410749488,-1,-2,-1,-3,0,-1,-1,-1
1529301410749488,-2,1,1,-1,-1,-2,1,-1
1529301410769594,0,-1,-3,0,-1,-1,1,0
1529301410769594,0,0,-1,-2,0,0,-1,-1
1529301410769594,-1,0,-1,0,-1,-2,-1,-1
1529301410769594,-2,-1,0,-2,-1,0,-2,-2
1529301410784777,1,-1,-1,-1,-1,-1,-1,0
1529301410784777,-4,0,-1,-1,-2,-1,-1,-2
1529301410785617,0,1,1,0,-1,-2,0,-1
1529301410785617,-1,0,-2,0,-2,-1,-1,0
1529301410807070,-2,-1,-1,-2,1,0,-2,-1
1529301410807070,1,0,-1,1,0,0,-1,-1
1529301410807737,-2,-2,0,-1,-2,-1,-1,0
1529301410807737,-2,0,-2,-1,-3,0,1,0
1529301410828718,-2,0,-2,-1,-2,-1,-1,1
1529301410828718,1,0,0,-1,1,-1,0,-2
1529301410829678,-2,-3,-1,-1,0,-1,-2,-2
1529301410829678,2,-2,-1,0,-1,-1,-1,-2
1529301410843678,-2,-2,1,-1,-2,-1,-2,-2
1529301410843678,-2,-1,0,-1,-3,-1,0,1
1529301410844641,0,-1,-1,-1,0,-1,-1,0
1529301410844641,0,0,-2,-2,1,0,-1,-2
1529301410866620,0,-1,-2,0,0,-2,-1,-1
1529301410866620,-5,-3,-2,-2,-2,0,-1,-1
1529301410867576,0,-1,-3,-2,-2,-1,-1,0
1529301410867576,-1,-1,1,-1,0,-3,-1,-4
1529301410889518,-1,-1,-2,0,0,0,-1,-2
1529301410889518,1,-1,-1,0,-3,-1,0,-1
1529301410889518,0,0,0,-1,-1,-1,-1,-1
1529301410889518,-3,-4,-2,-1,-1,-1,-1,0
1529301410904479,-2,-2,-2,0,-2,-1,1,0
1529301410904479,-1,-1,-1,-2,0,1,0,-1
1529301410904479,-2,-2,0,0,-1,0,-1,0
1529301410904479,-1,-1,-1,-1,-2,-2,-1,-2
1529301410926470,-1,0,0,0,-2,-1,0,-1
1529301410926470,-3,0,0,-2,-2,-1,-2,-1
1529301410927416,-1,-1,-2,-2,0,-1,-1,-1
1529301410927416,0,-2,-1,0,-3,-1,-1,0
1529301410949630,-3,-2,0,-1,-1,0,-1,-2
1529301410949630,2,-1,-1,-1,-1,-3,0,0
1529301410950355,-1,-3,-2,-1,-3,0,-1,-4
1529301410950355,-2,-1,0,1,-1,-1,0,-1
1529301410964577,0,-2,-4,-2,-2,-2,-1,0
1529301410964577,-1,-1,-1,-1,-1,1,-2,-2
1529301410965583,-1,-1,0,0,0,-1,0,0
1529301410965583,-2,-1,-3,-4,-1,0,0,1
1529301410986597,0,-2,-3,-2,0,0,-1,-1
1529301410986597,-2,-1,-2,-1,-1,-2,-1,-1
1529301410987591,-1,0,0,-1,0,-1,-2,-2
1529301410987591,-2,0,-1,-2,-1,-1,-2,-2
1529301411010119,-1,0,-1,-2,0,-3,0,0
1529301411010119,0,0,-1,0,-2,-1,-2,-2
1529301411010785,-2,-2,-1,-1,-1,-1,-1,0
1529301411010785,-1,0,-2,0,-1,0,0,-2
1529301411023795,-1,-1,-2,-2,-2,-1,-1,-1
1529301411023795,0,1,0,2,0,-2,0,-1
1529301411024747,-1,-1,-2,-1,-2,-1,-2,0
1529301411024747,1,0,0,0,0,-1,-2,-2
1529301411046689,-3,0,1,0,-1,-1,0,0
1529301411046689,-2,-1,-2,0,-3,-2,-1,-1
1529301411047686,-1,-1,-3,-1,-2,-1,0,-1
1529301411047686,-2,0,1,-1,-2,-1,-2,-1
1529301411069871,1,1,-1,-1,-2,1,-2,0
1529301411069871,-1,-2,0,-2,0,-3,-2,-1
1529301411070631,0,0,-1,0,0,1,0,1
1529301411070631,-2,-1,-3,-1,-2,-3,-2,-2
1529301411084116,0,-1,-1,0,-1,0,-1,-5
1529301411084116,-1,-3,-3,-3,-1,0,1,-1
1529301411084869,-1,0,0,-1,-1,-1,0,0
1529301411084869,1,-2,-2,1,0,2,0,1
