timestamp,emg1,emg2,emg3,emg4,emg5,emg6,emg7,emg8
1529301837185044,13,14,3,0,2,2,2,0
1529301837185044,0,4,0,0,0,2,2,1
1529301837187038,-1,-7,-4,-6,-3,-4,-4,-2
1529301837187038,-3,-2,-1,-1,-2,-4,-2,-2
1529301837188036,-5,-7,-3,2,1,-1,-1,-1
1529301837188036,0,2,0,0,1,2,0,-1
1529301837192025,1,2,1,-1,-2,0,-1,-1
1529301837192025,0,-1,-1,-1,-1,-2,1,1
1529301837195019,-3,-2,0,-2,-5,-6,-2,-1
1529301837195019,1,-1,2,-1,-1,-1,-2,-1
1529301837198011,-4,-2,-2,-1,-1,-2,-3,0
1529301837198011,0,-1,-3,-1,-2,0,-2,0
1529301837206985,-2,-2,-1,-1,-1,0,0,0
1529301837206985,-1,-3,-1,-2,0,0,-3,-2
1529301837220949,0,-1,1,0,-2,0,0,0
1529301837220949,1,1,-1,0,-1,0,-1,-2
1529301837228926,-2,-3,-2,-1,2,1,-3,-2
1529301837228926,-2,-3,-3,-1,-1,-3,-2,-2
1529301837241891,-1,0,0,-1,-2,-2,1,-2
1529301837241891,0,-2,-1,-3,-4,-1,-1,-1
1529301837252864,-1,-3,-1,-1,-1,-1,-1,0
1529301837252864,-1,-2,-1,0,2,-2,-2,-4
1529301837271812,0,1,-1,0,-4,0,-1,-1
1529301837271812,-2,-1,0,-1,2,1,-2,-2
1529301837306718,-2,1,0,1,1,2,0,-1
1529301837306718,0,1,0,1,0,0,1,1
1529301837307715,1,3,0,1,2,4,3,0
1529301837307715,-5,-14,-3,-5,-2,1,-2,-6
1529301837310709,-4,-1,-5,-9,-12,-19,-7,-3
1529301837310709,2,-1,-1,-2,-4,2,-3,-2
1529301837311705,3,2,2,0,-5,-1,2,3
1529301837311705,1,6,1,8,10,4,2,2
1529301837316692,3,-1,0,1,1,11,5,2
1529301837316692,-4,-9,-4,-1,8,-4,-5,-2
1529301837324670,-2,3,-2,-4,-12,-9,0,-2
1529301837324670,0,1,-1,-4,-5,-3,-1,0
1529301837334647,0,1,-1,-2,1,-5,-1,-2
1529301837334647,-3,5,-3,-1,0,6,0,1
1529301837347609,-10,-14,-5,7,2,-12,-5,-4
1529301837347609,0,2,-1,-4,-7,4,-2,2
1529301837356585,-3,-6,3,4,-7,8,3,-2
1529301837356585,9,7,1,0,16,12,4,1
1529301837378526,0,3,-2,-1,9,3,-3,-2
1529301837378526,-1,2,-4,-5,-13,-10,-4,-4
1529301837380522,0,-2,-2,-9,-5,-2,-5,1
1529301837380522,-6,-7,-1,-2,-13,-10,0,-1
1529301837392489,-4,-4,0,3,-4,-2,-3,-6
1529301837392489,3,4,-2,0,2,-18,-6,-1
1529301837401465,0,-4,-1,0,14,16,-1,-4
1529301837401465,-3,-3,-1,0,0,0,-1,-3
1529301837416425,-1,-2,0,12,11,6,4,4
1529301837416425,-2,0,3,-5,-10,2,3,-1
1529301837417423,-1,-1,-3,11,9,-4,-4,-1
1529301837417423,-3,-5,-5,-15,-16,-11,-1,-1
1529301837438367,2,0,-2,-8,-3,5,-6,-3
1529301837438367,-3,-1,-1,1,1,0,2,-1
1529301837440361,-5,-2,1,-4,-5,-11,-2,0
1529301837440361,5,3,1,-7,-14,0,0,-1
1529301837452328,1,2,0,6,7,-3,-1,1
1529301837452328,-2,-4,-3,-1,-4,-1,-4,-3
1529301837461305,-1,0,0,8,25,12,-2,-3
1529301837461305,4,3,1,2,-8,5,9,8
1529301837476265,1,-1,1,1,13,8,3,1
1529301837476265,-5,-1,-1,-2,0,5,-3,-1
1529301837477262,4,8,-3,-13,-32,-42,-7,-3
1529301837477262,-3,-4,-2,3,10,14,-7,-4
1529301837498206,-17,-15,-5,-6,-13,5,-3,-7
1529301837498206,8,4,4,7,7,-5,2,4
1529301837500200,-4,7,2,0,-1,13,7,5
1529301837500200,1,-7,-4,-4,-21,-17,-7,-3
1529301837512170,3,4,-3,-5,14,-14,-6,0
1529301837512170,-5,-6,-2,-2,-11,3,-2,-7
1529301837521145,-1,-3,0,7,17,16,3,-1
1529301837521145,1,2,2,5,4,8,4,4
1529301837535107,-1,0,0,-2,-10,-3,-2,-3
1529301837535107,1,-1,-4,-7,-12,-13,-4,0
1529301837544083,3,0,-1,-1,7,3,-2,0
1529301837544083,-8,-3,0,7,12,3,0,-4
1529301837558046,3,3,2,-5,3,8,3,1
1529301837558046,-3,-10,0,0,-9,8,7,4
1529301837560040,2,0,-4,-1,-5,-3,-1,0
1529301837560040,0,2,0,6,6,-10,-3,-3
1529301837572009,2,-3,-2,-3,-13,2,-3,-2
1529301837572009,-5,-5,-3,-4,7,-2,-2,-1
1529301837580985,3,1,0,-4,-6,-5,0,-2
1529301837580985,-8,-6,-3,-3,-5,-7,-5,-4
1529301837595945,6,3,1,-9,-14,-6,3,7
1529301837595945,1,2,-4,0,3,0,0,1
1529301837597940,-5,-9,-3,-7,-14,-3,-6,-3
1529301837597940,4,10,3,3,3,0,-1,0
1529301837618885,-2,-13,-1,4,13,16,6,-1
1529301837618885,-3,-1,2,7,17,11,0,-1
1529301837619882,0,-2,-4,-5,-10,-4,-2,-4
1529301837619882,-3,-3,-3,-16,-37,-25,-2,2
1529301837631850,-3,0,-1,1,5,-7,-3,-2
1529301837631850,4,0,3,11,15,13,7,1
1529301837640825,-5,-6,-4,3,1,0,-7,-7
1529301837640825,2,1,-2,-7,3,4,-4,-2
1529301837655785,-6,-7,-8,-14,-23,-20,-7,-3
1529301837655785,2,8,6,20,20,12,8,1
1529301837657785,-1,0,3,7,22,21,6,7
1529301837657785,-1,-3,0,2,5,0,-7,-12
1529301837678724,-3,-3,-6,-13,-12,-15,-5,7
1529301837678724,-1,-1,-5,-19,-31,-28,-13,-5
1529301837679721,-2,-2,3,-5,-10,-7,1,-1
1529301837679721,0,0,3,19,31,8,6,4
1529301837691689,0,2,1,10,11,13,3,-2
1529301837691689,2,4,-6,-12,-19,-8,-5,-1
1529301837700665,0,-4,-3,-6,-11,-3,1,1
1529301837700665,-6,2,0,0,-14,-16,-4,-6
1529301837715626,7,5,11,19,34,30,10,3
1529301837715626,-2,-1,-4,-5,4,7,1,0
1529301837722607,0,2,-4,-5,-7,-12,-1,-1
1529301837722607,-9,-6,-9,-19,-33,-15,-20,-19
1529301837738579,-1,0,0,-3,-3,-6,5,4
1529301837738579,6,4,7,19,20,7,8,9
1529301837740559,-5,-3,-2,-3,-2,7,-1,-4
1529301837740559,0,-1,-1,12,12,8,-2,-4
1529301837752526,3,2,-8,-23,-33,-33,-11,1
1529301837752526,-4,-5,-2,-9,19,11,-3,-5
1529301837761502,5,1,-1,-2,5,1,6,3
1529301837761502,4,7,4,17,7,3,-8,0
1529301837775465,-2,0,-7,-10,-36,-18,2,-2
1529301837775465,-12,-4,1,12,23,7,-2,-8
1529301837782447,1,-10,-4,-10,-15,-5,-3,6
1529301837782447,-7,-5,-5,-18,-6,-10,-10,-12
1529301837798403,5,8,3,-4,-39,-22,4,8
1529301837798403,0,1,2,1,12,12,9,7
1529301837800398,-3,1,1,14,28,27,-2,-10
1529301837800398,3,-2,-2,4,25,13,10,13
1529301837812366,-2,-1,-5,-15,-24,-16,-15,-8
1529301837812366,-6,-7,-2,7,-5,-6,-6,-9
1529301837828323,0,5,3,0,-9,-16,0,3
1529301837828323,-3,-9,-5,-10,-4,1,-7,-12
1529301837835344,0,3,13,8,3,13,14,6
1529301837835344,3,-6,-18,-16,-8,-7,-3,3
1529301837842325,-6,1,-6,-7,-10,-18,-8,-8
1529301837842325,3,1,5,-2,-6,5,7,6
1529301837858244,-11,-7,0,10,37,20,-9,-14
1529301837858244,9,5,0,-10,-34,-17,-4,-1
1529301837860238,-3,-3,-4,-11,-1,-23,-9,-2
1529301837860238,3,2,2,7,7,18,18,12
1529301837872207,-4,-1,-3,10,7,-1,-10,-11
1529301837872207,-3,1,1,0,-7,-15,-1,-1
1529301837881184,-1,0,-3,-7,-7,12,-3,1
1529301837881184,-1,-4,-1,-6,-7,-7,-3,1
1529301837895145,0,-3,-3,-1,-2,-2,0,0
1529301837895145,-2,5,3,4,3,1,-1,-2
1529301837902127,-4,-12,4,7,1,-1,-1,-3
1529301837902127,-2,-1,-1,-1,6,-7,-7,0
1529301837918084,1,-1,-1,2,-1,21,11,4
1529301837918084,1,-2,-4,-7,-4,9,-6,-4
1529301837920079,0,0,-1,3,-3,17,4,0
1529301837920079,0,0,-2,0,-3,1,0,0
1529301837941023,-2,-2,-7,-13,-2,39,-13,-10
1529301837941023,-2,-2,-3,-10,-30,102,-6,-2
1529301837943018,0,-10,3,6,13,127,3,5
1529301837943018,-1,2,1,11,35,93,9,3
1529301837954987,1,3,-1,-4,-27,-13,-1,-1
1529301837954987,1,-2,2,6,19,-74,-10,-6
1529301837961967,2,10,4,7,-2,-65,3,-1
1529301837961967,-1,-6,-4,-7,-11,-39,-7,8
1529301837979182,2,-3,-2,-4,-9,-93,-26,-1
1529301837979182,-4,-1,3,5,2,-121,-30,-2
1529301837979919,-3,-1,-4,4,3,-128,-12,-2
1529301837979919,1,1,1,2,-2,-127,2,-7
1529301838001093,2,0,-5,9,6,-89,22,6
1529301838001093,-2,-2,3,14,0,-64,24,0
1529301838002858,1,3,4,13,7,-24,25,1
1529301838002858,-2,-1,-3,-3,1,9,25,-3
1529301838014825,-3,-1,-6,-11,8,32,18,-3
1529301838014825,-3,-4,1,-16,-6,34,8,-5
1529301838023811,-2,10,-7,-27,-20,50,-3,-3
1529301838023811,-1,14,-6,-16,-14,26,-4,4
1529301838038762,2,9,7,10,42,82,-1,-1
1529301838038762,2,4,-4,-5,8,66,2,3
1529301838039758,2,-10,-1,-22,-12,29,-5,0
1529301838039758,-6,-14,-4,-20,-16,10,-14,-5
1529301838060734,2,-5,10,1,2,21,-4,1
1529301838060734,-2,-12,-3,3,2,21,-1,0
1529301838062697,0,-9,5,19,4,10,-7,-5
1529301838062697,4,-12,-9,-2,-2,6,-7,-6
1529301838075661,-3,-16,-7,-6,7,17,-6,3
1529301838075661,-25,-4,5,3,-5,17,-2,-3
1529301838081646,14,14,-5,-2,-5,3,-7,13
1529301838081646,10,-34,-11,2,4,19,1,1
1529301838098600,17,6,11,13,3,7,-15,-3
1529301838098600,-11,-9,-12,-4,-1,19,1,4
1529301838100605,-43,-8,-11,5,2,5,-10,-30
1529301838100605,4,14,12,6,-1,16,6,11
1529301838120549,23,22,-6,2,5,10,8,-3
1529301838120549,3,-10,10,6,-2,0,0,4
1529301838122537,4,1,-14,-5,-11,-12,-7,20
1529301838122537,-43,-21,3,-9,-3,1,-5,-20
1529301838134555,12,9,2,8,5,2,-4,-14
1529301838134555,-7,40,35,8,8,3,2,-6
1529301838143482,2,11,6,2,-1,1,9,16
1529301838143482,-25,-53,-41,-5,-11,-16,-3,3
1529301838158475,8,28,32,-3,-2,-9,-18,-6
1529301838158475,25,-23,-46,-7,-4,-4,1,10
1529301838160470,9,12,22,4,11,0,6,10
1529301838160470,-16,33,24,3,1,-1,-6,-19
1529301838181407,9,14,-23,-2,5,2,9,-6
1529301838181407,14,19,1,-1,-5,-2,-4,3
1529301838182377,9,-15,-2,-8,-8,-16,2,13
1529301838182377,5,-2,10,8,2,4,-3,-9
1529301838194346,-8,-18,-17,-7,-1,2,5,-23
1529301838194346,9,47,5,-6,-7,-9,-9,-9
1529301838203324,-10,-36,2,-11,-6,0,-1,-14
1529301838203324,18,18,30,14,6,-4,-1,16
1529301838218320,-14,-15,-46,-18,-12,-10,-10,-4
1529301838218320,-4,3,-2,-12,-21,-8,6,4
1529301838220276,8,72,66,28,17,8,-3,1
1529301838220276,-3,-24,11,5,11,13,12,4
1529301838241274,-15,21,11,3,-5,-8,-12,-2
1529301838241274,-11,-27,0,3,0,0,7,1
1529301838242275,-7,-10,-9,-8,-8,-7,-4,-7
1529301838242275,16,-8,-6,-9,-4,-8,-3,4
1529301838254237,-20,-38,-23,-3,-2,-4,-2,-1
1529301838254237,7,1,20,0,3,-2,-6,-9
1529301838263214,2,-9,-17,-11,-15,-3,-1,-9
1529301838263214,10,34,-5,-47,-26,-21,-6,-1
1529301838277178,-11,-24,2,54,44,31,14,13
1529301838277178,-9,-8,7,26,13,0,-2,-2
1529301838286099,-3,-15,-20,-10,5,1,-4,-7
1529301838286099,3,7,-19,12,1,2,2,5
1529301838300118,-9,3,23,-20,-24,-11,3,7
1529301838300118,0,-18,-20,-27,-8,-4,-3,-4
1529301838307101,3,2,-12,-21,5,2,-2,-5
1529301838307101,-4,7,6,58,30,11,0,0
1529301838324013,-2,-6,6,-8,-6,0,-1,4
1529301838324013,3,2,2,14,-2,-2,-2,1
1529301838325014,-5,-13,-23,-27,-24,-13,-5,-6
1529301838325014,1,12,3,-17,-5,-2,-1,-2
1529301838336964,-5,-7,-4,3,1,-3,-9,-5
1529301838336964,-3,-13,-18,-18,-15,-7,7,6
1529301838345978,1,4,5,10,0,4,1,-2
1529301838345978,8,7,-2,1,14,5,0,3
1529301838361110,-4,-5,2,-14,-4,-1,3,-1
1529301838361110,-3,-4,-1,-19,-12,-7,-8,-2
1529301838367921,-2,-8,-10,18,3,-3,-1,-3
1529301838367921,2,2,0,-4,-10,0,-1,3
1529301838383838,-3,-6,-3,-17,-16,-8,-5,0
1529301838383838,-2,5,-1,4,2,-5,-5,-6
1529301838385860,-1,-3,7,20,27,19,-2,-10
1529301838385860,-4,5,-4,-14,-14,-9,3,3
1529301838396805,6,5,1,5,-6,-7,0,15
1529301838396805,-3,-16,-12,-14,1,3,0,-2
1529301838405780,-2,13,5,-12,-4,-3,-8,-11
1529301838405780,2,6,5,58,50,19,5,2
1529301838420743,1,-8,-2,-32,-25,-7,6,7
1529301838420743,-6,0,-13,3,13,-6,-8,-11
1529301838427929,-8,-18,2,16,-7,-8,-4,-5
1529301838427929,4,5,8,6,-6,5,4,1
1529301838443694,1,3,-1,5,3,-1,-5,-4
1529301838443694,-5,-4,-3,-5,-3,-10,-15,-14
1529301838445952,0,-3,0,-17,-3,4,9,10
1529301838445952,-2,-5,-5,-3,-20,-5,6,8
1529301838466728,-2,0,-3,-29,-12,-9,-4,-5
1529301838466728,1,2,7,-9,19,12,-8,-4
1529301838467620,-2,-3,-6,46,3,-5,-1,-4
1529301838467620,0,1,-3,-33,-14,-16,2,6
1529301838480331,3,2,4,18,20,15,4,3
1529301838480331,-2,5,4,-10,-20,-7,-1,-2
1529301838487315,-3,-11,-8,-8,-1,-3,-8,-1
1529301838487315,1,-5,-9,-12,-14,-8,2,0
1529301838504028,-6,-5,-3,-5,5,-4,-2,-5
1529301838504028,2,0,5,7,-22,-9,3,5
1529301838505022,6,6,-3,16,29,14,5,6
1529301838505022,-13,-13,-11,-28,-18,-21,-30,-26
1529301838526005,1,-1,2,12,-3,3,13,7
1529301838526005,3,-1,4,20,3,10,21,15
1529301838527973,2,5,-1,-15,14,5,-4,-2
1529301838527973,-5,0,-2,-1,-5,-7,-10,-11
1529301838539941,-3,2,5,16,15,7,0,-3
1529301838539941,0,0,-5,-9,4,5,-12,-7
1529301838546925,4,2,-2,-11,-18,-6,16,10
1529301838546925,-5,-16,-4,3,7,10,-5,-2
1529301838563908,-6,-4,-1,3,-8,-8,-7,-7
1529301838563908,1,1,0,2,-4,-3,-10,-8
1529301838564874,0,6,-1,-5,-1,0,-8,-7
1529301838564874,4,4,2,7,2,3,8,4
1529301838585864,2,5,-1,-13,0,2,0,-1
1529301838585864,-1,-7,-6,-5,-2,-3,-9,-4
1529301838587813,-4,-6,4,-4,-11,-3,11,2
1529301838587813,0,2,-2,-2,-1,-4,4,2
1529301838600986,0,2,0,5,3,0,6,6
1529301838600986,0,3,0,-2,7,1,0,-3
1529301838607852,-3,-7,-1,19,0,-3,-6,-2
1529301838607852,-15,-9,-7,-13,-3,-5,-16,-7
1529301838623118,2,-8,-6,1,-2,-1,11,-10
1529301838623118,-20,13,18,18,10,6,8,12
1529301838625062,16,7,-18,-23,-14,-4,1,9
1529301838625062,32,-9,-3,3,-3,-10,-32,-21
1529301838646195,-12,-11,0,-1,-1,6,20,0
1529301838646195,26,-8,-14,-9,-9,-11,-12,19
1529301838652228,-71,-6,5,13,5,9,20,-42
1529301838652228,29,9,-1,-2,3,10,33,38
1529301838661011,29,19,13,1,2,-13,-31,5
1529301838661011,-49,-32,-7,7,3,9,9,-46
1529301838667187,-6,-6,-15,0,0,-2,-4,43
1529301838667187,-61,12,14,-1,-2,1,-3,-26
1529301838684131,11,-16,-5,-1,-1,-5,0,-4
1529301838684131,53,-11,17,3,3,-4,-8,24
1529301838684963,53,23,-19,4,8,2,-10,-22
1529301838684963,-94,-24,-19,-12,-11,-3,12,4
1529301838706544,57,-3,16,8,-2,-4,-5,6
1529301838706544,-9,30,-19,-13,1,7,8,-12
1529301838707212,34,-24,1,-11,-8,-4,-2,8
1529301838707212,30,28,-8,7,0,-4,-21,-5
1529301838720177,-37,8,19,9,0,-6,-27,-19
1529301838720177,1,32,2,2,5,6,22,-7
1529301838727665,-17,-3,28,-14,-12,-2,16,16
1529301838727665,31,74,46,9,-5,4,0,-6
1529301838743638,-39,-48,-40,11,15,8,-1,6
1529301838743638,-7,12,-1,-6,-3,-6,-2,2
1529301838745386,21,13,25,-9,-7,-11,-22,-6
1529301838745386,-4,-34,8,9,14,3,4,4
1529301838766750,19,37,27,13,2,1,-2,1
1529301838766750,14,-10,-36,-21,-14,-4,6,19
1529301838767631,-38,-35,-16,4,8,-1,-15,-59
1529301838767631,11,-35,-29,-18,-11,-8,1,22
1529301838779797,1,2,-14,-3,-4,7,17,7
1529301838779797,-17,4,16,7,2,1,-15,-15
1529301838788605,4,20,-13,4,0,1,8,24
1529301838788605,-4,-8,-4,13,8,-2,-12,-22
1529301838803543,-9,16,4,-12,-13,-11,-13,-35
1529301838803543,15,15,18,4,-4,-1,6,22
1529301838805484,13,10,16,-12,-8,-5,-17,-9
1529301838805484,-18,-17,-12,-27,0,7,12,2
1529301838825437,-7,0,20,65,38,14,7,10
1529301838825437,-3,-17,-9,-3,-5,-7,-14,-14
1529301838826427,-6,3,0,-2,-25,-18,-4,0
1529301838826427,12,16,19,0,14,12,4,-7
1529301838848558,-6,-17,-19,-31,-18,-5,10,14
1529301838848558,6,-15,4,10,17,7,4,8
1529301838848558,-12,-1,-6,4,0,0,4,1
1529301838848558,3,22,14,3,-12,-14,-11,-4
1529301838863252,8,11,-20,-18,-11,5,15,0
1529301838863252,-4,-18,7,15,5,3,21,15
1529301838863873,-24,-27,-4,-18,-10,-5,-4,3
1529301838863873,4,-17,-26,-23,8,3,-5,-13
1529301838885812,-17,19,12,32,1,-2,-17,-12
1529301838885812,-11,-23,-1,-9,-5,-6,-8,-12
1529301838885812,12,2,0,0,10,12,18,27
1529301838885812,4,-7,8,4,-11,-7,3,7
1529301838908566,-3,-12,-25,-23,-10,-11,-11,-2
1529301838908566,5,-11,-5,-14,-6,-5,-8,-3
1529301838908566,5,16,9,3,-13,-6,-1,-2
1529301838908566,16,3,-12,19,12,7,8,5
1529301838922887,-8,-3,7,-17,-11,-10,-2,4
1529301838922887,-3,6,11,7,1,10,3,-3
1529301838923613,-5,-9,-19,-47,-4,-7,-8,-8
1529301838923613,5,-5,3,34,12,11,8,10
1529301838945902,-4,-4,0,19,10,-3,-4,-9
1529301838945902,-9,-1,-13,-12,-11,-8,-1,-2
1529301838946542,3,4,14,7,3,6,1,3
1529301838946542,0,1,-10,-16,-15,-4,-1,0
1529301838968586,-5,-8,-6,-1,6,3,0,-3
1529301838968586,6,3,-8,-46,-28,-14,-5,0
1529301838968586,-3,-3,0,43,21,6,0,-1
1529301838968586,1,-2,-1,-28,-5,-2,-2,0
1529301838983474,-2,-1,7,11,-12,-8,-3,-1
1529301838983474,-3,3,0,20,31,10,-7,-4
1529301838983474,4,-2,-7,-1,0,1,8,3
1529301838983474,-6,-6,-8,-19,-23,-17,-9,-7
1529301839006189,5,6,13,-23,-8,4,4,5
1529301839006189,-5,-1,-4,22,17,6,-1,-2
1529301839006189,-5,-3,-1,13,9,7,-3,-5
1529301839006189,7,-1,-5,-12,0,-7,2,3
1529301839027955,-7,-4,2,-22,2,-2,-11,-8
1529301839027955,-1,-4,0,20,3,2,4,-10
1529301839028631,3,2,-4,34,20,5,2,11
1529301839028631,-3,3,2,-29,-18,-3,-2,-4
1529301839042919,-4,-8,9,57,40,6,0,3
1529301839042919,-6,-1,-8,-49,-4,4,-16,-20
1529301839043919,5,8,0,-94,-52,-25,7,9
1529301839043919,-9,-23,-10,82,79,26,11,2
1529301839066027,2,5,0,-25,-25,-9,-5,-4
1529301839066027,-4,1,4,3,-16,-17,-8,-4
1529301839066027,-6,-14,-11,-17,5,2,-21,-18
1529301839066027,8,12,9,-41,-28,-5,17,17
1529301839089151,2,-5,-10,5,11,9,17,2
1529301839089151,-1,-3,2,33,4,2,20,21
1529301839089151,0,7,2,6,-13,-10,-16,-18
1529301839089151,1,-4,0,8,-7,-2,10,13
1529301839103074,-2,-5,-5,15,8,6,-12,-10
1529301839103074,0,2,-9,-42,-25,-15,10,6
1529301839104392,-3,-4,2,19,13,6,-2,-4
1529301839104392,0,-2,0,27,14,10,-6,-9
1529301839125679,2,2,-7,-34,-17,-6,-4,4
1529301839125679,0,0,2,-5,3,1,4,1
1529301839126676,0,-3,-3,7,-2,0,-2,-4
1529301839126676,-3,-1,1,11,-4,-3,-13,-2
1529301839148839,-1,2,-4,-19,-1,4,6,9
1529301839148839,-2,-2,1,2,-4,-3,-11,-7
1529301839149911,0,-5,-1,12,10,1,2,0
1529301839149911,-3,-2,-3,-4,-9,-9,-18,-15
1529301839162866,-3,-2,-2,-6,-19,-9,-7,-10
1529301839162866,0,-1,2,15,14,11,4,6
1529301839163618,-1,-4,-3,-4,-1,0,3,1
1529301839163618,-1,2,3,-10,-14,-5,0,-1
1529301839185421,-2,-7,-3,-4,8,2,-9,-7
1529301839185421,1,2,2,7,5,3,0,-2
1529301839186158,-1,0,-2,3,2,0,4,5
1529301839186158,-3,-2,-3,-19,-12,-8,-11,-14
1529301839208247,2,4,-1,4,9,5,8,10
1529301839208247,-1,0,-4,-11,-6,-2,-2,-1
1529301839216137,-1,2,-1,3,-4,-1,-3,-4
1529301839216137,0,0,1,4,3,4,6,11
1529301839231280,-2,-1,-4,-10,-5,-2,1,0
1529301839231280,-2,-3,3,18,-1,-2,-1,0
1529301839232035,0,-2,-5,-9,4,2,-2,-3
1529301839232035,1,0,-1,0,-3,-1,0,-2
1529301839246049,-1,-1,-2,-10,-7,-5,-8,-2
1529301839246049,-3,-2,0,0,2,-2,3,1
1529301839246049,-2,0,-1,1,2,1,-4,-4
1529301839246049,2,0,-1,11,3,0,7,5
1529301839268833,1,0,-3,-4,-2,-5,-2,0
1529301839268833,-1,-1,-2,-6,0,1,-2,-3
1529301839269477,1,0,0,-1,0,-1,3,3
1529301839269477,-2,-1,0,5,7,-1,-2,-4
1529301839282977,-3,-1,-2,-5,-7,-4,-1,-3
1529301839282977,2,0,0,-1,-3,-3,-3,-1
1529301839283702,-2,0,-2,0,-2,2,3,2
1529301839283702,1,0,-2,-4,-3,-1,-3,-5
1529301839306036,-4,-3,-3,-4,-7,-2,2,0
1529301839306036,0,-2,-2,-2,1,-1,-2,-2
1529301839306036,1,0,1,1,0,-2,-1,-1
1529301839306036,-2,0,-1,-2,-1,1,-2,-5
1529301839328463,0,-1,-1,-5,-4,0,3,0
1529301839328463,1,0,-1,-3,-3,-2,-1,-1
1529301839329464,-1,-1,0,10,3,-1,-1,1
1529301839329464,-1,-1,-1,0,-2,-1,1,-2
1529301839343547,-1,1,1,-4,-5,-2,2,2
1529301839343547,0,-4,-1,1,-1,-2,-1,2
1529301839344434,0,1,0,-1,-6,-2,1,-1
1529301839344434,-1,-1,1,0,7,3,0,-2
1529301839365652,-1,-5,-3,-1,-2,0,-1,-1
1529301839365652,-2,0,0,-1,-2,1,-2,-5
1529301839366837,1,2,-1,-4,0,-3,0,1
1529301839366837,-3,0,1,5,-10,-6,-3,-2
1529301839388594,1,-1,-1,-5,6,7,2,0
1529301839388594,-1,-3,1,1,0,-3,-3,-1
1529301839389591,-1,-2,-2,-14,-4,-5,-1,0
1529301839389591,2,2,1,12,7,2,-1,-3
1529301839402563,-1,0,-1,-5,-5,-4,0,2
1529301839402563,-1,0,-1,1,-3,-1,-1,-2
1529301839410877,-1,-1,-2,-5,-3,0,-1,-2
1529301839410877,-2,-3,-1,-9,-6,-6,-5,-1
1529301839425552,-2,-7,-1,2,2,1,0,0
1529301839425552,-1,1,-1,1,1,0,2,-1
1529301839426551,0,-3,-1,4,1,-2,-1,1
1529301839426551,0,-2,-2,-8,-7,-1,0,-2
1529301839448983,1,1,-2,2,0,-2,-2,-1
1529301839448983,-2,-1,0,-3,-4,-5,-3,-2
1529301839449932,-2,-2,-1,3,-3,-8,-1,-2
1529301839449932,0,0,-2,-5,-12,1,-2,-1
1529301839461948,2,2,3,-1,10,2,1,-1
1529301839461948,-1,-2,-1,3,-1,5,-1,-2
1529301839470928,-2,0,-2,4,5,2,0,-2
1529301839470928,-1,-1,-2,-5,-3,-2,-1,0
1529301839485800,-2,-2,-3,-20,-27,-14,-5,-5
1529301839485800,1,0,0,22,33,11,0,0
1529301839493462,-1,2,2,2,0,2,1,-2
1529301839493462,0,-6,-1,-4,-1,-1,0,2
1529301839509352,-8,-12,-2,-3,-1,2,-1,-3
1529301839509352,1,3,0,-7,-9,-6,-2,-1
1529301839509352,0,-4,0,-1,-1,0,-2,0
1529301839509352,-2,-2,-3,-1,6,1,0,-2
1529301839522073,0,3,-3,3,-3,-3,-3,0
1529301839522073,-2,-2,-2,-5,-7,-2,-2,-1
1529301839531214,-3,0,-2,2,4,2,0,0
1529301839531214,0,4,0,-5,-5,-4,-1,-2
1529301839546158,2,2,-1,4,3,1,-1,2
1529301839546158,-2,-2,-1,-2,1,-2,-2,-1
1529301839546158,0,0,-1,-2,-2,0,-1,-3
1529301839546158,0,-1,-2,0,4,-2,-1,-2
1529301839568995,1,0,-2,0,2,-1,0,-2
1529301839568995,-1,1,0,-3,-3,2,0,1
1529301839568995,-4,-5,-3,-3,-2,-2,0,-1
1529301839568995,-4,-1,0,-2,-1,0,-2,-1
1529301839583236,0,2,2,-5,-8,-6,-1,-3
1529301839583236,0,-2,-1,5,3,1,1,-1
1529301839584292,-2,-4,-1,2,2,0,-2,-1
1529301839584292,0,-3,-3,-10,-7,-4,-2,0
1529301839605173,2,3,0,-2,-1,1,1,0
1529301839605173,-2,-2,-1,-6,-7,-6,-3,-1
1529301839606144,-2,0,-1,-4,-3,-2,1,2
1529301839606144,-1,-1,1,6,6,1,0,1
1529301839628776,1,2,-1,-3,-4,-1,-3,0
1529301839628776,1,-1,0,-5,-2,-2,-2,-1
1529301839629415,2,2,-2,-2,-4,1,-1,-1
1529301839629415,-2,0,-1,-5,-4,-2,0,-1
1529301839642378,-2,-8,-4,2,4,2,0,-4
1529301839642378,-1,-1,-2,-3,-4,-2,0,-3
1529301839651010,-2,-2,-2,1,1,-2,-2,-2
1529301839651010,1,2,0,-2,-2,1,-2,1
1529301839665926,-3,1,2,6,6,3,-1,-5
1529301839665926,-2,0,-1,-1,-9,-4,-2,-2
1529301839665926,0,-3,-2,-4,1,-1,-2,-2
1529301839665926,-1,-2,-1,4,8,2,2,-1
1529301839689189,-1,-1,0,5,3,2,7,5
1529301839689189,-1,-2,-3,-8,-4,-4,1,-1
1529301839689189,-4,0,0,4,1,-4,2,0
1529301839689189,-4,-2,-1,-5,-4,-2,0,-3
1529301839702801,-1,-3,-3,-3,-3,-5,-3,-2
1529301839702801,-4,-2,0,2,-2,-5,-3,-1
1529301839703798,0,-2,-2,-4,-2,0,4,0
1529301839703798,2,0,-1,-2,-4,-1,-6,1
1529301839725092,-2,0,1,-6,0,0,-3,0
1529301839725092,2,0,-1,6,7,0,-8,0
1529301839726049,-3,-2,-1,-1,-5,-2,-12,-3
1529301839726049,2,0,-3,-1,-1,-1,-7,0
1529301839748289,1,1,-3,-1,0,0,-1,0
1529301839748289,0,-1,-3,-6,-6,0,1,-2
1529301839749324,1,0,-2,-1,-2,0,3,-1
1529301839749324,-1,0,0,0,-2,0,4,-1
1529301839762569,-1,-1,0,0,0,-1,1,-2
1529301839762569,-3,-4,0,0,0,-2,0,-4
1529301839770543,0,-1,0,3,2,1,8,2
1529301839770543,-3,-6,-1,1,-1,-2,0,-1
1529301839785636,-2,0,-2,0,-1,-3,-3,0
1529301839785636,0,1,-2,-4,-3,-1,-4,-3
1529301839786500,-1,0,1,-2,-1,-1,-4,-1
1529301839786500,-2,0,-1,-1,-3,0,-1,-3
1529301839808746,0,0,-2,-1,0,2,-1,-2
1529301839808746,-4,-1,-4,-1,3,1,0,0
1529301839810059,1,2,-2,-2,-3,0,-3,1
1529301839810059,-2,-7,-3,0,-1,0,-1,-1
1529301839823260,-2,-1,-1,0,-3,-2,-1,-1
1529301839823260,0,0,-1,-4,-4,-1,0,1
1529301839824253,3,-1,0,1,1,-1,0,-1
1529301839824253,-3,-1,-2,1,-3,-2,1,-1
1529301839845494,-2,-3,0,1,2,0,-1,-2
1529301839845494,-2,-1,-1,0,2,0,-1,3
1529301839846232,-2,-1,-2,1,0,-2,-1,-5
1529301839846232,0,1,-3,-2,-3,-4,-2,-2
1529301839868174,-1,-2,-1,0,0,-1,-2,-1
1529301839868174,-2,-2,-2,-1,-4,-4,-1,-2
1529301839869178,-1,-2,0,-1,5,4,-1,2
1529301839869178,0,2,2,-8,-6,-2,-1,-2
1529301839883671,-2,-1,-2,9,5,-1,0,-1
1529301839883671,1,-2,-2,-3,-1,0,-1,-2
1529301839883671,-2,-2,-1,0,-1,-1,-2,0
1529301839883671,-2,-2,-1,-2,-1,-3,-2,-1
1529301839905644,0,-2,0,-3,-1,-2,-2,-2
1529301839905644,-1,-2,-1,-1,-4,-1,-1,0
1529301839906643,-2,-2,-2,-1,-2,-3,-1,-2
1529301839906643,-1,1,-1,0,1,1,0,-1
1529301839928625,0,-1,-2,-3,-4,-3,-2,1
1529301839928625,-2,0,1,0,-1,-1,-2,1
1529301839929623,-1,0,-1,-2,-4,0,0,-1
1529301839929623,0,1,0,3,1,-1,-2,-1
1529301839943135,-1,-1,-1,-2,-6,-4,-2,-1
1529301839943135,-2,-2,-3,-3,3,2,2,-1
1529301839943871,-2,-3,-1,-1,-3,-3,-2,0
1529301839943871,-1,0,-1,0,2,0,-1,-1
1529301839965120,0,1,1,-4,-3,-1,1,1
1529301839965120,1,0,0,-3,-7,-2,-1,-2
1529301839966118,-2,-3,1,0,-1,-2,-1,-1
1529301839966118,-3,-2,-2,0,1,0,-1,0
1529301839988611,-2,0,-4,-2,-1,-1,-1,0
1529301839988611,0,-3,-1,-2,-2,-2,-2,-3
1529301839989355,0,-1,-2,0,0,0,0,0
1529301839989355,-2,0,0,1,1,-2,0,-2
1529301840002321,0,0,1,0,-1,2,-1,0
1529301840002321,-1,-1,-1,-1,0,-2,0,1
1529301840010323,0,1,-2,-3,-2,-1,-3,0
1529301840010323,1,-2,1,-8,-6,-1,-1,-1
1529301840025549,-2,0,-1,4,5,-1,-1,-2
1529301840025549,0,0,-1,-1,0,-1,0,-1
1529301840026257,-2,0,0,-1,-3,-2,-2,-1
1529301840026257,0,-2,-3,-1,2,-2,-1,0
1529301840048489,-1,-1,-1,-6,-4,0,-1,-2
1529301840048489,-2,-1,-1,-1,-1,0,-1,-2
1529301840049489,-1,-1,0,1,1,-1,-1,-2
1529301840049489,-3,-1,-3,-1,-3,-1,-1,0
1529301840062794,2,-1,-1,1,2,-1,0,1
1529301840062794,1,2,-1,3,3,0,0,2
1529301840071195,-1,-4,-1,-2,-3,-1,0,-1
1529301840071195,-1,-1,-1,0,-1,0,0,0
1529301840085776,-1,-1,-1,-1,-2,-4,-2,-1
1529301840085776,-1,0,-2,-3,-1,-1,-1,3
1529301840085776,-1,-1,-2,-1,1,1,0,-7
1529301840085776,1,0,-1,1,-1,-2,0,0
1529301840108675,-2,-1,-2,-2,-1,1,1,-1
1529301840108675,0,0,-1,0,-3,-1,0,1
1529301840110003,0,-2,-1,-1,-2,-2,-1,-1
1529301840110003,-3,-1,-1,-2,0,-1,-1,-1
1529301840122960,-1,-3,-1,-1,0,-1,-1,-2
1529301840122960,-1,-2,-2,0,-3,-3,-2,-1
1529301840130965,-2,-1,-2,-1,-2,-1,-1,0
1529301840130965,-1,1,0,1,-1,0,0,-2
1529301840145942,1,1,0,-2,-4,-1,0,-1
1529301840145942,-2,-1,-1,0,0,-1,-2,-3
1529301840146574,-1,-2,-1,0,0,-3,-1,0
1529301840146574,1,-1,0,-1,-2,-2,-2,-2
1529301840168840,-3,-1,0,-1,-2,0,0,-1
1529301840168840,3,2,0,-1,-4,1,-1,0
1529301840168840,-1,-2,0,-1,-4,-1,1,0
1529301840168840,0,-2,-1,0,0,0,-2,-1
1529301840181820,0,-1,-1,0,-1,-2,-1,0
1529301840181820,-3,-2,-2,-1,0,-1,-1,-1
1529301840190779,0,-1,-2,-3,0,0,-2,1
1529301840190779,-3,-1,-2,-1,0,0,0,-1
1529301840206056,-3,-1,-2,-3,-1,-1,0,-2
1529301840206056,0,-1,1,-1,-1,-1,-1,-2
1529301840206056,1,-1,-1,-1,-1,-1,0,-1
1529301840206056,-1,-1,-1,1,-3,-2,0,-2
1529301840229357,1,0,0,-1,-2,-2,-1,-2
1529301840229357,-2,-2,0,-1,-1,-3,-1,-1
1529301840229357,0,0,0,-1,-1,-1,-1,-4
1529301840229357,-1,0,-2,0,-1,-1,-1,0
1529301840242279,-1,-2,0,-1,-1,0,0,1
1529301840242279,-3,-3,-1,-2,-1,-2,-1,-5
1529301840250808,-1,-1,-1,0,-1,-1,-3,0
1529301840250808,-1,-2,0,-1,0,-1,-1,-1
1529301840265761,-1,1,-3,-2,-2,0,-3,-1
1529301840265761,-1,1,-1,-1,-1,-1,-1,0
1529301840266805,-3,0,-1,-2,-2,0,-2,0
1529301840266805,-1,-2,-2,-1,1,2,0,0
1529301840289299,-1,0,-2,-2,-1,-1,0,0
1529301840289299,-2,-1,0,1,-1,-3,0,-1
1529301840289299,0,-1,0,-1,0,-2,-1,0
1529301840289299,1,-1,0,-2,-2,-2,-1,-1
1529301840311223,-2,-1,-1,0,-2,-1,-1,-3
1529301840311223,0,0,1,-2,-1,1,-1,-1
1529301840311982,-4,-5,-2,0,-2,-1,-2,0
1529301840311982,3,2,-2,1,-1,-3,-2,-1
