timestamp,emg1,emg2,emg3,emg4,emg5,emg6,emg7,emg8
1529289952116996,-1,0,-1,-1,0,-1,1,-2
1529289952116996,0,0,-1,-1,-1,1,-1,-2
1529289952118990,-1,-3,0,0,-1,0,-1,-3
1529289952118990,0,1,-1,0,-3,0,0,-2
1529289952118990,-1,-1,-1,0,-2,0,1,0
1529289952118990,0,-2,0,-2,-1,-3,-3,-1
1529289952119987,2,2,0,-2,-3,0,0,-1
1529289952119987,-3,2,0,0,0,0,-2,2
1529289952127966,-4,-8,-4,-2,-1,-2,-5,-4
1529289952127966,-2,-3,-1,-1,-1,-1,-1,0
1529289952135944,-2,-1,-2,-1,-2,-1,-2,-2
1529289952135944,-1,0,-1,-2,-1,-1,2,-1
1529289952149908,2,4,0,1,0,-1,-3,0
1529289952149908,-1,-1,1,-2,-1,0,0,-1
1529289952157886,14,-2,-1,-1,1,-2,-3,11
1529289952157886,-12,0,-1,0,-1,-3,-4,-14
1529289952162872,-5,-7,-3,-3,-1,-3,-2,0
1529289952162872,2,-2,-1,-1,-4,-2,0,0
1529289952186808,-11,-1,-1,-2,-1,-2,-2,-6
1529289952186808,5,-2,0,-1,-2,-1,-2,2
1529289952232686,0,1,-2,-1,0,0,-3,-1
1529289952232686,-2,-1,-1,-1,0,-1,0,0
1529289952233684,-3,-1,-2,-2,-1,0,-1,-1
1529289952233684,-2,-1,0,-1,-1,1,3,-1
1529289952234680,-2,-1,-1,-1,-2,-1,0,-1
1529289952234680,-2,-1,-1,-1,-2,-2,1,-2
1529289952235678,0,-2,-2,-1,0,-3,-2,-2
1529289952235678,-1,0,-2,-1,-2,-3,-1,-1
1529289952239667,0,0,-1,0,-1,-2,-2,-2
1529289952239667,-2,-1,-2,-1,-2,-1,-3,0
1529289952245651,-2,-1,0,1,-3,0,0,1
1529289952245651,-1,0,1,-2,-2,-1,-1,-2
1529289952254627,-1,-2,-1,-1,0,0,-2,-1
1529289952254627,1,-1,-2,0,-1,-1,1,0
1529289952268591,2,-2,0,-1,-1,-1,1,0
1529289952268591,0,-3,-1,-1,-1,-1,0,-1
1529289952275571,-2,-3,-2,-1,-2,-2,-1,-5
1529289952275571,1,1,-1,-2,0,-1,0,2
1529289952290531,-2,-1,-2,0,-1,-1,1,0
1529289952290531,-2,0,-3,0,-1,-1,2,0
1529289952299543,2,5,0,0,0,0,-3,-1
1529289952299543,-2,-5,-2,-1,-2,-1,-2,-2
1529289952314467,-6,-2,-2,-1,0,-1,-3,-5
1529289952314467,2,3,0,-1,0,-1,-1,1
1529289952315465,-2,-3,-1,-1,-1,-1,-3,0
1529289952315465,0,4,0,-1,-3,0,1,0
1529289952336409,1,0,0,-2,0,0,0,-1
1529289952336409,-3,-2,-1,0,-2,-1,-2,-4
1529289952338403,-2,-1,-1,-2,0,-2,2,1
1529289952338403,-2,-1,-1,-3,-1,-2,-3,-2
1529289952351368,-2,-3,0,-5,-4,-3,-3,0
1529289952351368,0,-2,-2,-2,-5,-4,-4,-2
1529289952359348,-4,-7,-2,-2,1,-4,-1,-2
1529289952359348,0,-1,0,0,3,2,-2,-1
1529289952374306,0,2,-1,1,-1,1,1,2
1529289952374306,1,5,0,-2,1,5,4,-1
1529289952375304,-5,-12,-2,-2,-6,-8,-17,-6
1529289952375304,-2,-10,-2,-1,-5,-1,18,8
1529289952396248,3,1,0,-1,4,2,-1,-1
1529289952396248,-1,-1,-1,0,4,7,3,0
1529289952398243,-2,2,-3,-7,-14,-18,-5,-2
1529289952398243,0,4,0,-3,-8,-6,-12,-6
1529289952410212,-1,0,1,1,4,-5,0,1
1529289952410212,-2,-3,1,9,20,34,11,3
1529289952419188,3,2,4,2,8,-2,-5,-3
1529289952419188,-4,-4,2,-8,-5,1,5,5
1529289952433150,6,5,0,12,6,-3,2,4
1529289952433150,-4,-1,2,-9,-18,-28,-14,-7
1529289952440131,3,10,24,8,20,33,16,5
1529289952440131,-6,-15,-59,-22,10,-22,-17,-10
1529289952456088,-3,-3,-7,-1,-14,28,8,2
1529289952456088,-2,9,12,2,10,-4,3,-1
1529289952458084,-4,-16,-14,-3,-1,3,-9,-3
1529289952458084,2,1,16,4,-32,-43,-3,-1
1529289952470051,1,0,16,-13,-4,-20,-11,-2
1529289952470051,-10,-7,-15,-11,-37,-10,-13,-7
1529289952479029,8,15,7,11,-11,-8,13,4
1529289952479029,-7,0,0,0,31,-8,-11,1
1529289952492991,3,-8,2,2,-10,44,4,-8
1529289952492991,17,4,14,27,50,84,50,35
1529289952499973,-12,7,4,19,61,24,4,-14
1529289952499973,-8,1,9,-1,-28,-63,-27,-15
1529289952516926,-5,-11,-16,-22,-30,-22,-23,-13
1529289952516926,-16,-6,-18,-38,-78,-69,-32,-16
1529289952517923,-7,-14,-15,-13,-1,35,20,5
1529289952517923,1,5,13,23,22,48,15,7
1529289952538867,-10,9,2,10,21,-48,2,2
1529289952538867,1,-6,-6,-2,19,-11,-24,-11
1529289952540862,6,5,1,-11,-47,20,-2,-2
1529289952540862,-16,4,7,11,46,-5,12,1
1529289952553827,19,-5,-7,-13,-40,-17,-10,9
1529289952553827,-1,2,5,16,9,40,12,-8
1529289952559812,10,4,-4,3,34,14,6,18
1529289952559812,1,7,6,2,-14,61,14,-4
1529289952576766,-11,-6,-4,-5,0,-69,-4,-4
1529289952576766,0,-2,-7,-13,-19,-21,-21,-4
1529289952577764,2,-2,-3,0,-13,-14,3,-1
1529289952577764,0,-6,-4,-8,2,-26,-19,-10
1529289952598707,-2,-4,-9,-6,-15,9,-3,4
1529289952598707,-7,0,-5,-7,-25,-57,-6,-7
1529289952600702,-7,-5,-6,-10,-5,1,-9,-13
1529289952600702,11,-7,3,19,46,78,28,12
1529289952613702,-3,-2,-4,-1,15,-17,-8,-1
1529289952613702,-1,0,2,15,14,32,14,7
1529289952620692,-1,1,-2,5,-1,-14,-8,2
1529289952620692,3,0,-7,-24,-20,-30,-9,-1
1529289952636606,-1,3,-3,4,13,31,11,-5
1529289952636606,5,2,2,-7,-9,-13,-2,0
1529289952638628,-10,-5,-11,-11,-21,-45,-22,-17
1529289952638628,-8,-1,3,0,-18,7,-1,-9
1529289952659551,0,-2,4,-3,-1,22,5,4
1529289952659551,-2,-1,7,12,19,-8,7,4
1529289952660542,5,-3,-1,-2,1,-5,2,8
1529289952660542,3,1,-1,-3,-16,2,-4,0
1529289952672510,10,5,-1,1,8,6,-5,-7
1529289952672510,-55,-6,2,5,9,0,4,-13
1529289952681486,69,4,1,-4,-3,-5,-4,29
1529289952681486,14,3,7,12,12,26,18,10
1529289952696481,-9,-3,-12,1,4,3,-1,6
1529289952696481,7,-1,16,-3,-3,-1,-8,-15
1529289952698442,-19,-4,-35,-2,-11,-10,0,-7
1529289952698442,1,-3,-11,-6,-10,-12,-3,1
1529289952719431,-1,3,6,6,3,7,3,-1
1529289952719431,10,-14,-12,-11,-8,-7,-11,1
1529289952720382,-21,-7,10,5,6,-3,6,-8
1529289952720382,8,3,4,5,-2,-9,-10,4
1529289952732398,-8,2,-4,-6,7,21,11,-4
1529289952732398,8,-1,-7,4,11,5,6,6
1529289952741326,2,7,10,0,-6,-10,-7,1
1529289952741326,-7,-4,1,10,-10,-8,-7,-4
1529289952756286,0,0,11,-11,-7,-1,-5,-3
1529289952756286,6,-3,-13,-14,-1,1,1,3
1529289952758281,-6,-3,1,-2,0,-1,0,-3
1529289952758281,-2,0,-13,-10,-6,-2,1,1
1529289952779227,-4,2,7,15,9,4,3,-4
1529289952779227,9,0,-3,7,5,-4,-4,2
1529289952785209,-9,0,-23,-21,-7,6,-1,-7
1529289952785209,-9,-5,14,1,-5,-4,5,-3
1529289952793187,-18,-2,23,4,10,-1,-2,-7
1529289952793187,-1,-11,-21,-3,3,3,-2,2
1529289952802201,-9,-15,17,10,-4,-3,-2,-5
1529289952802201,-19,-16,7,-4,-6,-10,-13,-9
1529289952817124,21,-2,-20,2,-2,0,0,8
1529289952817124,-5,5,-9,-14,2,4,7,-1
1529289952818122,-16,3,-5,8,3,0,-5,3
1529289952818122,18,10,-13,-16,-2,3,2,-8
1529289952839102,-9,8,7,6,2,-5,-5,-2
1529289952839102,15,14,10,7,-2,1,-4,1
1529289952841097,-2,3,2,-2,-6,-8,1,0
1529289952841097,-4,-20,-3,4,-1,0,-1,0
1529289952853028,6,11,-5,7,4,5,-3,-4
1529289952853028,-9,-10,-4,-33,-6,4,4,0
1529289952862005,-3,-10,2,-3,-5,-12,-6,-4
1529289952862005,1,7,-2,-5,-21,-12,-7,-2
1529289952876964,1,-4,-6,9,10,12,10,3
1529289952876964,3,8,27,16,15,6,2,4
1529289952877964,-1,-3,-19,2,3,8,4,-2
1529289952877964,4,3,-4,-6,-11,-14,-13,-2
1529289952898906,-6,-16,-13,-8,-10,-7,0,-2
1529289952898906,11,22,13,5,12,2,0,12
1529289952900900,-3,-3,50,-5,0,3,1,-5
1529289952900900,-2,2,-26,-12,-18,-39,-19,-7
1529289952912867,-5,-1,6,-3,-5,24,13,0
1529289952912867,0,-15,11,28,26,18,11,6
1529289952927873,12,20,7,12,17,12,3,3
1529289952927873,-4,-22,0,-5,6,9,4,1
1529289952936995,-1,0,1,-6,-18,-26,-16,-6
1529289952936995,-2,0,-10,-1,-12,-15,-8,-7
1529289952938875,-2,0,-5,-11,-11,-1,6,0
1529289952938875,2,7,10,21,31,16,4,-2
1529289952958746,1,8,-16,-29,-18,-4,1,3
1529289952958746,-7,-11,3,19,6,-3,-7,-7
1529289952960740,-1,-2,-7,-3,-12,-14,-1,1
1529289952960740,-1,3,-15,-33,-18,6,3,0
1529289952972741,-8,-21,-7,1,7,0,-1,1
1529289952972741,5,13,0,-5,-5,-6,-6,-3
1529289952981685,-7,-8,2,2,1,-2,-6,-6
1529289952981685,1,5,-4,-10,-5,-1,1,2
1529289952996874,1,6,30,45,26,15,9,4
1529289952996874,-1,-4,-29,-23,-28,-13,-6,-4
1529289952997871,3,12,69,31,28,12,2,4
1529289952997871,-3,-7,-16,17,7,5,4,-1
1529289953019156,2,-4,-20,-24,-5,-9,-6,-5
1529289953019156,-4,-5,4,-18,-12,-4,-3,-3
1529289953020810,2,3,-5,3,-3,-1,1,-2
1529289953020810,-1,6,5,-8,3,1,0,1
1529289953033002,1,3,12,29,10,-4,-4,0
1529289953033002,-1,-3,-5,-2,2,3,1,1
1529289953041342,-2,-5,-17,-15,-9,-7,-2,-3
1529289953041342,-1,2,17,10,-2,-1,0,-1
1529289953057136,1,12,-30,-30,-1,1,-1,0
1529289953057136,-3,4,-1,7,0,-1,-1,-4
1529289953057748,0,-1,-10,-2,-6,-3,1,1
1529289953057748,1,10,36,2,-3,-2,-1,1
1529289953078937,-2,-9,0,5,-1,-4,-4,-3
1529289953078937,3,14,16,3,0,-2,-2,4
1529289953080931,-2,-4,-15,-12,-3,-2,0,-2
1529289953080931,-11,-3,7,6,3,3,0,0
1529289953092900,10,14,8,-9,-6,-4,-2,2
1529289953092900,-4,-5,-15,4,4,0,-2,1
1529289953101875,-3,-36,-11,-12,-9,-5,-4,-6
1529289953101875,2,1,4,5,6,8,6,6
1529289953117215,6,-6,-8,-4,-1,-2,0,-1
1529289953117215,0,14,54,-1,-3,-3,-1,-1
1529289953118216,1,4,0,2,-1,0,1,2
1529289953118216,4,11,-9,-4,1,0,1,0
1529289953139600,-1,20,42,6,-1,-2,-1,-1
1529289953139600,-1,-10,-64,4,4,0,-1,-3
1529289953140609,-3,-20,2,5,-1,-1,-1,2
1529289953140609,-4,-20,46,8,2,2,2,0
1529289953152568,-4,-27,-35,-25,-18,-5,0,-1
1529289953152568,1,-8,-20,-6,0,-2,-4,-2
1529289953161575,1,23,9,-3,-5,1,1,2
1529289953161575,-4,-11,-21,8,4,-1,-4,-5
1529289953176454,2,-19,-1,0,-1,2,-1,4
1529289953176454,-11,-8,-4,4,-1,-1,-3,-22
1529289953178448,-9,-3,-29,-5,-1,-2,-3,-5
1529289953178448,8,1,-9,-2,-2,-3,-3,-4
1529289953206636,-8,-4,4,-2,-1,-7,-6,-2
1529289953206636,6,19,30,-2,-4,-1,3,5
1529289953208334,0,5,15,-1,-2,-3,-3,6
1529289953208334,1,-8,-22,-8,-1,4,3,-4
1529289953222215,-11,0,-22,-2,2,0,-3,-8
1529289953222215,14,-13,-27,-6,-5,-3,-1,12
1529289953223925,-2,6,-6,-3,-4,-4,-7,-8
1529289953223925,-8,6,22,-3,-5,-5,-8,-1
1529289953244396,3,15,-7,6,1,2,6,0
1529289953244396,-1,5,27,-1,-6,-4,0,4
1529289953246015,0,22,2,-2,0,4,5,-2
1529289953246015,2,8,2,-1,-1,0,3,8
1529289953267133,-7,-31,6,-1,-4,-4,-5,-9
1529289953267133,-14,-1,3,2,2,3,11,1
1529289953267133,-2,-23,-19,-8,-9,-7,-8,-3
1529289953267133,4,-4,-8,0,0,1,-2,-5
1529289953280956,-6,9,40,16,4,-1,1,-3
1529289953280956,0,-17,-1,-32,-12,-3,-2,-1
1529289953281918,6,-2,-2,0,6,2,6,7
1529289953281918,-5,-11,-30,5,0,-1,-1,-2
1529289953303859,0,4,-5,-2,2,-6,-9,-1
1529289953303859,-3,-11,3,13,0,-4,-4,-5
1529289953303859,-5,-4,11,-8,-11,-4,-3,-6
1529289953303859,7,-4,-12,-7,0,-3,-4,-2
1529289953326799,4,15,1,5,-1,-2,-1,0
1529289953326799,-17,-18,14,0,1,-3,-7,-7
1529289953327830,-3,-11,-40,-1,6,3,-3,-5
1529289953327830,0,2,-5,-3,0,0,5,17
1529289953340761,8,-4,-7,-6,-4,-4,1,14
1529289953340761,-4,19,8,-1,-2,5,7,-15
1529289953341759,4,-1,-5,3,1,1,4,-10
1529289953341759,-6,-6,-5,0,5,7,7,-3
1529289953363699,7,4,-24,-1,3,1,-12,0
1529289953363699,1,-2,10,-4,-6,-6,-6,3
1529289953363699,-4,-6,-3,-3,-13,-19,-13,-6
1529289953363699,-8,-1,-6,-9,-10,-8,-2,-13
1529289953386638,-8,3,18,-5,-9,0,3,-9
1529289953386638,-8,-32,-47,4,15,1,-2,-3
1529289953387635,-4,5,0,1,8,10,-4,-1
1529289953387635,6,15,5,3,-2,2,-4,1
1529289953400603,-2,13,-3,-18,-26,-18,-8,-1
1529289953400603,9,28,-3,4,2,5,10,8
1529289953401600,-1,7,9,9,22,11,0,3
1529289953401600,5,-1,3,1,9,-2,-7,0
1529289953424131,9,-7,4,2,3,18,14,3
1529289953424131,-33,-11,-7,-7,-14,-31,-19,-35
1529289953424131,-13,-9,-2,-11,-38,-20,1,-2
1529289953424131,27,3,6,10,16,22,26,17
1529289953447088,-22,-22,-8,4,31,18,-15,-12
1529289953447088,11,5,8,-2,0,17,4,9
1529289953447088,10,1,4,-1,-6,-4,1,9
1529289953447088,-16,-3,5,-9,-17,-27,-25,-20
1529289953461223,5,7,3,-1,-2,-13,4,6
1529289953461223,-1,-7,3,4,7,28,7,5
1529289953461223,-4,12,-9,1,19,8,1,-4
1529289953461223,12,6,-4,-11,-22,-15,-3,1
1529289953484241,-13,-21,-12,-4,-23,-15,-2,-7
1529289953484241,0,-1,-1,-6,-8,-17,-11,0
1529289953484241,11,5,-4,7,12,24,16,8
1529289953484241,4,18,-7,18,25,20,5,9
1529289953498344,-4,-14,-7,-8,11,5,-5,-5
1529289953498344,6,-7,-1,-2,-15,-16,-1,0
1529289953506146,-4,10,2,-6,8,5,15,6
1529289953506146,-14,-9,-5,-12,-19,-13,-10,0
1529289953521221,11,-6,-1,6,-1,7,5,0
1529289953521221,-2,-6,1,0,16,12,4,3
1529289953522274,20,-3,3,1,-4,-11,-10,1
1529289953522274,-12,-8,-8,-5,-7,-16,-22,-13
1529289953543049,2,2,-5,-4,-13,-13,4,8
1529289953543049,-6,4,0,2,5,5,2,-6
1529289953544046,-8,4,4,2,3,0,-2,3
1529289953544046,8,-10,4,-1,5,9,8,2
1529289953558046,-17,1,4,1,0,-1,-3,-2
1529289953558046,18,4,-5,-5,-4,-8,-3,-2
1529289953566025,-12,-4,4,-3,-7,-5,-3,-8
1529289953566025,-11,-1,-2,-4,-5,-1,2,-2
1529289953580948,17,7,1,7,9,4,2,1
1529289953580948,6,6,-6,-5,2,3,8,12
1529289953581945,-1,-10,4,-5,-1,-3,-14,-11
1529289953581945,-18,-18,6,8,3,5,7,-4
1529289953602934,5,7,-8,3,-2,-4,-9,6
1529289953602934,-6,-1,3,4,-4,-4,3,3
1529289953603921,3,6,13,-1,-2,-2,-1,-3
1529289953603921,13,8,2,-6,0,3,9,8
1529289953617895,-15,-3,-6,0,7,7,3,-8
1529289953617895,5,-3,-2,-2,-6,-3,-7,4
1529289953625827,6,-2,8,-7,-5,-7,-3,5
1529289953625827,-5,-1,-5,-2,1,-2,2,-3
1529289953640833,7,3,6,3,-3,-2,-3,-2
1529289953640833,1,1,-1,3,-2,-4,-4,-1
1529289953641785,1,8,2,-2,-3,-2,-1,-3
1529289953641785,-10,-8,-7,-11,-8,-10,-11,-8
1529289953663771,-4,-2,-1,-7,-5,-6,-3,-7
1529289953663771,5,9,5,11,12,11,14,5
1529289953663771,-13,-3,3,11,10,12,-2,-3
1529289953663771,1,-14,0,8,9,10,5,3
1529289953686710,-2,0,1,2,6,3,-1,1
1529289953686710,-1,-1,0,-16,-22,-19,-14,-5
1529289953687707,1,2,-7,19,8,1,6,3
1529289953687707,5,14,-2,-20,4,10,2,-1
1529289953700626,-3,-4,-8,-3,2,4,12,0
1529289953700626,-5,-8,0,-2,-3,-5,-7,-6
1529289953701624,11,16,-6,-10,-12,-11,-7,-1
1529289953701624,-13,-15,-5,7,-6,-10,-6,-8
1529289953723612,-1,-6,-2,-1,1,-1,-2,-5
1529289953723612,-3,3,-1,-2,4,6,1,0
1529289953724610,0,-8,-2,-1,-1,3,9,2
1529289953724610,5,12,6,5,-5,-7,-5,-2
1529289953737575,3,3,19,3,0,3,2,2
1529289953737575,-5,-14,-16,-4,6,3,-6,-18
1529289953745507,-8,-5,11,7,1,-3,-10,-7
1529289953745507,1,11,-7,-12,-11,-6,13,5
1529289953760514,-12,-28,-25,-30,-14,-9,-15,-12
1529289953760514,4,7,7,-1,-5,-14,-9,4
1529289953761465,5,-8,-12,-14,-1,8,15,6
1529289953761465,-4,-4,-10,10,11,8,0,-3
1529289953791385,-2,12,20,1,-8,-9,-4,-2
1529289953791385,0,13,6,7,8,9,1,3
1529289953792382,0,-3,-9,-5,-8,-9,-9,-5
1529289953792382,-2,-5,6,16,5,7,5,5
1529289953797401,4,0,-11,-10,0,-5,-4,2
1529289953797401,-2,-12,-11,-13,-16,-5,-2,0
1529289953806380,-4,5,8,42,25,7,4,-2
1529289953806380,1,-1,-16,-50,-11,-4,-3,-1
1529289953821350,0,3,3,7,1,3,3,0
1529289953821350,1,4,0,1,1,-3,-2,-1
1529289953821350,-9,-7,-2,-5,-8,-5,-3,-4
1529289953821350,4,2,2,-3,-8,-9,-7,0
1529289953843274,-13,5,-5,2,-2,-2,-8,-7
1529289953843274,1,-12,-2,0,4,6,16,7
1529289953844243,-3,-8,-13,-1,2,-1,-9,-3
1529289953844243,-2,19,37,13,-1,-5,-22,-24
1529289953858206,3,-20,-60,-10,-1,-1,6,7
1529289953858206,11,0,5,12,10,11,28,12
1529289953866230,0,-2,-2,-10,-4,6,-3,3
1529289953866230,7,-3,0,-1,-3,-3,1,3
1529289953881144,-3,-2,13,3,0,0,-1,-1
1529289953881144,-4,8,1,7,3,-1,-11,-5
1529289953882141,-11,-37,-15,-23,-13,-8,-1,-4
1529289953882141,-5,3,-5,10,10,3,1,3
1529289953903086,5,13,14,18,8,6,5,0
1529289953903086,-4,-8,-2,-5,-3,-5,-7,-2
1529289953904083,4,4,9,-2,-3,-5,0,1
1529289953904083,-1,3,-17,-3,-4,-4,-4,-1
1529289953918046,-7,-6,2,-1,-6,-6,-4,-6
1529289953918046,4,12,12,7,7,2,-3,0
1529289953926025,-2,2,19,15,-3,-4,-6,-4
1529289953926025,-5,-26,-34,-12,-4,-2,0,6
1529289953941192,3,10,4,2,8,6,11,-1
1529289953941192,-17,2,-6,-6,-4,-4,-1,-1
1529289953941880,7,5,0,-2,2,-1,-3,-11
1529289953941880,-3,10,9,7,1,0,2,2
1529289953963972,36,1,1,-7,-8,-5,-9,8
1529289953963972,-13,-4,-3,-1,-1,2,-5,-6
1529289953964837,-1,8,-9,-6,0,2,15,21
1529289953964837,-13,-5,1,0,-3,0,-1,-14
1529289953987162,-26,-7,-1,-1,-1,-2,-2,-18
1529289953987162,11,10,1,-1,-4,-2,-5,2
1529289953987817,8,-27,-10,-5,-2,-3,-4,3
1529289953987817,-11,-18,2,-1,-3,1,2,0
1529289954002043,3,3,7,2,1,-1,-2,-1
1529289954002043,0,-6,-7,-2,-2,-2,-4,1
1529289954002043,-10,-1,-3,-9,-6,-3,-2,-6
1529289954002043,19,14,4,2,0,1,10,28
1529289954024074,-4,-8,-8,0,-2,-3,-6,-7
1529289954024074,0,-3,13,-2,-3,-5,-3,1
1529289954024074,5,21,27,0,0,1,-1,-2
1529289954024074,12,-16,-25,-5,-5,-7,-4,6
1529289954047323,-2,15,5,-1,-1,-1,1,2
1529289954047323,-10,1,-8,-4,-1,3,4,-6
1529289954047323,4,12,2,-2,-3,-5,-5,6
1529289954047323,-19,2,16,4,2,3,6,-13
1529289954061223,13,-3,-7,-1,-1,2,7,9
1529289954061223,-1,6,3,-2,-3,-5,-8,-16
1529289954062214,-7,0,-9,-1,-1,0,-2,-1
1529289954062214,6,-8,3,5,1,-2,-4,-1
1529289954084144,-17,-20,-9,-4,-3,-6,-7,-10
1529289954084144,-8,2,10,0,-2,-2,-5,-12
1529289954084144,-16,8,-10,-6,-4,-5,-5,-20
1529289954084144,9,5,-3,2,-3,-5,-10,-2
1529289954106935,-15,3,13,2,2,5,10,3
1529289954106935,-10,-13,-14,-2,0,-2,0,-6
1529289954106935,12,3,7,-2,-1,0,2,6
1529289954106935,-10,-3,-2,0,1,-2,-8,-10
1529289954121320,17,2,2,-3,-5,-4,2,22
1529289954121320,-1,32,-6,-1,0,-1,-8,-8
1529289954122304,10,22,3,0,-1,0,0,3
1529289954122304,-17,-10,0,-3,-1,1,5,4
1529289954143074,36,-16,-3,0,2,4,6,4
1529289954143074,7,-19,4,-2,-3,-3,-1,6
1529289954144071,-6,-19,-9,0,-1,-1,1,-4
1529289954144071,13,12,16,5,-2,-4,-4,2
1529289954167191,-30,-8,-4,-1,-1,-5,-9,-7
1529289954167191,7,-25,0,-4,-3,-4,-4,6
1529289954168062,2,-14,-23,0,1,2,2,-1
1529289954168062,-11,-10,-5,10,8,0,0,-8
1529289954180619,7,26,20,-6,-8,-2,-2,1
1529289954180619,-5,-23,-35,-28,-12,-5,-1,2
1529289954181437,-8,-5,-13,-3,-1,-2,-3,1
1529289954181437,7,-6,-11,-4,-1,6,11,6
1529289954203560,-28,8,-1,19,17,5,-6,-19
1529289954203560,23,33,25,14,6,9,16,20
1529289954204376,-4,-28,-1,-8,-2,-2,-4,-3
1529289954204376,3,9,4,14,7,-3,-8,1
1529289954226350,-7,-1,-13,-25,-22,-10,-6,-6
1529289954226350,-5,9,22,7,5,1,-3,-1
1529289954227313,3,17,-12,-4,6,5,-3,-6
1529289954227313,6,-1,16,1,1,3,0,9
1529289954241462,0,-1,8,-13,-6,-4,5,6
1529289954241462,-3,-5,-10,-3,-17,-13,-13,-8
1529289954241462,-3,-10,3,-5,-4,0,14,12
1529289954241462,-1,7,-5,-5,-15,-7,-12,-15
1529289954263722,8,10,4,18,22,7,1,3
1529289954263722,7,0,0,8,12,12,18,7
1529289954264446,-9,5,1,15,16,6,-4,-8
1529289954264446,-2,-15,-15,-15,-4,0,-2,-7
1529289954286387,0,8,4,-2,-24,-19,-1,1
1529289954286387,-1,2,-21,6,0,-7,-5,-1
1529289954287384,3,-8,9,-8,14,14,1,2
1529289954287384,2,-5,2,10,18,15,10,5
1529289954301347,15,-5,-10,-10,-6,2,-1,13
1529289954301347,-9,-5,-1,-9,-18,-21,-19,-11
1529289954301347,-6,-1,1,0,-18,-6,15,-3
1529289954301347,2,5,-3,-3,1,-14,-21,6
1529289954323287,3,-5,6,19,32,25,29,8
1529289954323287,-2,-7,1,2,16,17,5,5
1529289954324285,7,0,-3,-11,-22,-22,-11,-3
1529289954324285,-6,1,-2,-15,-29,-18,-13,-8
1529289954346227,0,2,-3,3,-3,-12,-7,-5
1529289954346227,0,-5,-2,4,25,25,4,1
1529289954347226,-7,-1,6,6,12,19,1,1
1529289954347226,-4,1,-4,-11,-12,-10,-4,-9
1529289954360978,-9,-5,-3,-12,-29,-25,-16,-9
1529289954360978,-5,-5,-6,-17,-22,-22,-2,-5
1529289954361635,-1,-3,-2,-15,-29,-29,-14,-3
1529289954361635,-4,-9,8,24,31,19,3,-4
1529289954384006,3,9,5,12,23,47,44,15
1529289954384006,2,-13,6,1,28,17,-1,3
1529289954384006,3,5,-8,-18,-15,-10,-10,-3
1529289954384006,1,4,-3,1,-22,-9,5,1
1529289954407239,-10,-13,-2,12,41,3,-13,-6
1529289954407239,4,8,2,9,-12,-2,1,3
1529289954407239,-6,0,-3,-9,-13,-8,-4,-1
1529289954407239,0,5,7,10,22,6,2,-3
1529289954421292,1,-4,-5,-4,-15,-8,-7,-4
1529289954421292,-5,-1,-2,-6,-12,-13,-3,-1
1529289954422289,0,2,3,6,-1,1,-1,0
1529289954422289,-5,-9,-3,-9,-12,-9,0,-1
1529289954443453,-2,-1,-6,-9,-16,-11,-12,-7
1529289954443453,0,-3,-2,-1,-5,-15,-17,-6
1529289954444276,-1,1,-1,0,-9,1,7,1
1529289954444276,1,5,5,12,36,32,20,4
1529289954466870,0,-2,1,5,15,15,2,1
1529289954466870,-3,-2,-5,8,-10,-2,0,-2
1529289954467688,2,0,-2,-11,-2,-3,-4,2
1529289954467688,-1,3,-3,-10,-14,-9,-3,-4
1529289954481456,-2,-4,-7,-13,-5,-7,-8,-5
1529289954481456,-2,-1,-1,5,6,-2,1,-1
1529289954482365,-3,-5,-2,4,-8,-11,-10,-4
1529289954482365,-3,-7,-5,-11,-20,-17,-11,-5
1529289954503392,-1,0,0,-5,0,7,11,5
1529289954503392,-2,-4,3,-1,0,2,2,0
1529289954504205,0,7,-2,3,10,7,2,1
1529289954504205,-2,-3,-3,-2,-7,-5,-3,-4
1529289954526147,-1,-1,-5,-13,-19,-11,-8,-1
1529289954526147,-1,0,0,0,5,7,-2,-5
1529289954527145,2,4,3,12,21,4,2,4
1529289954527145,-3,-2,-1,-6,-1,9,15,4
1529289954541411,-1,0,-4,-6,-6,-9,-17,-7
1529289954541411,3,5,1,-2,-7,-5,0,-1
1529289954542104,0,3,0,-2,-2,-2,-6,2
1529289954542104,-8,-12,-2,-2,5,6,10,0
1529289954564162,-2,2,-1,7,-2,-5,-1,-1
1529289954564162,-3,-6,-5,-10,-9,-4,1,0
1529289954564162,2,4,2,9,2,-2,-6,-1
1529289954564162,1,4,-4,-15,1,4,2,3
1529289954586166,2,1,4,6,2,1,1,0
1529289954586166,2,-1,-3,-4,-6,3,5,2
1529289954594003,-2,-5,-2,1,2,-3,-7,-5
1529289954594003,1,4,0,-3,-7,-6,-3,0
1529289954608932,-1,-6,-1,-6,-3,-1,2,-1
1529289954608932,0,2,0,2,-1,-5,-5,-2
1529289954609922,0,-4,0,10,19,15,11,0
1529289954609922,-1,1,-2,-2,0,-1,-4,-1
1529289954624055,0,2,2,3,-7,-4,-7,-6
1529289954624055,-3,-5,-1,-4,5,2,0,-1
1529289954624055,-7,-8,-4,-6,-9,0,13,2
1529289954624055,2,3,2,1,0,-7,2,0
1529289954647319,0,-2,1,0,-1,-1,-8,-2
1529289954647319,-2,-4,-3,-9,-3,-1,-5,-3
1529289954647319,0,1,0,3,-4,-4,3,2
1529289954647319,3,5,1,2,-1,-3,-12,-6
1529289954660816,-1,-4,-3,-2,-6,-3,4,1
1529289954660816,-5,-4,0,2,6,3,-1,-3
1529289954668615,-4,-5,14,-4,-1,-2,1,-2
1529289954668615,-1,0,11,-3,-2,-2,-5,-1
1529289954684134,-1,3,4,-1,-6,-7,-7,-3
1529289954684134,-4,-9,-3,3,4,5,13,2
1529289954684134,-2,-6,-10,5,10,4,-5,-4
1529289954684134,-2,-4,-9,0,-3,-5,-9,-1
1529289954707134,2,-1,-9,-4,-1,0,1,-2
1529289954707134,4,7,-4,-3,-9,-6,-7,6
1529289954708031,0,0,-3,0,-1,-2,1,-1
1529289954708031,-2,-3,-6,-9,-11,-9,-12,-5
1529289954720169,0,0,-2,-5,-3,4,7,1
1529289954720169,0,-2,0,1,0,1,-1,-2
1529289954729063,-1,-2,1,2,4,1,-2,-1
1529289954729063,-1,1,-2,1,2,2,3,3
1529289954743667,-3,-2,-3,-3,-6,-8,-9,-3
1529289954743667,-4,-1,-3,-5,-7,-5,-4,-5
1529289954744844,2,4,-3,-3,-6,-1,-3,-3
1529289954744844,-1,1,1,3,13,10,12,4
1529289954766787,2,1,-2,2,6,6,5,1
1529289954766787,-5,-5,1,0,-2,-3,-2,-1
1529289954767788,3,10,-1,-2,-14,-8,-3,-1
1529289954767788,-5,-15,-4,-2,0,-3,0,-5
1529289954780110,-1,-7,-1,-3,0,-4,-4,-3
1529289954780110,0,-2,-3,-3,-9,-8,-5,-3
1529289954789085,3,1,3,1,9,9,5,2
1529289954789085,4,16,17,4,0,1,1,1
1529289954804012,-5,-7,-13,-3,0,-2,1,0
1529289954804012,6,0,-1,-11,-16,-20,-22,-6
1529289954804012,-4,-4,-5,5,3,4,13,1
1529289954804012,4,4,0,8,5,7,7,3
1529289954827120,-3,-5,2,2,7,10,4,2
1529289954827120,0,4,10,-1,3,4,3,2
1529289954828028,-2,-4,-4,-7,-7,-8,-9,-5
1529289954828028,3,4,4,10,2,-3,-2,-4
1529289954840321,-5,6,7,-5,-7,-5,-4,-3
1529289954840321,1,-7,-5,-2,2,5,5,2
1529289954848338,0,-1,0,0,1,-4,-5,-3
1529289954848338,-7,-11,-5,4,3,6,3,-3
1529289954863457,-7,-5,-6,0,0,-2,-2,-3
1529289954863457,1,8,-12,2,2,2,2,1
1529289954871436,-3,-10,8,-1,-2,-4,-6,-1
1529289954871436,3,3,-8,-6,-7,-6,-5,-1
1529289954887234,0,6,-5,1,-2,-3,-2,-1
1529289954887234,-4,-8,20,3,7,7,5,-2
1529289954887234,4,7,-9,-2,-3,-6,-12,-4
1529289954887234,-2,-4,-1,-2,-5,-1,3,1
1529289954900364,1,-3,1,-1,1,3,0,0
1529289954900364,2,5,0,3,5,4,5,3
1529289954908342,-5,-4,-4,-5,-4,-2,-6,1
1529289954908342,8,1,0,-5,-5,-5,-4,-2
1529289954923515,0,-8,1,1,1,-3,-3,3
1529289954923515,-12,-12,-10,-2,-3,-4,-5,-4
1529289954924516,4,2,2,2,6,10,7,8
1529289954924516,-24,-4,-5,-4,-3,1,1,-23
1529289954946677,4,5,0,1,1,-2,-5,-5
1529289954946677,6,2,1,0,0,-1,0,2
1529289954948905,-3,2,0,-1,-1,-2,-4,-2
1529289954948905,1,-4,-3,-3,-3,-4,-9,0
1529289954969034,8,2,1,3,0,-2,1,5
1529289954969034,-3,4,0,-1,1,0,1,-3
1529289954970849,-1,-1,-2,-1,2,-1,4,0
1529289954970849,1,-1,-6,-6,-4,-2,0,4
1529289954982820,-3,1,-1,-2,-3,-4,-5,-6
1529289954982820,5,2,-3,0,-2,-2,-2,2
1529289954991793,-1,-4,-4,0,-1,0,0,-2
1529289954991793,-4,0,-1,-2,-3,-2,0,3
1529289955007315,-2,-1,2,2,-1,0,1,-2
1529289955007315,12,6,-3,0,-1,1,1,5
1529289955007974,-2,-2,0,1,0,-1,-1,0
1529289955007974,4,-6,1,-1,-1,-1,-3,-7
1529289955029229,-3,1,7,0,-2,-4,0,-2
1529289955029229,-4,-5,-1,0,0,-1,2,2
1529289955030908,3,1,-1,-2,-1,-2,2,1
1529289955030908,3,4,-5,-1,-1,-1,1,7
1529289955042875,-2,1,1,-1,-2,-1,-2,-2
1529289955042875,-6,-4,-1,2,-1,0,-1,-1
1529289955051849,-5,-10,-3,-2,-2,-1,-4,-5
1529289955051849,-1,5,0,-3,-2,-3,-2,0
1529289955067127,-1,-11,-2,-1,-1,0,0,3
1529289955067127,-7,8,1,-2,-1,-2,0,-5
1529289955067974,1,12,2,0,0,2,1,-2
1529289955067974,0,-13,-8,-1,-1,-4,-3,1
1529289955089364,0,-4,-5,1,0,-1,-1,-2
1529289955089364,1,-5,0,-4,0,1,4,0
1529289955091314,-6,-14,-5,-5,-3,-1,0,-3
1529289955091314,5,8,1,0,0,0,0,3
1529289955112246,-3,-6,-3,-3,0,0,1,0
1529289955112246,-4,1,2,-2,0,-3,-4,-3
1529289955113140,3,-5,2,2,-1,-1,-1,3
1529289955113140,-2,-2,1,0,0,1,0,2
1529289955127266,-4,-2,-2,-1,-1,0,0,-2
1529289955127266,0,1,-4,-1,-1,0,-2,-2
1529289955128128,1,10,0,-1,1,1,3,2
1529289955128128,-1,-8,-2,-1,-1,-4,-2,-1
1529289955149362,-3,-1,-1,-1,-1,-4,0,-2
1529289955149362,5,0,-1,-1,-2,-2,0,6
1529289955151040,-23,-2,-1,-2,-2,-3,-5,-24
1529289955151040,-3,0,-1,-1,-1,0,-2,0
1529289955163176,-4,1,-2,-2,0,0,2,1
1529289955163176,11,-1,-6,-2,-2,-1,-3,-1
1529289955171983,1,-1,-2,0,-2,-1,-2,4
1529289955171983,-2,3,-2,-1,-1,-1,0,0
1529289955187088,4,5,6,-1,-2,-1,-4,-3
1529289955187088,-12,-3,0,-2,0,0,-3,-5
1529289955188120,2,-4,1,0,-1,-2,-2,0
1529289955188120,1,2,0,-3,-1,-2,-1,-4
1529289955209257,-5,-9,-2,-2,-1,-1,-2,-1
1529289955209257,-2,-3,-3,1,0,-3,0,-4
1529289955211381,5,5,-2,0,-2,0,1,2
1529289955211381,-3,4,-1,-1,-1,0,-1,0
1529289955223364,0,-4,-7,-2,-2,0,-3,-3
1529289955223364,0,1,-1,0,0,0,-1,0
1529289955232175,-1,-2,-3,-1,-1,-2,0,1
1529289955232175,0,1,-2,0,-2,-3,0,1
1529289955246346,-1,1,0,-1,0,-1,1,-3
1529289955246346,-2,-3,0,-1,-2,0,-1,-1
1529289955248299,1,-2,-2,-1,0,-1,1,2
1529289955248299,-2,0,-1,0,-1,0,0,0
1529289955269430,2,1,0,0,-2,-2,-1,0
1529289955269430,-3,-1,-1,0,-3,0,1,0
1529289955271369,0,1,-2,-1,-1,-3,-1,-1
1529289955271369,-2,-4,-2,0,-1,1,-1,0
1529289955283373,-2,-1,-1,-1,-1,-2,-1,-1
1529289955283373,-2,-2,-1,1,1,-2,-2,-3
1529289955292181,1,1,1,0,-1,-1,-2,1
1529289955292181,2,-2,1,-2,-1,1,0,-2
1529289955307248,-1,0,-3,1,-2,2,-1,0
1529289955307248,0,-2,1,1,-1,-2,-1,-2
1529289955308166,-1,-1,-1,-2,0,-1,-1,0
1529289955308166,1,-3,0,-2,-2,-3,-1,-1
1529289955329476,1,-1,-2,-1,-1,0,-1,2
1529289955329476,-3,-3,-2,0,-1,-1,-1,-2
1529289955330467,-1,-2,-1,-2,-3,0,0,-2
1529289955330467,-3,-1,0,0,-3,1,-1,-1
1529289955342266,-1,1,-3,-2,0,-1,-1,-1
1529289955342266,-1,-1,-1,-2,-3,-1,-1,-2
1529289955351424,-3,-3,1,-1,-1,0,-2,0
1529289955351424,0,0,0,1,0,-1,0,-2
1529289955366670,1,-1,-1,-2,-2,-2,0,0
1529289955366670,-2,-1,-1,0,1,-1,0,-1
1529289955368665,-1,-3,-2,0,0,-3,-2,-2
1529289955368665,-1,0,-2,-2,-1,-2,-2,-1
1529289955388822,0,-1,0,-1,0,0,-2,-1
1529289955388822,-4,0,-1,-1,-2,-1,-1,0
1529289955390820,-1,0,0,0,-1,0,-2,0
1529289955390820,-2,-2,-1,-1,-1,-2,-1,-1
1529289955402967,-1,1,-1,0,-1,-1,-1,-2
1529289955402967,1,-1,-1,-3,0,0,1,0
1529289955412308,1,-1,0,-1,-2,-1,-1,1
1529289955412308,-1,-2,0,-1,-1,0,-1,0
1529289955427422,0,4,0,-1,-2,0,-2,-1
1529289955427422,-2,-5,-4,-2,0,0,-1,-1
1529289955428085,-2,-4,-2,-2,-2,-3,-2,-1
1529289955428085,0,-1,0,0,-1,0,-1,-2
1529289955449591,-1,-1,0,-1,-1,-1,-1,-1
1529289955449591,-2,-2,-2,-1,-2,-2,0,0
1529289955450592,-2,-2,0,-2,-2,-1,0,-2
1529289955450592,0,-2,-1,0,-2,-2,-1,-2
1529289955462289,2,0,-1,-1,0,-1,-1,0
1529289955462289,-3,0,1,0,-1,-2,-2,-1
1529289955471884,0,-1,-1,-1,-1,1,0,-3
1529289955471884,-1,1,-2,-1,0,-3,-1,0
1529289955486844,-1,-2,-1,-2,-1,0,0,-1
1529289955486844,0,-1,-1,-2,-1,-1,-1,-3
1529289955488007,-1,-1,-1,-1,0,-1,-2,0
1529289955488007,-2,-1,0,0,0,0,0,0
1529289955509786,-2,-5,-2,-2,-1,-2,0,-2
1529289955509786,-2,-1,-2,-1,-1,-1,0,0
1529289955510787,0,-1,-1,1,-1,0,-1,0
1529289955510787,-2,-7,-3,-2,0,0,0,0
1529289955523452,-1,-3,1,0,0,-3,0,0
1529289955523452,2,2,2,0,0,1,-1,-2
1529289955532149,0,-1,-1,-1,-1,-1,-1,-1
1529289955532149,-1,1,-2,-1,0,-1,0,-1
1529289955546111,-2,-2,-1,-1,0,0,-1,-1
1529289955546111,-1,1,-3,-1,-2,-1,0,0
1529289955548079,0,-1,0,-1,0,-1,-1,-1
1529289955548079,0,0,-1,-1,-1,0,0,-1
1529289955569760,0,-1,-1,0,-1,-1,0,-1
1529289955569760,-1,0,-1,0,-1,0,-1,-2
1529289955571494,-2,-4,-1,-1,1,0,-1,-2
1529289955571494,-3,-2,0,0,-2,1,0,-2
1529289955582363,-1,2,-2,0,-2,-2,-1,-2
1529289955582363,0,1,0,-2,-1,-1,-1,-2
1529289955591659,-1,1,-1,0,-2,-2,-2,0
1529289955591659,-1,0,-2,-2,-1,-2,0,0
1529289955607342,1,-3,-1,-1,-1,-1,-1,-1
1529289955607342,-2,1,-1,0,-2,0,-3,0
1529289955608292,-1,-6,-1,0,-1,-1,0,-3
1529289955608292,-2,-3,0,0,-2,0,-3,-1
1529289955629488,-3,4,-1,-1,-2,-1,-3,-1
1529289955629488,-3,-4,0,0,-2,-1,-2,-1
1529289955630532,2,1,-1,-1,-1,-3,0,0
1529289955630532,0,1,0,-3,-3,-1,-1,1
1529289955642630,-3,-3,-1,-1,-1,0,-1,-2
1529289955642630,1,2,-1,0,-1,-1,-2,-2
1529289955651797,-1,4,0,-2,-1,0,0,-1
1529289955651797,-2,-5,-2,-2,-3,-2,-1,-1
1529289955665455,-2,-7,-2,-1,0,0,0,-1
1529289955665455,-3,-3,-2,-1,0,-1,0,0
1529289955672442,-2,-1,-1,1,-2,0,-1,-2
1529289955672442,0,2,-1,-1,0,-2,-2,-2
1529289955689446,-1,-1,0,-2,0,-2,0,-1
1529289955689446,-1,-3,0,-1,-1,-1,0,0
1529289955690578,-1,-1,-3,-3,0,1,0,0
1529289955690578,0,0,-1,-1,-1,0,-1,0
1529289955702406,-3,0,-2,0,-2,-1,-1,-2
1529289955702406,1,0,-1,-2,-2,-2,0,2
1529289955712380,-1,0,-1,-1,1,-2,-1,-1
1529289955712380,-2,-2,-2,-1,-1,-2,-2,-2
1529289955726380,0,-3,-2,-2,1,-2,-2,-1
1529289955726380,-1,1,0,0,-2,-2,-2,-1
1529289955732325,-2,0,0,1,-1,0,-1,-2
1529289955732325,2,-3,0,0,0,-1,-2,-3
1529289955749279,1,1,-2,-1,0,-1,-1,-1
1529289955749279,-2,-1,-1,-1,-1,-2,-2,1
1529289955751275,0,-1,-1,0,-1,0,-1,0
1529289955751275,-2,-3,-1,-1,1,0,1,-1
1529289955762271,-1,-2,-1,0,1,-1,-1,0
1529289955762271,-2,-3,-2,-2,0,0,-1,-2
1529289955772217,-1,-2,-1,0,-1,-1,-3,0
1529289955772217,-1,0,0,-1,-2,0,-1,0
1529289955786183,0,-1,0,0,-1,0,-1,-1
1529289955786183,0,-1,-1,-1,0,1,-2,-2
1529289955793161,-2,-2,-2,-2,-2,-2,-1,0
1529289955793161,-2,0,-1,0,-1,-2,-2,-1
1529289955809118,1,1,-1,0,-3,-2,-1,-1
1529289955809118,0,-2,-2,-1,-2,-1,-2,-1
1529289955811152,0,-1,-2,-2,-2,-1,-1,-1
1529289955811152,-2,-1,-2,0,-1,-1,-1,1
1529289955823235,-2,-1,-2,0,-1,-1,1,-1
1529289955823235,-3,-3,1,0,-3,0,0,-1
1529289955832131,-1,0,0,-1,0,0,-1,0
1529289955832131,1,1,1,-2,1,-2,0,0
1529289955846136,-2,-2,-1,-3,0,-1,-3,0
1529289955846136,0,-2,-3,0,0,-3,1,-1
1529289955853124,-1,-2,-2,-2,0,-2,-1,-1
1529289955853124,0,-2,-1,-2,-2,0,-2,-2
1529289955868873,-1,0,0,-2,-1,0,-1,0
1529289955868873,0,0,1,-1,-1,-1,0,-1
1529289955870868,-3,-1,-1,0,-2,-1,0,-1
1529289955870868,-3,0,-1,0,-1,0,-1,-2
1529289955891878,-1,-4,0,0,-1,0,-1,-3
1529289955891878,-2,-2,-1,-1,-2,-1,-1,0
1529289955893874,1,-2,-1,-1,-1,-3,-2,-1
1529289955893874,-1,-1,-1,-1,-2,-1,0,-1
1529289955906239,-1,0,-2,0,-1,-1,-3,-1
1529289955906239,1,-2,-2,-1,-1,-1,-1,-2
1529289955913249,0,-2,-1,-1,-1,0,-1,-1
1529289955913249,0,-1,0,-1,-1,0,-2,-3
1529289955929513,-1,-1,-2,-3,0,-1,0,0
1529289955929513,0,1,-1,0,-2,0,-1,-1
1529289955930207,0,-1,0,0,0,-1,0,0
1529289955930207,0,-1,0,-1,-2,-1,-1,-1
1529289955951335,-2,-1,-2,-1,-2,-1,-1,-2
1529289955951335,0,0,-1,-1,0,-3,-1,-2
1529289955953330,-2,-1,-2,0,-2,0,0,-2
1529289955953330,-1,-1,-1,0,0,-1,0,0
1529289955966295,-1,-2,-1,-1,-2,-2,0,-2
1529289955966295,-1,-2,0,-2,-1,-2,0,-1
1529289955980445,0,-1,0,-1,0,-1,-2,-3
1529289955980445,-1,-3,-1,-1,-1,-1,-1,-1
1529289955989398,0,0,-3,0,-2,0,-1,-1
1529289955989398,0,0,-2,-1,-1,1,1,0
1529289955990395,-3,-3,-3,0,-1,-1,0,-1
1529289955990395,-1,0,0,-1,1,0,-1,-2
1529289956011723,1,-1,1,0,-1,-1,-1,0
1529289956011723,-3,0,0,-1,0,-2,-1,-3
1529289956013721,0,-1,-3,-1,-2,-2,-2,0
1529289956013721,0,-2,-3,0,-2,-2,-2,-1
1529289956025688,-2,-1,-1,0,1,-1,0,-1
1529289956025688,1,-3,-2,-2,-1,0,-2,0
1529289956034665,-1,-2,-1,-1,-1,1,-1,0
1529289956034665,1,0,-3,-1,-1,-1,-2,0
1529289956049721,0,-1,2,-1,-1,-1,-1,-2
1529289956049721,0,-2,0,-1,-1,0,-1,-1
1529289956050619,0,0,1,-2,0,-1,-1,-3
1529289956050619,-1,-2,-1,-1,-1,-3,-1,0
1529289956071742,-2,-1,-2,0,-1,-1,-1,-1
1529289956071742,-2,0,0,-1,0,-1,-2,-2
1529289956073558,-1,-1,-1,0,-1,1,0,0
1529289956073558,-4,-1,-1,-2,-1,0,0,-2
1529289956085863,0,-1,-2,-1,0,0,-2,-1
1529289956085863,1,0,-2,0,-2,-1,0,-2
1529289956094501,0,0,0,-1,-2,-1,-1,-1
1529289956094501,-1,-1,-1,0,-2,-2,-1,-1
1529289956108685,-2,-2,-1,-2,-1,-2,-1,-1
1529289956108685,0,-2,-2,0,-1,-1,-1,-2
1529289956110681,-3,0,-2,-1,0,-1,0,-2
1529289956110681,1,-1,1,-2,-1,0,0,1
1529289956131626,0,0,-1,-1,0,1,0,0
1529289956131626,-1,-4,-2,-1,-1,0,0,-1
1529289956133623,-2,-4,0,-1,-1,0,-1,-1
1529289956133623,-1,-1,-3,0,-1,0,0,-1
1529289956144772,-1,2,-1,0,-1,0,-1,0
1529289956144772,-1,2,0,-2,-1,0,-1,0
1529289956153747,-1,1,0,-1,-1,-1,-1,-2
1529289956153747,-1,-1,0,-1,-2,0,0,-3
1529289956168887,0,0,0,0,-2,-2,-1,-1
1529289956168887,-1,-1,-1,-1,-1,-1,-2,-1
1529289956170740,0,-1,-2,0,-3,-2,-2,-1
1529289956170740,-1,-1,-2,-1,0,-1,-3,0
1529289956191683,-1,-1,-2,-1,0,0,0,-2
1529289956191683,1,-1,-2,-1,-1,-1,1,-1
1529289956193984,-4,-2,-1,-3,-1,0,-1,-1
1529289956193984,0,1,-2,-3,-2,-2,-1,-1
1529289956205379,-2,0,-1,0,-1,-1,0,0
1529289956205379,-3,0,1,-2,-1,0,-1,-2
1529289956214358,2,-1,-1,1,-1,-1,-1,-2
1529289956214358,0,-1,0,-1,0,-1,2,0
1529289956229321,0,-1,-1,-2,-2,-2,-1,-2
1529289956229321,-1,-2,-1,-2,0,-2,-3,0
1529289956230319,-1,-2,-1,-1,0,-1,-1,-2
1529289956230319,-4,-4,-2,0,1,0,-2,0
1529289956258697,1,-1,0,-2,-1,0,-2,-1
1529289956258697,-2,-1,0,-1,-2,0,-1,-2
1529289956260689,1,1,-1,-3,0,0,-1,-1
1529289956260689,-1,-2,1,1,-1,-2,-3,-4
1529289956265676,-1,-2,-2,-2,-2,-1,-1,0
1529289956265676,-2,-2,-1,-1,-2,-1,-2,0
1529289956274217,0,0,0,-2,-1,-3,0,-1
1529289956274217,-3,0,-1,-1,-2,-2,0,-1
1529289956288801,-2,-1,-1,-2,-2,0,-1,-1
1529289956288801,0,1,-1,-1,-1,0,0,0
1529289956290792,-1,-2,-1,0,-2,-1,-1,-1
1529289956290792,0,-1,-1,-2,-1,-1,-2,-1
1529289956312243,-1,-1,-1,-2,0,0,-1,1
1529289956312243,2,1,0,-1,-1,-1,-1,-2
1529289956313147,-3,-7,-2,0,-1,-2,0,2
1529289956313147,-3,0,-1,-2,-3,-1,2,0
1529289956325038,-3,-4,-1,-1,-1,-2,0,0
1529289956325038,-2,-1,-3,-2,0,-3,-1,-3
1529289956333911,0,2,-2,-2,-1,0,0,-1
1529289956333911,1,-1,-1,-1,0,0,-1,-2
1529289956349133,0,0,0,-2,-1,-2,-2,0
1529289956349133,-2,-1,-1,-1,-1,-2,0,0
1529289956351089,0,0,-1,-1,-2,-1,-2,0
1529289956351089,-3,1,-3,-1,0,0,-1,-1
1529289956371744,-1,2,0,1,1,-2,-2,-3
1529289956371744,-1,-1,-1,0,-2,0,-1,-1
1529289956372742,0,0,-2,-2,-2,0,0,-1
1529289956372742,1,-3,0,0,-2,0,-2,1
1529289956384892,-2,-3,-2,-2,-2,-1,-1,0
1529289956384892,-3,-5,-1,0,-1,-3,-1,-1
1529289956394791,-2,-2,-1,-2,-1,-1,-3,0
1529289956394791,0,0,-2,0,0,-2,-1,-1
1529289956409593,-2,0,-1,-2,-1,0,0,-2
1529289956409593,-2,2,-3,-1,-1,0,-2,-1
1529289956410619,-2,-1,0,-1,0,-1,0,0
1529289956410619,-1,0,-1,-2,-1,-2,-2,-2
1529289956431587,-1,1,0,-1,-2,-1,-1,-2
1529289956431587,-2,-2,0,0,-2,-1,-2,-2
1529289956433740,0,-1,-1,0,0,-2,-1,1
1529289956433740,-1,-1,-2,-2,-2,-2,-1,0
1529289956445855,1,-2,-1,-1,-3,-2,-1,-2
1529289956445855,-1,-1,-3,-2,-1,0,-1,-1
1529289956454260,-1,-2,-2,0,0,0,-1,-2
1529289956454260,-1,1,0,-1,-1,0,1,0
1529289956469443,-4,0,-1,-1,-2,-2,-1,-2
1529289956469443,0,-1,0,-1,0,-2,-1,-1
1529289956471132,0,0,0,0,-2,1,0,0
1529289956471132,-1,-3,-1,-2,-1,-1,-1,-1
1529289956491623,0,-3,-1,-2,0,0,0,-1
1529289956491623,-2,1,0,-2,-1,-1,-1,-1
1529289956493288,-1,-1,0,-1,0,0,0,-2
1529289956493288,1,-3,-1,-2,-2,0,-3,-1
1529289956505442,-2,-1,-1,-2,-2,1,0,0
1529289956505442,1,-2,-1,0,-1,0,0,0
1529289956514233,0,1,0,-2,-1,-1,-1,-1
1529289956514233,-1,0,0,0,1,-3,-3,-1
