timestamp,emg1,emg2,emg3,emg4,emg5,emg6,emg7,emg8
1529291964264333,-1,0,-2,-2,1,1,1,-1
1529291964264333,-2,1,0,-1,2,-1,1,1
1529291964264333,-1,-2,0,-1,0,-1,1,1
1529291964264333,-5,2,-2,-2,-2,2,0,-2
1529291964267326,-1,-2,0,1,-1,-2,1,3
1529291964267326,0,-2,-1,1,-3,-2,-3,10
1529291964269319,-5,-2,-1,0,-2,-3,-1,3
1529291964269319,4,-1,-2,-1,1,-2,0,-3
1529291964276301,-3,-1,-2,-1,-3,0,-4,-6
1529291964276301,-4,-1,-2,-1,-1,-2,-1,-4
1529291964288269,0,-1,1,-2,-1,-2,-3,-5
1529291964288269,-3,-3,0,-2,-3,0,0,-4
1529291964291261,-2,-1,-2,-3,-1,1,-2,-3
1529291964291261,0,0,0,-2,1,0,-2,-4
1529291964308215,-1,-3,-1,-2,0,0,-3,-1
1529291964308215,-2,-2,-1,-4,-1,-6,-4,-5
1529291964316194,-3,-1,-1,-5,-3,4,-5,-7
1529291964316194,-3,0,0,-2,-1,1,10,-2
1529291964337137,-7,-5,-2,3,-1,-13,-8,-2
1529291964337137,12,2,1,0,9,9,-7,3
1529291964338135,-9,0,-1,4,-4,4,5,0
1529291964338135,8,-5,-5,-12,-6,4,7,-3
1529291964351100,-3,0,4,10,-5,-17,-14,-8
1529291964351100,3,0,-5,-13,8,22,6,7
1529291964392988,-1,1,4,2,0,-2,-3,-2
1529291964392988,-5,0,-1,-11,1,-5,-23,-21
1529291964393985,2,2,0,4,11,23,15,0
1529291964393985,-1,-2,-7,-40,-12,-17,-25,-13
1529291964396978,-1,-1,-2,-26,-12,-6,-20,-7
1529291964396978,2,5,9,25,-12,-38,-8,1
1529291964397975,1,-5,-11,-12,29,14,-2,6
1529291964397975,7,-1,3,24,-19,-2,16,16
1529291964404958,7,-7,-3,16,-21,-10,1,7
1529291964404958,1,-3,-1,23,7,-3,10,2
1529291964412936,-1,-3,12,43,-2,-12,14,5
1529291964412936,-7,-5,-5,0,-29,-35,9,-1
1529291964419917,-4,2,8,6,18,24,14,0
1529291964419917,-1,1,-7,-8,13,22,21,5
1529291964433879,-6,-3,-8,-4,10,26,0,-10
1529291964433879,-5,0,5,-8,0,29,0,-10
1529291964442855,-1,1,3,34,-3,-4,8,2
1529291964442855,-3,0,-1,-23,-14,6,-19,-5
1529291964464817,-1,5,1,12,12,56,-1,15
1529291964464817,0,6,0,-1,23,71,21,-3
1529291964466791,-1,1,-4,-29,5,23,-10,-4
1529291964466791,-14,-6,0,20,12,-32,13,-26
1529291964478759,-4,-1,1,-25,-41,-68,-5,-20
1529291964478759,3,5,-8,19,40,28,48,18
1529291964493720,-3,3,-1,25,29,6,17,-3
1529291964493720,-6,-6,-2,-7,-7,-27,-6,2
1529291964502696,-14,-6,0,-35,-53,-87,-37,-3
1529291964502696,-10,-6,12,21,26,32,-12,9
1529291964504690,-1,-9,-7,-32,-39,-48,-22,7
1529291964504690,19,-3,-11,-23,-8,16,5,22
1529291964524644,19,-3,-13,38,-13,-31,-3,7
1529291964524644,18,1,-12,-3,22,56,22,17
1529291964526632,5,-1,-5,19,30,-5,-13,-2
1529291964526632,-6,-3,-4,-34,-37,-4,-8,-7
1529291964538599,-4,-2,-4,-1,14,-25,-19,-4
1529291964538599,-2,-2,-4,-17,-17,-14,-13,-14
1529291964547576,-4,0,-7,-3,17,26,-6,-8
1529291964547576,3,3,-16,-21,-16,-16,7,12
1529291964562570,3,5,-27,-17,13,28,33,12
1529291964562570,-5,-6,-24,-24,-15,-38,-17,-3
1529291964564558,-2,-3,-32,-2,-19,-37,-14,-8
1529291964564558,-10,-4,-26,-26,-15,-1,-24,-6
1529291964584476,-1,0,-9,23,5,7,-4,-2
1529291964584476,6,1,-6,19,22,7,18,14
1529291964586471,3,4,17,0,17,46,23,10
1529291964586471,-7,-5,24,5,10,1,-24,-14
1529291964598481,-6,-4,28,-44,-41,-24,-19,-12
1529291964598481,1,9,35,5,14,-19,-1,-1
1529291964607416,9,7,25,-50,6,8,15,14
1529291964607416,9,4,24,-24,14,42,22,19
1529291964622376,-4,0,18,-20,-17,-25,-18,1
1529291964622376,-3,1,20,11,-18,-23,-12,-2
1529291964624399,5,4,12,9,-12,-13,-1,12
1529291964624399,-14,-2,8,27,2,-6,-13,-29
1529291964645364,1,0,9,-7,-18,-11,-17,-7
1529291964645364,-6,-2,5,-9,-12,-39,2,-1
1529291964646311,11,2,0,33,41,55,35,14
1529291964646311,1,-3,7,4,-4,7,7,-4
1529291964658316,-3,-4,5,2,-4,6,-4,-5
1529291964658316,-10,-10,-2,-9,-30,-48,-38,-27
1529291964667255,-16,-12,4,30,-48,-45,-16,-17
1529291964667255,8,-3,-2,66,68,44,25,19
1529291964682225,0,-1,-8,-3,24,65,25,-2
1529291964682225,10,0,-10,-9,-3,-3,-3,6
1529291964684210,0,-1,-10,5,-4,-2,7,-1
1529291964684210,-5,6,-12,-12,-28,-19,-25,-10
1529291964705194,-4,1,-8,11,-3,4,-5,-6
1529291964705194,0,2,-13,-22,-19,-13,-8,-7
1529291964706189,-6,3,1,34,4,-3,-5,-6
1529291964706189,4,2,-5,-20,2,1,1,8
1529291964719116,2,1,-2,-19,-16,-7,-10,-5
1529291964719116,-5,-3,-4,1,-8,13,-3,-5
1529291964728094,-5,-7,0,2,11,2,0,-5
1529291964728094,-5,-3,7,20,-8,7,6,5
1529291964742097,20,-2,3,5,21,-2,8,4
1529291964742097,1,-17,-1,-2,-6,-17,-15,-13
1529291964744060,-9,-20,3,-34,-20,-25,-14,-12
1529291964744060,4,-8,4,-13,-3,-14,-1,0
1529291964764994,-3,3,7,28,31,24,14,12
1529291964764994,-11,-5,4,-3,7,1,-5,-8
1529291964766989,4,-4,0,-29,-8,-2,-7,-4
1529291964766989,-6,-8,6,23,0,-19,-4,-1
1529291964778956,-4,-7,12,-7,-7,-3,0,2
1529291964778956,9,2,11,-24,4,22,-1,7
1529291964787933,-13,3,3,-22,-18,-5,0,-18
1529291964787933,-10,5,8,-14,-6,-2,-7,-6
1529291964802942,17,10,15,3,4,-6,3,9
1529291964802942,32,15,27,32,-1,-12,-5,10
1529291964803891,-80,-17,8,-16,3,14,-9,-44
1529291964803891,7,0,22,9,15,10,20,12
1529291964824844,4,-9,27,10,12,15,8,9
1529291964824844,-29,-12,57,-24,-15,-14,-13,-11
1529291964826829,26,4,64,-2,-7,-12,-5,15
1529291964826829,5,8,121,-14,-2,-3,-2,-3
1529291964838798,-10,-6,127,11,-6,-6,-5,-7
1529291964838798,-14,-3,127,-16,-2,2,-2,-16
1529291964847774,13,39,87,44,6,1,7,15
1529291964847774,13,79,11,-14,14,24,7,0
1529291964861736,3,94,-54,-8,2,-1,7,6
1529291964861736,-6,61,-120,-24,-9,-15,-16,-6
1529291964868717,-13,3,-121,15,-6,-21,-5,-3
1529291964868717,30,-35,-127,-13,7,13,5,19
1529291964884676,-21,-54,-127,7,0,-12,-12,-19
1529291964884676,-5,-50,-121,26,5,16,17,11
1529291964886669,-14,-39,-116,-48,-11,-3,-8,-11
1529291964886669,-17,-42,-101,13,13,7,11,-1
1529291964898637,-13,-30,-79,-9,-12,-6,-7,-16
1529291964898637,-3,-18,-54,53,2,-3,4,6
1529291964923607,11,-14,-39,16,23,4,0,14
1529291964923607,-1,-3,-44,-18,-20,-12,-7,-9
1529291964937533,-2,-8,-25,22,21,16,12,10
1529291964937533,9,-7,-22,26,0,-2,4,-1
1529291964939565,-13,0,-7,9,-1,0,-8,-14
1529291964939565,-1,-2,-9,-21,-19,-10,2,-2
1529291964945512,-1,-6,0,-9,3,-5,-6,-1
1529291964945512,6,3,-2,-4,-9,-11,0,6
1529291964946509,12,6,7,-11,9,10,7,3
1529291964946509,-12,-15,-3,27,-8,-7,-7,-11
1529291964958477,3,-14,5,-5,-7,5,5,3
1529291964958477,-2,-1,-3,-14,8,-5,-13,-7
1529291964967453,6,4,8,-22,-18,-24,-9,-5
1529291964967453,-1,10,10,-2,8,18,12,10
1529291964981417,0,3,7,17,15,14,13,2
1529291964981417,2,-6,12,25,12,12,-4,-8
1529291964988433,-11,-12,-6,-14,-15,-34,-27,-11
1529291964988433,6,-14,2,-15,-23,-2,6,7
1529291965005358,1,-10,9,4,3,9,1,1
1529291965005358,3,16,10,-19,-1,16,13,3
1529291965006348,9,-7,-4,-28,-14,-2,-5,6
1529291965006348,-15,-16,9,-21,-18,-30,-30,-18
1529291965018317,14,-16,17,-7,-5,-5,8,5
1529291965018317,5,-20,21,52,39,24,16,21
1529291965027293,2,-17,14,-33,-22,-8,-4,-12
1529291965027293,-4,-18,20,33,15,-1,2,0
1529291965042300,-12,-2,-4,-49,-22,-29,-13,-8
1529291965042300,4,24,4,9,5,14,-5,3
1529291965056265,1,41,6,-4,9,15,23,1
1529291965056265,0,48,9,26,9,3,-6,-3
1529291965065195,-8,37,6,-5,-20,-13,-11,-11
1529291965065195,-4,17,-2,-20,3,-2,2,4
1529291965066216,16,15,8,15,13,24,12,16
1529291965066216,-27,1,-3,-4,-3,-8,-14,-8
1529291965088164,0,8,-4,-2,1,-2,5,10
1529291965088164,-14,1,-7,-31,-8,3,-2,-16
1529291965090212,11,7,5,38,12,1,2,7
1529291965090212,18,7,-5,9,-8,3,14,9
1529291965110284,-5,12,5,14,4,-3,-16,-13
1529291965110284,5,0,-6,-45,-25,-13,-6,0
1529291965111251,10,-1,7,7,-9,-24,-13,-2
1529291965111251,9,1,4,14,29,17,15,6
1529291965125244,10,-8,0,-47,-30,-18,-18,-6
1529291965125244,8,-6,7,10,10,25,19,10
1529291965126242,-5,-4,4,0,15,13,1,-7
1529291965126242,18,0,11,28,-8,-23,-9,6
1529291965147155,-6,-7,5,-37,-25,-14,-11,-16
1529291965147155,-2,-9,2,-2,-1,-19,-3,6
1529291965149150,4,1,4,-8,-2,18,2,-5
1529291965149150,-19,-15,-10,6,22,17,12,1
1529291965162151,5,-3,-10,-4,9,15,11,12
1529291965162151,-22,-6,17,6,-37,-54,-40,-28
1529291965169098,-8,-4,-5,-2,-2,5,4,12
1529291965169098,-10,2,-3,-20,-13,-3,-8,-5
1529291965185252,-10,-9,1,39,37,48,23,2
1529291965185252,1,-1,-10,-28,-11,-14,-10,-4
1529291965186250,-6,-6,-2,25,0,-8,5,2
1529291965186250,4,2,6,2,13,15,2,0
1529291965207387,-4,-2,-6,-8,-12,-9,-9,-4
1529291965207387,-6,-1,2,15,-4,-5,-4,-5
1529291965209253,-2,-12,-2,-3,13,-2,5,1
1529291965209253,6,-2,0,9,3,-3,-2,1
1529291965221359,0,-5,-11,-48,-6,-6,2,3
1529291965221359,-4,-8,-2,9,-1,-5,-9,-11
1529291965230197,9,-2,0,0,-5,-3,4,7
1529291965230197,-8,-10,-3,0,4,11,-1,-6
1529291965245505,-1,0,3,15,12,1,0,1
1529291965245505,16,-1,-1,-16,-10,-6,0,0
1529291965246343,3,-1,-2,-23,-15,-13,-10,0
1529291965246343,17,2,-1,-7,-8,-2,3,20
1529291965268081,-13,1,2,20,-1,-9,-1,-32
1529291965268081,-4,-7,-12,-9,5,6,4,1
1529291965269081,7,6,10,19,9,10,6,5
1529291965269081,-9,-3,-1,-13,6,7,3,0
1529291965281052,3,-2,2,20,1,1,-8,4
1529291965281052,-7,4,6,27,5,-16,-11,-3
1529291965290027,0,-3,-3,5,2,12,9,4
1529291965290027,-6,-5,4,18,-7,-9,-10,-9
1529291965305192,5,2,2,12,3,0,6,8
1529291965305192,6,2,-13,-13,23,32,23,15
1529291965306189,-9,-3,-1,-12,-19,-19,-19,-9
1529291965306189,5,5,4,3,-13,-30,-16,-14
1529291965327133,-5,-4,0,-2,-5,4,9,5
1529291965327133,1,-4,-2,-21,2,3,4,5
1529291965329128,3,-1,-8,2,-2,2,3,-6
1529291965329128,-2,1,-4,-35,-9,-1,-8,-5
1529291965341096,-9,-7,2,32,10,2,-6,-9
1529291965341096,-1,-3,1,12,-2,-6,1,2
1529291965350074,15,4,1,2,-3,-6,-3,5
1529291965350074,-20,-15,-19,-47,-19,-9,-1,-12
1529291965364092,-8,4,-6,1,9,0,-1,0
1529291965364092,9,2,2,1,4,14,10,11
1529291965373063,-12,-8,2,18,6,-6,-7,-5
1529291965373063,14,5,6,20,-15,-18,-13,0
1529291965387028,-5,8,115,30,10,-4,1,-1
1529291965387028,8,7,111,-35,2,24,14,2
1529291965393955,1,2,23,-1,9,10,1,3
1529291965393955,-4,0,-41,-30,-9,-13,-1,-5
1529291965409974,5,-10,-104,-1,-10,-6,-8,0
1529291965409974,-6,-5,-98,38,6,-5,-4,-6
1529291965411907,-3,-1,-74,10,8,5,4,1
1529291965411907,-2,-3,-64,8,-10,2,-2,3
1529291965423928,2,6,-70,30,-9,-31,-20,-6
1529291965423928,-2,2,-56,-7,9,13,10,2
1529291965432852,4,-1,-47,10,7,15,9,9
1529291965432852,-25,-4,-25,34,14,14,5,-3
1529291965446841,27,3,-24,-60,-14,-10,-8,2
1529291965446841,-15,-3,-33,24,-1,-20,-14,-7
1529291965453796,-1,-3,-20,-17,-10,-7,-10,-15
1529291965453796,-1,-2,3,5,21,21,17,7
1529291965469810,-12,-9,-8,13,12,14,3,-2
1529291965469810,4,1,-17,-57,-30,-23,-9,2
1529291965471750,-13,4,-6,27,-7,-18,-17,-22
1529291965471750,18,3,7,-2,-1,5,17,13
1529291965483760,-7,-9,-9,-6,23,18,6,2
1529291965483760,-2,-1,-20,-20,-26,-4,-5,-6
1529291965492691,-3,4,-25,-2,13,-8,1,8
1529291965492691,-2,0,-39,-29,-6,0,-8,-10
1529291965506711,8,2,-44,4,7,17,17,10
1529291965506711,-1,2,-37,1,10,-1,1,-3
1529291965513693,0,-5,-9,-33,-21,-6,1,-1
1529291965513693,-7,-2,0,-9,1,8,-2,-8
1529291965529651,-1,-2,-16,-18,-26,-19,-5,0
1529291965529651,-4,2,-24,-8,0,-16,-18,-9
1529291965531603,1,-4,-9,13,1,6,16,10
1529291965531603,10,11,1,-29,-3,10,4,9
1529291965543573,-4,-15,15,16,-18,-9,-14,-5
1529291965543573,-15,1,-13,9,14,-2,1,-12
1529291965552531,-18,-10,-7,-40,-1,-2,-8,-2
1529291965552531,6,5,13,62,8,-13,-7,-3
1529291965566494,6,10,7,-47,-7,-2,3,3
1529291965566494,3,-15,1,38,13,9,0,-4
1529291965573530,-9,-10,-4,-15,-3,13,8,3
1529291965573530,9,-11,7,-19,-16,-23,-10,-3
1529291965590443,-13,-4,9,32,0,-3,-1,-3
1529291965590443,9,3,5,27,28,30,13,6
1529291965591427,9,8,8,-13,-1,-5,-4,1
1529291965591427,-4,-4,6,12,10,12,9,-2
1529291965612429,-3,-3,-3,40,-7,-37,-16,-7
1529291965612429,9,10,7,-30,-8,7,1,11
1529291965614367,2,-6,1,-29,-23,9,5,3
1529291965614367,5,8,-4,6,2,6,1,9
1529291965626333,-23,1,6,-26,-1,7,2,-13
1529291965626333,23,-9,10,30,-3,8,10,15
1529291965633362,8,6,11,10,1,-10,-10,-9
1529291965633362,-32,-15,-2,-23,-22,-28,-18,-16
1529291965650322,-1,3,10,-7,11,10,3,-1
1529291965650322,-6,-14,-5,-26,-37,-17,-7,-6
1529291965651428,12,18,5,15,5,0,-2,-1
1529291965651428,7,5,3,2,5,13,9,4
1529291965672259,1,-1,-2,20,21,13,1,1
1529291965672259,-12,1,4,-23,-12,-10,-9,-5
1529291965674218,3,1,0,-5,-8,-3,-6,-4
1529291965674218,-1,12,1,-14,-3,-13,-8,-7
1529291965687340,12,-2,-2,-9,-1,24,16,15
1529291965687340,-18,1,0,5,-8,-9,-6,-11
1529291965693314,3,-10,-1,16,4,4,7,15
1529291965693314,40,15,3,-31,-21,-39,-36,-10
1529291965710110,-23,-13,-5,26,5,16,11,-4
1529291965710110,-34,6,0,17,14,13,-6,-31
1529291965712212,46,-11,2,11,14,18,31,82
1529291965712212,-30,-26,-2,29,9,-4,10,-2
1529291965732398,10,-6,1,4,-4,-14,-7,6
1529291965732398,-17,-27,-3,5,0,-15,-2,-4
1529291965734393,-19,-6,-15,-31,-6,-5,-4,-16
1529291965734393,11,29,34,-8,10,11,10,15
1529291965746550,-3,-5,-8,6,5,-2,4,1
1529291965746550,16,10,3,-26,-40,-9,-2,3
1529291965755663,-10,12,6,-34,-16,-9,-9,-16
1529291965755663,-10,-28,-26,13,3,11,2,-10
1529291965770576,11,18,1,-19,-6,3,-3,-5
1529291965770576,18,5,8,14,7,-7,-5,8
1529291965771498,-4,-4,2,4,-3,-7,-5,-15
1529291965771498,-8,-4,-4,35,3,9,5,-1
1529291965792823,-5,0,6,9,21,15,-4,-4
1529291965792823,37,12,-4,6,10,-5,17,46
1529291965793881,-30,-17,0,-25,-10,-7,-17,-36
1529291965793881,-32,3,2,-3,7,-7,-19,-26
1529291965806822,-11,4,-8,31,7,-2,26,15
1529291965806822,17,26,23,-26,-20,-12,-20,-17
1529291965815791,4,-1,2,41,17,2,7,12
1529291965815791,12,0,7,8,9,0,-1,6
1529291965829958,-2,4,6,-8,-11,0,-10,-10
1529291965829958,-11,10,0,8,16,9,2,-2
1529291965831791,0,12,20,-9,-8,1,0,-1
1529291965831791,-3,-15,-11,27,0,8,3,-1
1529291965852891,12,1,9,1,2,-6,-7,1
1529291965852891,-13,-24,-18,-12,-12,0,-1,-7
1529291965854770,13,13,4,-2,-5,-5,-4,-2
1529291965854770,-24,-19,-13,-29,-11,2,5,14
1529291965866771,55,-1,12,-8,1,-7,-3,21
1529291965866771,-72,8,2,4,6,-2,-29,-74
1529291965875808,-23,-17,4,22,5,-2,25,-4
1529291965875808,15,-2,-1,-22,-21,-12,-10,5
1529291965889988,-24,-2,-6,6,16,2,0,-10
1529291965889988,22,-11,0,4,3,2,6,17
1529291965891820,-7,10,-17,-30,-6,29,9,-7
1529291965891820,4,-3,7,63,15,-5,-4,-4
1529291965913121,-10,3,-4,-38,-20,-10,-5,0
1529291965913121,1,-4,13,-3,-18,-18,-12,-8
1529291965913988,-4,-20,-7,36,10,1,-15,-2
1529291965913988,13,5,9,-28,-9,4,15,4
1529291965926524,-1,7,-4,-47,-16,-3,-2,3
1529291965926524,-1,-14,1,12,3,3,8,0
1529291965935697,-3,-5,-5,8,3,-6,-8,2
1529291965935697,-5,0,15,5,7,6,-6,-4
1529291965949499,20,0,3,21,-1,-3,-2,-2
1529291965949499,6,-1,-3,-12,-2,7,25,33
1529291965951508,10,1,1,2,1,-6,-9,-34
1529291965951508,-22,6,10,-9,5,-5,-6,-9
1529291965972437,-7,-10,-1,-14,-15,-1,-5,-6
1529291965972437,8,3,22,16,10,1,0,13
1529291965974433,18,4,19,-16,-15,-2,-9,1
1529291965974433,4,5,8,-17,-9,-1,7,3
1529291965986541,-16,-10,-4,7,-2,-2,-8,-15
1529291965986541,6,-7,-12,-18,-13,-7,0,7
1529291965995377,-15,8,-8,7,14,-13,-10,-3
1529291965995377,4,-1,-14,59,-11,5,6,3
1529291966010474,0,3,4,86,30,20,13,7
1529291966010474,-3,-2,-12,13,8,11,3,0
1529291966011334,-6,0,-15,-29,-11,-6,1,-1
1529291966011334,6,5,-15,-31,1,-6,-3,2
1529291966032434,0,-4,-7,-20,4,-17,-14,-6
1529291966032434,-13,-32,-85,-20,-33,-21,-12,-13
1529291966034290,5,-17,-115,-4,16,6,11,11
1529291966034290,12,-8,-47,-69,-19,3,3,6
1529291966046241,-4,-4,34,10,-6,-5,2,-2
1529291966046241,-9,11,112,-65,-3,8,-1,-5
1529291966055216,-8,2,127,17,-8,-4,-9,-2
1529291966055216,0,7,105,-15,-1,5,4,1
1529291966070318,-6,4,94,-44,-15,-1,-1,-2
1529291966070318,3,4,97,13,10,-3,-2,1
1529291966072239,1,0,80,1,-3,-6,-4,1
1529291966072239,-2,-1,66,11,9,-1,0,-3
1529291966092253,-5,-5,44,-10,0,-2,-4,-4
1529291966092253,2,0,34,51,12,0,-2,0
1529291966094113,-4,-6,35,7,7,6,1,0
1529291966094113,-5,4,28,0,-3,-6,-9,-6
1529291966106442,5,13,11,-37,-12,7,8,5
1529291966106442,0,-1,7,2,2,3,0,-1
1529291966115256,-1,10,21,2,-11,-7,-5,-4
1529291966115256,3,7,13,12,6,0,5,4
1529291966130371,-5,-12,-5,21,-2,0,-5,-1
1529291966130371,0,3,5,17,14,4,2,3
1529291966132242,-1,13,10,-15,-8,1,-2,-2
1529291966132242,-5,1,1,24,1,-8,-5,-1
1529291966152386,12,17,-5,-5,-1,-3,2,2
1529291966152386,-19,-7,2,18,4,1,-2,-14
1529291966154352,-9,-5,5,11,-2,-5,-3,-3
1529291966154352,22,-3,-1,-9,1,3,1,2
1529291966166672,-6,-9,-2,-6,-2,-2,-3,2
1529291966166672,5,-6,2,-12,-3,-10,-5,-2
1529291966175493,-13,-7,1,-2,8,11,14,6
1529291966175493,-4,-7,1,-5,4,0,-3,-3
1529291966190452,3,-6,-1,-8,-3,-1,3,4
1529291966190452,2,1,-1,-4,6,6,4,2
1529291966191449,6,4,0,11,1,-3,-2,1
1529291966191449,-2,1,0,1,2,-2,-4,-4
1529291966213090,-2,0,-2,-19,-12,-9,-7,-3
1529291966213090,-1,3,-2,64,6,0,-2,0
1529291966214091,4,6,2,26,6,5,4,5
1529291966214091,-2,-2,0,40,6,8,5,4
1529291966226407,-8,7,-3,64,-2,4,-4,-7
1529291966226407,4,32,-1,101,-9,-1,0,4
1529291966242471,3,19,17,103,-5,-2,-3,-1
1529291966242471,-10,10,49,53,-15,-7,-12,-10
1529291966249930,-1,0,63,5,-2,-4,0,-5
1529291966249930,5,-15,72,-49,-8,-9,4,4
1529291966251763,3,-18,44,-52,1,0,-2,-1
1529291966251763,-16,-35,10,-49,13,18,1,-7
1529291966272863,24,-14,10,-48,3,10,12,14
1529291966272863,-13,-4,11,-68,12,-6,-2,-13
1529291966274728,-2,-32,-32,-70,-22,-3,-9,-6
1529291966274728,-8,-22,-43,-48,-2,-17,-17,-6
1529291966286670,-7,1,-32,-23,-9,-11,-4,-2
1529291966286670,-1,3,6,-39,-2,12,-3,-5
1529291966295789,-1,3,15,-32,-9,-8,-11,-5
1529291966295789,0,23,35,-35,-5,6,-5,-6
1529291966309744,-7,6,7,-11,-3,14,-3,-11
1529291966309744,-3,16,-19,-5,-3,-11,-8,-11
1529291966316727,-3,28,-5,-23,-5,-5,-8,-13
1529291966316727,7,26,-4,9,-8,-2,10,-1
1529291966332682,-7,-7,-6,2,-13,-13,-1,-8
1529291966332682,7,-19,-6,6,-1,3,13,6
1529291966334698,1,-24,-6,2,8,-10,9,0
1529291966334698,5,-12,-8,-4,2,-15,5,8
1529291966346537,0,-5,70,-6,5,-13,0,2
1529291966346537,2,-5,25,-18,4,1,0,9
1529291966355655,-3,3,16,-8,-1,-19,-7,6
1529291966355655,-3,3,83,-7,-9,5,2,4
1529291966368647,-7,24,53,-11,0,3,5,8
1529291966368647,-4,20,3,-9,5,3,1,8
1529291966376618,-2,20,17,-5,5,37,21,12
1529291966376618,-4,-10,-35,18,17,9,7,2
1529291966391539,-2,-25,-67,29,21,0,0,5
1529291966391539,-9,-17,-50,-25,-23,-16,-18,-7
1529291966392547,-4,-25,-64,16,0,-11,-4,-4
1529291966392547,4,-18,-65,-17,-7,1,2,5
1529291966414478,1,-33,-54,6,1,6,-1,-3
1529291966414478,5,-13,-35,-1,-4,1,2,0
1529291966415474,2,-6,-19,13,-2,3,-4,-1
1529291966415474,8,2,-14,-7,-9,-8,-4,1
1529291966437542,8,5,-24,-1,-3,-4,-2,2
1529291966437542,11,-7,-21,-7,-1,3,6,4
1529291966438414,6,-4,4,-12,-4,-7,-2,-1
1529291966438414,4,5,10,2,5,-4,2,2
1529291966452428,2,8,-12,-6,1,3,-1,-1
1529291966452428,2,0,-3,9,3,7,-2,-4
1529291966452428,4,8,18,7,9,6,-1,1
1529291966452428,-10,-14,4,5,-13,0,-3,-7
1529291966474529,-10,0,-1,-5,-7,4,-3,-6
1529291966474529,-5,-3,-2,11,6,4,-2,-2
1529291966475369,-6,-9,-21,6,-5,-8,-8,-8
1529291966475369,0,-2,-30,12,3,3,6,2
1529291966489698,3,3,-11,-3,-4,-9,-1,3
1529291966489698,4,-6,-2,5,3,-1,4,3
1529291966490691,4,-2,-12,-2,1,-4,-3,0
1529291966490691,1,-1,-7,-5,-2,-4,-7,-5
1529291966511481,-1,-3,-10,-9,2,1,-3,1
1529291966511481,0,-2,-8,-2,6,-2,-5,1
1529291966512475,-2,4,-2,3,4,10,-1,1
1529291966512475,-1,2,-7,1,3,5,1,-1
1529291966534913,-5,-2,-12,4,3,0,2,-3
1529291966534913,-4,-1,-8,-1,1,-8,0,-2
1529291966534913,-5,-1,-2,1,6,-12,-3,-4
1529291966534913,-2,5,-4,4,9,-4,-4,-3
1529291966549230,-4,4,-8,2,7,5,-6,-5
1529291966549230,-5,2,-2,-1,3,10,-3,-1
1529291966550087,-3,4,4,3,0,25,-2,-4
1529291966550087,-1,4,-1,2,-2,17,-3,-2
1529291966572211,-3,-1,1,2,-9,8,-5,-7
1529291966572211,3,1,4,-10,-16,4,-3,-1
1529291966572211,-1,0,3,-1,-11,13,-2,-2
1529291966572211,-3,0,1,7,-1,16,-6,-2
1529291966596148,1,0,6,-5,-7,9,-3,2
1529291966596148,-1,-1,4,-9,-5,-11,0,3
1529291966596148,-1,-1,1,-4,6,58,3,1
1529291966596148,2,1,0,-2,0,12,6,2
1529291966609111,3,1,2,-1,-1,-4,4,1
1529291966609111,3,-1,1,5,0,-24,2,2
1529291966617230,4,0,4,-3,-7,-51,0,1
1529291966617230,1,1,5,0,-6,-37,1,0
1529291966632208,1,3,2,2,-5,-19,-1,-2
1529291966632208,0,-2,1,1,-1,-8,-2,-4
1529291966633190,-5,-3,2,-2,-2,-15,-3,-1
1529291966633190,-3,1,0,-1,1,-5,-1,-1
1529291966654337,-6,-1,-2,-2,0,-5,-1,-6
1529291966654337,-4,1,1,1,3,9,-2,-3
1529291966655206,-2,-1,-1,0,1,-3,0,-3
1529291966655206,0,-1,0,-3,-3,-1,2,0
1529291966678165,0,-1,1,7,0,6,-4,-2
1529291966678165,-3,-2,1,-3,-7,14,-4,-2
1529291966678165,-2,0,-1,4,-1,4,-1,-2
1529291966678165,-3,-2,1,2,-4,-3,-1,-3
1529291966692229,0,-1,1,-8,0,8,-1,0
1529291966692229,0,0,4,5,3,10,1,-2
1529291966693196,-2,-4,-4,-8,-3,-8,1,-1
1529291966693196,-1,-1,1,-2,-3,1,2,0
1529291966714522,-3,-3,-2,-2,-8,-1,-2,-1
1529291966714522,0,1,0,-3,-1,8,-1,0
1529291966715363,0,-3,0,-5,-3,-2,-3,-2
1529291966715363,-1,0,1,-2,0,2,-3,-1
1529291966729542,1,2,2,3,2,0,1,3
1529291966729542,-2,0,1,7,-3,-1,0,-1
1529291966730665,0,3,2,5,0,0,0,0
1529291966730665,-1,0,-1,2,-2,-1,-2,-1
1529291966751616,2,1,0,2,-2,-5,0,-2
1529291966751616,0,-2,-2,-1,-2,-3,-1,-3
1529291966752478,0,-2,-1,-2,-3,4,1,1
1529291966752478,-1,-2,-5,-5,-1,1,0,-1
1529291966774831,-2,-2,-3,3,4,-8,-5,0
1529291966774831,1,0,0,7,3,2,-2,0
1529291966774831,-1,0,2,10,3,-3,-5,-4
1529291966774831,-3,-3,0,-2,-3,2,0,1
1529291966789807,-2,0,-1,0,-2,-5,2,0
1529291966789807,-2,1,-2,-3,-2,-1,1,2
1529291966790775,-2,1,-3,-8,-3,-10,2,0
1529291966790775,1,1,0,5,3,-5,2,-3
1529291966811763,-1,2,-3,-5,-2,0,0,-4
1529291966811763,-3,-2,-1,-4,-5,-1,-1,-3
1529291966812600,-4,0,-2,-1,-2,-7,-1,-2
1529291966812600,-3,-2,-1,-3,2,-1,-1,-2
1529291966842663,1,-2,-1,-4,-3,1,0,0
1529291966842663,1,-1,-1,-2,-2,-8,-1,-3
1529291966843525,-1,-1,-2,2,-2,-1,-3,-2
1529291966843525,-1,-1,0,-3,-3,-6,-5,-1
1529291966849659,0,0,0,2,0,-2,-4,0
1529291966849659,-1,1,0,-5,0,-3,-2,1
1529291966850657,0,1,1,0,0,0,-1,0
1529291966850657,-2,1,0,2,0,0,-2,-4
1529291966871808,-3,-2,0,-2,-3,1,-1,-3
1529291966871808,-2,-1,-2,-2,-3,1,-1,-1
1529291966872661,-1,-3,-1,-4,-1,-2,-2,-3
1529291966872661,0,-1,-1,-1,-2,4,-3,-1
1529291966894624,-1,0,2,1,1,-2,-2,-2
1529291966894624,-1,-1,-2,-3,-4,-6,-2,-2
1529291966895588,1,-1,-1,-2,-2,-2,-2,-2
1529291966895588,0,-1,1,-2,-3,-4,1,1
1529291966908979,0,-3,-2,-1,-1,-3,1,0
1529291966908979,-2,-1,-3,-2,3,16,2,0
1529291966909976,-2,0,-1,-2,-1,0,1,2
1529291966909976,-1,0,0,0,-1,-2,-1,-1
1529291966932057,-2,-1,-2,-2,-2,6,-3,-2
1529291966932057,1,-4,1,3,-3,6,0,-2
1529291966933056,-3,-3,-2,-3,2,-6,0,-1
1529291966933056,-2,-4,-4,0,1,3,1,0
1529291966954118,-1,-1,-1,-3,1,2,-1,-1
1529291966954118,0,-1,-1,-5,-1,2,-1,-1
1529291966955075,0,-2,-3,-2,-1,1,-2,-3
1529291966955075,-1,-2,0,-2,-2,-3,-1,-1
1529291966969028,-1,-1,1,1,-2,-7,1,-1
1529291966969028,-2,-2,1,-2,-1,-5,-1,0
1529291966970032,2,-1,-2,0,-2,-8,-1,-1
1529291966970032,1,0,-3,0,-1,-8,0,-1
1529291966992101,1,-1,-2,0,-5,0,0,-1
1529291966992101,1,0,-2,0,-2,-5,0,2
1529291966993100,-3,-1,1,4,0,-10,0,1
1529291966993100,-6,-1,-1,-1,-1,1,0,1
1529291967014046,-3,-1,0,0,1,-2,-3,-1
1529291967014046,-1,-2,0,-1,2,-5,-2,1
1529291967014948,1,-1,-1,-1,0,-1,-1,0
1529291967014948,0,-1,-4,-3,-2,-2,-1,-1
1529291967029913,0,1,-1,-1,-1,-10,1,-1
1529291967029913,-2,0,-2,-1,-2,2,-2,-1
1529291967029913,-3,-3,-1,0,-1,0,-1,-3
1529291967029913,0,-2,-1,2,0,5,-4,-1
1529291967052187,-3,-3,-2,4,-3,7,-4,-1
1529291967052187,-1,-1,0,-3,-1,4,-2,-4
1529291967053069,-1,-2,-1,-2,-4,3,-1,-3
1529291967053069,-2,-2,-1,-5,-3,2,1,-1
1529291967074304,-1,0,-1,-3,-1,1,0,1
1529291967074304,1,0,-2,-1,-3,-6,1,1
1529291967075159,1,0,-2,-2,1,1,1,0
1529291967075159,-1,0,1,0,3,2,0,-2
1529291967089221,-1,0,-3,-2,1,2,0,-1
1529291967089221,-3,0,-2,1,2,6,1,-3
1529291967097242,0,0,0,1,-2,-4,-3,-2
1529291967097242,-2,0,0,0,-4,-5,-1,1
1529291967112202,0,0,-2,-1,-1,0,-1,-2
1529291967112202,0,-2,-2,0,-2,-4,-1,-3
1529291967113196,-1,-1,-3,0,0,3,1,-3
1529291967113196,0,-1,-2,-1,1,1,0,-1
