timestamp,emg1,emg2,emg3,emg4,emg5,emg6,emg7,emg8
1528440092208995,-1,-1,0,1,-1,0,-1,0
1528440092208995,0,-2,-1,-1,0,-1,-1,-1
1528440092209992,1,-1,-2,-2,0,-1,0,-1
1528440092209992,1,-1,-1,-2,0,-1,0,0
1528440092210990,0,0,-2,-2,-2,0,1,0
1528440092210990,-1,1,0,0,0,0,-1,0
1528440092211987,-2,0,0,-1,0,0,-2,-1
1528440092211987,-1,-2,-1,-2,0,0,-2,-1
1528440092220965,1,-1,-1,-1,2,0,0,-1
1528440092220965,0,-1,-1,-2,0,0,-2,0
1528440092230937,-1,-1,1,-2,-1,0,0,-1
1528440092230937,0,0,-1,-1,0,-1,0,0
1528440092237917,-1,-2,0,0,0,-2,-1,-1
1528440092237917,-2,-2,1,0,-1,-1,-1,-1
1528440092252876,0,-1,-1,0,-1,-1,-1,-1
1528440092252876,-1,0,-2,0,-2,0,0,0
1528440092260855,0,-1,-1,0,-1,-1,-1,-1
1528440092260855,-1,0,-1,-1,-1,0,0,0
1528440092265842,0,1,-2,0,-2,-1,-2,-1
1528440092265842,-1,-1,-2,-1,0,-1,-1,-2
1528440092280802,-1,0,0,-2,-1,1,1,1
1528440092280802,-2,-1,-1,0,0,-1,-2,-1
1528440092289779,-1,-1,0,-1,-1,0,0,0
1528440092289779,1,0,-1,0,0,-1,0,1
1528440092329671,-1,-1,0,-1,-2,0,0,-1
1528440092329671,0,0,-2,-1,-1,-1,-1,-1
1528440092330720,-1,-2,0,0,-2,0,-1,0
1528440092330720,0,0,-1,-2,0,-1,-1,0
1528440092331666,-1,-1,1,-1,-1,0,-1,0
1528440092331666,-1,-3,0,0,0,-1,0,-1
1528440092334710,-1,-1,-2,1,-2,-2,0,0
1528440092334710,-1,1,0,-2,0,0,0,-1
1528440092340691,-1,0,-2,-2,-1,0,-1,-1
1528440092340691,-1,0,-1,0,0,0,-2,-2
1528440092348677,0,0,1,-2,0,-2,-1,-1
1528440092348677,0,-1,0,1,1,-1,-1,0
1528440092358652,0,-1,-1,0,0,0,-1,-1
1528440092358652,-2,0,1,0,-1,1,0,-1
1528440092371569,0,-1,0,0,0,0,1,-2
1528440092371569,1,-1,0,0,-1,-2,-2,-1
1528440092378542,1,-1,-1,0,0,-1,0,-1
1528440092378542,1,0,0,-2,-1,0,-1,1
1528440092385524,-2,0,-1,-1,-1,0,-2,-1
1528440092385524,-2,-1,-3,0,-2,-1,-2,-1
1528440092409511,-1,0,1,-1,-1,-2,1,0
1528440092409511,1,0,-2,-2,0,-2,0,0
1528440092410456,0,1,-2,0,0,0,-1,0
1528440092410456,-2,-1,-1,-1,0,-1,0,0
1528440092417437,0,-2,-1,0,0,0,-2,-1
1528440092417437,-2,0,-1,0,-1,-1,-1,-1
1528440092431451,1,-1,1,-2,1,-2,0,0
1528440092431451,1,-1,-2,1,-1,2,-1,0
1528440092438437,1,-1,0,-1,0,0,-1,0
1528440092438437,0,-1,2,0,-1,0,-1,0
1528440092446397,0,-1,0,-1,-2,0,0,0
1528440092446397,-1,-2,1,-2,-1,-1,-1,-3
1528440092461320,-1,0,-2,-1,-1,-1,-1,1
1528440092461320,-1,-2,-1,0,-1,-2,1,0
1528440092468340,-1,0,0,-1,-1,-1,0,-1
1528440092468340,0,0,1,0,-2,-1,0,2
1528440092477278,-1,-1,-1,0,-2,-2,-2,0
1528440092477278,0,-1,-2,0,-2,0,-2,-1
1528440092491267,-2,0,-3,1,0,-1,0,-1
1528440092491267,-1,-1,-2,0,-1,-1,0,-1
1528440092498276,-1,0,0,-1,-1,1,0,-1
1528440092498276,1,0,0,0,0,-1,-1,0
1528440092506229,1,-2,1,0,-2,-1,-1,-1
1528440092506229,-2,0,0,0,-2,0,0,-2
1528440092521159,0,1,0,-1,-2,-4,-2,-1
1528440092521159,-1,0,-1,-2,-1,1,-1,-2
1528440092528140,-2,-2,-2,-1,0,-1,-2,-1
1528440092528140,-1,0,-3,0,2,-1,0,0
1528440092537117,-2,-1,-2,0,1,1,1,0
1528440092537117,-1,-2,-1,-2,-1,-2,0,0
1528440092552121,-1,-1,-1,-1,1,0,-1,1
1528440092552121,0,-1,1,-2,0,0,0,0
1528440092558061,-3,-3,0,0,0,0,1,-1
1528440092558061,0,0,0,-3,-2,-1,0,-1
1528440092566040,0,0,0,0,-1,0,-2,0
1528440092566040,-1,0,0,-2,-2,-1,-1,-2
1528440092581001,1,0,-1,0,0,-1,-1,1
1528440092581001,-1,-2,-1,0,-1,0,-1,-1
1528440092588978,0,-1,-1,0,-1,-1,-2,-1
1528440092588978,-2,0,0,0,0,0,0,-2
1528440092597998,0,0,-1,0,1,0,0,-1
1528440092597998,-1,0,-3,0,0,-1,-1,-1
1528440092611917,-2,0,-3,-2,-1,-2,-1,-1
1528440092611917,0,-1,-4,-1,-2,-2,-1,0
1528440092618899,0,-2,-2,-2,-2,-1,0,-1
1528440092618899,0,-1,0,-1,1,-1,1,-1
1528440092633911,0,0,1,-1,0,-1,0,-1
1528440092633911,0,0,1,-1,0,-2,0,-2
1528440092640839,-1,0,0,0,0,-2,-2,-2
1528440092640839,-1,1,0,0,1,-1,-1,-1
1528440092657839,0,0,-1,0,-1,-1,0,-1
1528440092657839,-1,-2,-1,-2,-1,-1,0,-2
1528440092658792,0,-1,-2,-1,-2,-1,-1,1
1528440092658792,0,0,-1,1,0,-1,0,1
1528440092671757,-1,-2,-1,0,0,0,1,-1
1528440092671757,-1,-2,-2,-1,-2,1,-1,0
1528440092678746,-2,0,0,0,0,0,-3,-2
1528440092678746,-1,-2,-1,1,1,1,0,0
1528440092694860,-1,-1,-1,-1,0,0,-1,0
1528440092694860,0,-1,0,0,0,0,1,-1
1528440092700679,0,0,-1,-1,-1,1,0,0
1528440092700679,-1,-1,0,-2,-3,1,0,-2
1528440092708659,1,0,0,1,0,0,1,-1
1528440092708659,1,-1,0,-1,0,0,-1,0
1528440092717635,0,0,-1,1,-1,0,2,-1
1528440092717635,-2,0,-1,0,-1,0,-1,-2
1528440092731597,-3,-1,-2,1,-2,0,-3,0
1528440092731597,-1,1,1,-1,-1,0,-1,0
1528440092738578,-2,-1,1,0,-1,0,1,-1
1528440092738578,-1,-2,0,0,0,-1,0,0
1528440092754537,-1,1,-2,0,0,0,0,0
1528440092754537,-3,1,-1,-1,0,0,0,-3
1528440092769510,1,0,-1,-2,-1,-1,0,-1
1528440092769510,0,2,-1,-1,-1,-1,1,1
1528440092769510,1,-1,0,0,-1,0,-2,0
1528440092769510,1,-2,-2,2,1,-1,1,1
1528440092777475,1,1,-1,0,-1,-2,0,-2
1528440092777475,1,-1,-1,1,-3,1,0,1
1528440092791439,-1,0,0,-1,0,0,0,-1
1528440092791439,-1,0,0,0,0,-1,-1,-1
1528440092798420,-2,-2,-1,0,-1,-3,0,-1
1528440092798420,0,-3,0,0,1,-1,-1,-1
1528440092814377,-1,0,-1,-3,0,-1,0,0
1528440092814377,0,-1,0,-1,-1,-1,0,0
1528440092821358,-1,0,-2,-2,0,-1,-1,-1
1528440092821358,0,0,0,0,-1,0,-1,-2
1528440092828338,-1,0,0,-1,-1,0,-1,-1
1528440092828338,0,-1,-2,-1,-1,-2,-1,-1
1528440092837315,-2,0,-1,-1,0,0,0,1
1528440092837315,2,0,0,-1,-1,-1,0,-1
1528440092851278,-1,-2,1,-1,-1,-1,-1,-1
1528440092851278,1,0,-2,-1,-1,-1,-2,0
1528440092858258,-1,-2,1,0,-1,0,-2,1
1528440092858258,0,1,0,-1,0,0,-1,1
1528440092874216,0,0,-1,0,-2,-1,0,0
1528440092874216,-1,0,0,0,0,1,0,0
1528440092881198,-2,-1,0,-1,0,-1,0,-1
1528440092881198,-2,-1,-1,-3,-1,-1,-1,1
1528440092888217,1,-1,0,-2,1,-1,-2,-1
1528440092888217,0,0,-1,-1,-1,0,0,1
1528440092897207,2,-1,-1,-1,0,0,-1,-1
1528440092897207,-1,1,-1,-1,0,-2,0,0
1528440092912167,-3,-1,-1,1,-1,0,0,-2
1528440092912167,-2,-1,0,0,-2,0,-1,0
1528440092918099,-1,1,0,-1,-1,-1,1,-1
1528440092918099,-2,1,0,0,0,-1,1,-1
1528440092934056,1,-1,-1,-2,0,0,0,0
1528440092934056,-1,0,-1,-2,0,-1,-1,-1
1528440092941038,-1,0,0,0,-2,-1,-1,1
1528440092941038,0,-1,2,-2,0,0,-2,-1
1528440092949016,0,1,0,0,1,0,1,-1
1528440092949016,-2,1,0,-1,-2,-1,-1,-1
1528440092963976,-2,-1,-1,0,0,-2,-2,0
1528440092963976,-1,-1,-3,0,-1,-2,0,-1
1528440092972007,-1,-1,-1,-2,0,-1,0,0
1528440092972007,-1,-2,0,-1,0,1,-1,0
1528440092977991,1,-1,1,0,0,0,1,-2
1528440092977991,-1,-2,-2,-1,-1,1,-1,-2
1528440092993897,-2,-1,-2,2,-2,-1,0,0
1528440092993897,-1,1,-1,0,-1,-2,1,0
1528440093000878,-1,-1,-2,0,-3,0,1,-1
1528440093000878,0,0,-1,-2,0,0,0,-1
1528440093008857,0,-1,0,-1,-1,1,-1,0
1528440093008857,2,-1,0,-1,0,-2,-1,0
1528440093024814,0,0,-1,1,0,0,-1,1
1528440093024814,0,-1,0,0,1,-2,0,-1
1528440093031796,0,-1,1,1,-2,-1,-1,-2
1528440093031796,0,-1,0,-1,0,0,-1,0
1528440093038777,-2,0,-1,-2,0,0,0,-1
1528440093038777,-2,-1,0,0,-1,-1,0,1
1528440093053737,-2,0,-1,-1,0,-1,-1,1
1528440093053737,-1,-2,-2,1,-2,0,1,-1
1528440093060718,1,-2,-1,-1,0,-1,0,0
1528440093060718,-1,1,-1,0,0,0,-1,1
1528440093068697,0,-2,0,0,-1,0,0,-3
1528440093068697,0,0,0,1,0,0,0,1
1528440093083657,-1,-2,-1,0,-1,-1,0,0
1528440093083657,-1,-1,-1,-1,-1,-1,-1,0
1528440093091636,-2,-1,0,-1,0,0,0,1
1528440093091636,-2,0,0,0,0,0,0,0
1528440093098617,0,0,0,-2,-1,0,-1,0
1528440093098617,0,-2,1,0,0,-1,-2,-2
1528440093114574,0,1,0,-1,-2,-1,-2,-1
1528440093114574,1,-2,0,-1,0,0,-1,-1
1528440093120558,-2,-1,-2,-1,-2,-2,0,-2
1528440093120558,0,0,-2,0,-1,0,-1,0
1528440093128537,1,-1,-1,-1,-1,-1,-1,-2
1528440093128537,1,-1,0,1,1,-1,0,0
1528440093143497,1,-1,0,-1,-1,-1,-1,0
1528440093143497,1,0,1,1,-1,-1,0,0
1528440093151477,-1,0,-2,-2,0,-1,-1,0
1528440093151477,-1,-2,-2,-1,-1,0,0,-1
1528440093158458,-1,-1,-1,0,1,-1,-1,-1
1528440093158458,-2,-1,-2,0,-2,-1,-1,-1
1528440093182701,-1,-1,-3,1,-1,0,0,-2
1528440093182701,0,1,-3,-3,-2,-1,0,-1
1528440093183689,0,0,0,-1,-1,1,-1,1
1528440093183689,0,0,-1,-1,1,-1,-1,0
1528440093188946,-1,-2,2,-1,-1,-1,1,0
1528440093188946,-1,-1,1,0,0,1,-1,0
1528440093212874,0,1,0,-1,-1,-1,0,-1
1528440093212874,0,-1,-1,-3,-1,0,0,0
1528440093213906,0,1,-1,-1,0,0,-1,-1
1528440093213906,-1,1,0,-1,-1,0,-2,-1
1528440093218854,-1,0,-1,0,0,0,0,-1
1528440093218854,-1,-1,-1,-1,0,0,1,0
1528440093234859,-1,-2,0,-1,0,-1,0,-1
1528440093234859,1,0,-1,0,0,-1,0,1
1528440093241748,0,1,-1,0,1,-1,0,-1
1528440093241748,-3,-1,-2,0,-1,-1,-2,-2
1528440093248796,1,-2,0,-1,0,-1,1,0
1528440093248796,1,-2,-2,-1,-1,1,-1,-2
1528440093263475,-1,-1,0,-2,-1,0,0,-1
1528440093263475,0,0,1,0,-1,-2,0,-1
1528440093271718,0,0,0,-1,-1,0,-1,0
1528440093271718,-1,0,-2,-1,0,-2,-2,0
1528440093278701,-1,-1,-4,1,0,-1,0,-1
1528440093278701,0,-1,-3,0,-1,0,-1,0
1528440093309653,0,0,-2,-1,-1,0,-3,1
1528440093309653,-2,-1,3,-1,0,-1,0,0
1528440093311650,-1,-1,2,0,-2,1,0,-2
1528440093311650,1,-1,3,-1,-1,0,0,0
1528440093316636,-1,0,2,-1,-1,-2,-1,0
1528440093316636,1,0,-1,1,0,-1,0,0
1528440093323618,0,-1,-1,-1,0,0,-2,1
1528440093323618,1,0,-1,1,-1,1,-1,-1
1528440093339575,0,0,-2,0,-1,0,-1,-2
1528440093339575,-1,0,-1,-1,0,-1,0,-2
1528440093341571,-1,-1,-2,0,0,0,-2,0
1528440093341571,-1,-2,-1,-1,-1,-2,0,0
1528440093354535,-1,-2,1,-1,-1,0,0,-1
1528440093354535,-2,-2,1,0,-1,-1,-2,0
1528440093361517,-1,-1,0,-1,0,-1,1,-1
1528440093361517,-1,0,-2,-1,0,-2,-1,0
1528440093377301,0,0,-2,1,-1,-1,-2,-1
1528440093377301,0,-2,0,-2,-3,-1,1,0
1528440093384011,-1,-2,0,-1,-2,0,-1,-2
1528440093384011,0,0,-1,-1,-2,-1,-3,0
1528440093400210,-1,-1,-1,-1,-2,0,-1,0
1528440093400210,0,0,-3,-1,1,-2,-1,-1
1528440093401474,-1,0,-3,-2,0,-1,-1,0
1528440093401474,-3,-1,-3,-2,1,-1,0,0
1528440093415037,0,-1,-3,-1,0,-1,-1,0
1528440093415037,0,0,-2,-1,0,1,0,-2
1528440093421363,-2,-1,-1,-1,-2,-2,0,1
1528440093421363,1,-1,0,0,0,0,0,-1
1528440093437125,-2,-1,0,1,0,-2,-2,-1
1528440093437125,-1,1,-3,-1,-2,-1,0,-1
1528440093444106,0,0,0,-1,0,-1,0,-1
1528440093444106,0,-3,-1,-1,-1,1,-2,-1
1528440093460069,-1,1,-2,0,0,1,-2,-1
1528440093460069,0,0,1,0,0,-1,-1,0
1528440093461801,1,0,-2,-2,-2,0,-1,0
1528440093461801,0,-2,0,-1,0,0,1,1
1528440093474900,-2,-2,-1,-2,-1,1,-1,-1
1528440093474900,-2,-1,-2,-2,0,-1,-2,0
1528440093481442,-1,-1,-2,0,1,-1,0,-1
1528440093481442,0,0,-2,-1,-2,0,0,1
1528440093497434,-2,0,0,-1,-2,-1,0,-1
1528440093497434,-1,-1,-1,-1,0,-1,-1,1
1528440093503655,0,-2,-1,1,0,-2,-2,-1
1528440093503655,1,0,-1,-1,-2,-2,-1,0
1528440093520609,0,-3,-2,1,0,0,0,0
1528440093520609,-1,-1,-1,-1,0,1,1,-2
1528440093521343,0,-1,0,0,0,-1,0,1
1528440093521343,-2,-1,0,-1,-1,0,0,-1
1528440093534564,0,-1,-1,-1,-1,-3,-1,0
1528440093534564,0,0,-1,-1,0,0,-2,1
1528440093541733,0,0,0,-1,-1,-1,-2,0
1528440093541733,0,0,1,0,-1,-2,0,-1
1528440093556848,1,-1,0,-2,0,-1,0,-2
1528440093556848,0,0,-1,1,-2,1,-1,-2
1528440093563861,-1,-1,0,-1,0,2,0,0
1528440093563861,-1,0,0,1,-1,-1,0,-1
1528440093579789,-2,0,1,0,0,0,-1,-1
1528440093579789,0,-1,0,-1,0,-1,0,0
1528440093586178,0,0,2,0,-2,0,-2,-1
1528440093586178,0,0,-1,-2,0,1,0,-1
1528440093593749,0,-1,-2,-1,-2,-1,0,-1
1528440093593749,-1,-2,-1,0,-1,-1,-2,-1
1528440093608713,0,3,-1,-1,-1,-1,-1,-1
1528440093608713,0,-1,-1,-2,0,-1,-1,-1
1528440093616687,1,0,-1,-2,0,0,0,0
1528440093616687,0,-1,-2,-1,-2,-1,1,-2
1528440093623912,-1,-1,-1,1,-1,0,1,2
1528440093623912,-1,-1,-3,-1,-1,-1,-2,-1
1528440093639931,-3,-1,-1,-1,0,-1,-1,0
1528440093639931,-1,-2,-2,0,0,-2,-1,-1
1528440093641928,0,-1,-1,-1,2,0,0,-1
1528440093641928,-1,2,-1,0,1,-3,-2,0
1528440093654287,-2,1,0,0,-1,-1,1,-1
1528440093654287,-1,-1,0,-1,-2,0,-1,0
1528440093662590,-1,0,-1,-1,-2,0,-1,-1
1528440093662590,0,-1,0,1,0,0,0,0
1528440093677572,1,-1,1,-1,-1,-1,0,0
1528440093677572,-1,0,-2,0,0,-1,1,-2
1528440093683341,0,-1,-2,-1,0,-1,-1,-1
1528440093683341,-2,-1,1,-1,0,0,0,0
1528440093700535,0,0,-2,0,0,0,-2,-2
1528440093700535,0,-1,3,-2,0,0,-1,0
1528440093701511,0,-1,1,-1,0,-1,-2,1
1528440093701511,1,-2,-1,-1,-1,-2,0,-2
1528440093713936,0,1,-1,-1,-1,0,-2,0
1528440093713936,-1,-1,-2,-2,-1,1,0,-1
1528440093722510,0,-3,-1,-1,0,-1,0,1
1528440093722510,-3,0,-1,0,0,-2,0,-1
1528440093737547,0,-1,0,-1,-1,0,-1,0
1528440093737547,0,0,1,1,0,-2,-2,-1
1528440093743896,0,-1,0,-1,-1,0,-1,0
1528440093743896,1,0,-3,0,0,0,0,0
1528440093766827,0,-1,-1,-1,0,-1,1,-1
1528440093766827,-2,-1,-1,-1,-2,0,1,-1
1528440093768081,0,-2,-1,-3,1,0,-2,-3
1528440093768081,0,0,-1,-2,-1,1,-1,-1
1528440093782068,-1,-2,-2,-2,0,-1,0,0
1528440093782068,1,1,-1,0,1,0,0,0
1528440093782785,1,-1,-2,-1,-2,-1,1,-2
1528440093782785,-1,1,-1,-1,-2,-1,-1,2
1528440093797744,-2,1,-1,0,0,-1,0,-1
1528440093797744,0,-1,0,-3,0,-2,0,0
1528440093803971,-1,1,-2,0,-1,0,-1,0
1528440093803971,0,-3,0,-1,0,0,-2,-1
1528440093819268,0,-1,-1,0,0,-1,-2,0
1528440093819268,-2,0,-1,0,-1,-1,-1,0
1528440093819998,-2,2,1,-2,-1,-3,-1,-2
1528440093819998,-1,-1,1,0,0,-1,1,1
1528440093842295,-1,-1,1,-1,-2,0,-1,-1
1528440093842295,0,-1,-1,0,0,0,0,-1
1528440093842928,-1,-1,0,1,-3,-1,0,-1
1528440093842928,1,-1,-1,-2,-2,-2,1,-1
1528440093864364,-1,-2,-1,-1,0,0,-1,-1
1528440093864364,2,-2,-1,0,-1,-2,-1,0
1528440093865121,0,-1,-2,0,0,0,0,-2
1528440093865121,-1,-1,-2,-1,-1,-1,-3,-1
1528440093887430,0,-2,-1,0,-1,0,-2,-1
1528440093887430,-1,-1,-1,0,-1,1,-3,-2
1528440093887430,-1,0,-1,-1,1,1,0,1
1528440093887430,-2,0,-1,0,1,0,0,0
1528440093901726,1,1,-1,0,-2,0,0,-2
1528440093901726,-1,0,-1,-1,0,-1,-1,-1
1528440093902725,0,-1,-1,-1,-1,0,-2,-1
1528440093902725,-1,0,1,-2,-1,-1,0,-1
1528440093917706,0,0,1,1,1,-1,0,0
1528440093917706,0,0,0,1,0,0,0,0
1528440093923669,-2,0,1,1,-2,0,0,1
1528440093923669,-1,-1,-1,0,-1,1,0,-1
1528440093938907,-1,-1,0,-1,-1,-1,0,0
1528440093938907,0,-1,-2,-1,-1,-2,0,0
1528440093946115,0,-1,-1,0,-1,0,-1,-1
1528440093946115,-1,-2,-4,0,-3,1,-1,-1
1528440093961852,0,-1,-3,1,0,-1,1,-1
1528440093961852,-2,0,-4,-1,0,1,1,0
1528440093962849,-2,-1,0,-1,2,0,-1,-1
1528440093962849,0,-1,0,-2,0,-1,-1,-1
1528440093977806,-1,0,-1,-1,-2,-1,-3,0
1528440093977806,-2,-1,0,-2,-2,0,-1,0
1528440093983792,0,-1,0,0,1,-1,-1,-1
1528440093983792,-1,-2,-1,0,1,0,-1,-2
1528440093998782,-1,0,1,0,1,-1,-1,0
1528440093998782,0,1,1,-1,-2,0,0,0
1528440094005734,1,-1,1,-2,-2,-3,0,0
1528440094005734,-1,1,1,-1,-1,-2,0,0
1528440094021928,0,1,-1,0,0,1,1,0
1528440094021928,0,-1,-1,1,-1,-2,-1,-1
1528440094022686,0,0,-1,-1,-1,0,-2,-2
1528440094022686,0,0,0,-1,0,-1,-2,0
1528440094045708,0,-1,-2,-2,-1,-1,0,1
1528440094045708,-1,-1,-1,-2,1,-1,-1,0
1528440094046623,-4,-2,-2,2,-2,1,1,-3
1528440094046623,-1,-1,-1,0,0,-1,-1,-2
1528440094058834,0,-1,-1,-2,-1,-1,-1,-1
1528440094058834,1,0,0,-1,-1,0,0,0
1528440094065900,1,0,-2,-4,0,1,0,1
1528440094065900,-1,0,0,0,-2,1,0,-1
1528440094081466,-1,0,0,-1,0,-1,0,-2
1528440094081466,-1,-2,-1,-1,0,-1,-1,0
1528440094082482,-1,-1,-2,0,0,-2,-1,-1
1528440094082482,1,-1,0,1,0,0,0,1
1528440094097425,-1,-1,0,-2,0,-1,-1,1
1528440094097425,-3,-2,0,0,-2,-2,1,-1
1528440094103413,-1,-1,1,-1,-1,0,-1,-2
1528440094103413,-1,-1,1,-1,0,-2,-1,-1
1528440094119192,-1,-1,-1,0,-1,-1,-1,0
1528440094119192,0,1,-1,0,-3,0,-2,-2
1528440094126239,-1,0,-1,0,-1,-2,0,0
1528440094126239,0,0,-1,0,-2,1,-2,-1
1528440094141778,1,0,0,0,1,0,-1,0
1528440094141778,-1,0,0,0,0,-2,0,-1
1528440094142790,-1,-2,0,0,-1,1,0,0
1528440094142790,1,0,0,-1,-2,0,-1,-1
1528440094165712,-1,-1,1,0,-1,-1,0,0
1528440094165712,0,-1,-1,1,0,-1,0,0
1528440094166713,-1,0,-1,-1,-2,-1,0,-1
1528440094166713,0,-1,1,0,-1,-1,-1,0
1528440094178690,-2,-2,-2,1,0,0,0,-2
1528440094178690,0,-2,-2,-1,-2,-1,-1,-2
1528440094185657,1,-1,-2,0,1,-2,-1,-1
1528440094185657,-2,-2,-3,-2,-1,0,0,-1
1528440094201615,0,0,0,0,-1,-2,-1,-1
1528440094201615,-1,0,0,-2,0,1,-2,0
1528440094202614,0,-1,1,-1,-1,-1,-1,-1
1528440094202614,-1,0,-1,-1,0,-1,1,0
1528440094217574,-1,-1,-1,1,0,0,0,0
1528440094217574,-2,0,0,0,0,-1,-1,0
1528440094223599,-1,-1,0,-1,0,0,0,-1
1528440094223599,1,1,-1,-1,0,-1,-1,0
1528440094238568,1,-1,-2,-1,-4,-1,-1,0
1528440094238568,-1,0,0,0,1,0,-1,-2
1528440094245498,-1,1,-1,-1,-1,0,-2,0
1528440094245498,-1,-2,0,-1,1,-1,0,-2
1528440094261481,-2,-1,0,-2,-2,-1,0,0
1528440094261481,1,0,0,1,-1,0,0,-1
1528440094262453,-1,-1,1,0,-2,-1,0,0
1528440094262453,-1,2,-1,0,-1,-1,-1,0
1528440094277412,-1,1,-2,-1,0,1,-3,0
1528440094277412,-1,-1,0,-3,-1,-1,-1,0
1528440094283413,0,0,-1,-1,0,0,0,0
1528440094283413,0,-1,2,0,-2,0,-1,0
1528440094298412,-1,0,0,0,-1,-1,0,-2
1528440094298412,-2,0,-1,0,0,-2,-1,2
1528440094306335,0,-1,-1,-1,0,-1,-2,1
1528440094306335,-1,-2,-2,2,-2,0,-2,0
1528440094329298,0,0,1,-1,-1,-1,0,-3
1528440094329298,0,-1,1,-1,-1,-1,-1,-2
1528440094330290,0,0,1,-1,-2,-1,-1,0
1528440094330290,1,-2,0,-1,0,-1,-1,1
1528440094337272,0,-1,-1,-1,0,0,0,0
1528440094337272,-1,-3,-1,-2,-1,0,-1,-2
1528440094343237,-1,0,-1,0,-1,0,0,-1
1528440094343237,-1,0,1,-2,-1,0,0,-2
1528440094358249,-2,-2,0,0,-1,-1,0,1
1528440094358249,0,-1,2,-1,-1,-1,-1,-1
1528440094366175,0,0,-2,1,0,1,0,0
1528440094366175,-2,-2,-1,0,-1,-1,-1,-1
1528440094383130,-1,0,0,-1,-1,0,-2,1
1528440094383130,-1,0,-1,0,-1,-1,-1,0
1528440094384131,0,-3,-1,-1,0,-2,0,-1
1528440094384131,-3,-1,-2,-1,-1,0,0,-1
1528440094397151,-1,-1,-1,-1,-1,-1,-1,-2
1528440094397151,-2,-2,0,-1,-1,0,0,1
1528440094411100,-1,1,-2,-1,-2,-1,-2,-1
1528440094411100,0,1,-3,-1,0,-2,0,-1
1528440094420031,1,-1,-2,0,0,-2,-1,0
1528440094420031,-2,-1,-2,-1,2,-1,0,-2
1528440094426068,-2,-2,-1,-1,1,-1,0,-1
1528440094426068,-1,0,-1,-1,0,0,1,0
1528440094442971,-3,0,0,0,-1,-2,-1,-1
1528440094442971,1,1,-2,-1,-1,-1,0,-1
1528440094443968,0,-2,0,0,0,0,-2,0
1528440094443968,0,1,-1,-1,-1,-1,-1,-1
1528440094463966,1,-1,-2,-1,0,0,0,-2
1528440094463966,-2,-1,-1,0,-1,-1,-1,1
1528440094464912,0,0,-1,-1,-1,-2,-1,-2
1528440094464912,-2,-2,1,-1,0,-1,-2,0
1528440094478926,0,0,-1,0,-1,-2,0,-1
1528440094478926,-3,-1,-2,0,0,-1,0,1
1528440094493847,-1,0,0,-1,0,-1,-1,1
1528440094493847,0,0,1,-1,2,0,0,-1
1528440094501812,-2,1,0,1,-2,-2,-2,-1
1528440094501812,1,-1,0,1,-1,0,-1,-2
1528440094502810,-2,0,0,1,-2,-1,0,-1
1528440094502810,0,-2,-1,-2,-1,-1,0,-1
1528440094517063,0,-1,0,-1,0,1,1,0
1528440094517063,1,1,0,-1,-1,0,-1,-1
1528440094524148,0,-1,-1,0,0,0,0,-1
1528440094524148,0,-1,0,-1,-1,0,-1,-2
1528440094538342,0,-2,0,-1,-1,-1,0,0
1528440094538342,-2,-1,0,-1,0,0,0,-1
1528440094546202,0,-1,-1,-2,-1,0,-1,-1
1528440094546202,-1,-1,-1,-1,-1,-2,-2,-2
1528440094563096,1,-1,-2,-1,1,-1,-1,0
1528440094563096,1,-1,0,-2,0,-1,-1,1
1528440094564011,0,-1,0,-1,-1,-1,1,0
1528440094564011,0,-2,1,0,0,0,-2,1
1528440094577474,1,-1,0,0,0,0,-2,0
1528440094577474,0,1,-1,1,0,1,-1,1
1528440094583481,-2,-1,-2,-1,-2,-1,-1,-1
1528440094583481,-1,0,-3,0,-1,0,-1,0
1528440094598788,-1,-1,0,0,-1,0,1,0
1528440094598788,1,0,-1,1,-2,0,0,-1
1528440094606435,-1,1,-1,0,0,-1,-1,-1
1528440094606435,-1,0,0,1,0,-1,-1,0
1528440094621363,-1,-3,-2,-1,-1,-1,0,-1
1528440094621363,0,0,-3,-1,0,-2,-2,-1
1528440094628659,-1,0,-4,1,0,-2,-1,-2
1528440094628659,-1,1,-2,-1,-2,0,1,-1
1528440094637316,-1,0,2,0,0,0,1,0
1528440094637316,-2,0,1,-1,-1,-1,1,-1
1528440094643554,-1,-2,0,0,-1,-1,-1,-1
1528440094643554,-1,1,-1,1,0,0,-1,-1
1528440094660547,-1,-1,-2,0,0,-1,0,0
1528440094660547,-1,-2,-2,1,-1,-3,-2,1
1528440094666260,0,-2,0,-1,-1,0,-1,0
1528440094666260,1,-1,1,-1,-2,-3,0,-1
1528440094698541,-1,0,0,-1,-1,0,-1,0
1528440094698541,-1,0,-1,-1,1,-1,-1,1
1528440094699164,-1,-2,1,0,0,0,0,0
1528440094699164,-1,-1,-2,-1,-1,-1,-2,-2
1528440094701146,0,0,0,-1,-1,0,-1,-2
1528440094701146,0,-2,1,0,-1,-1,-1,-2
1528440094704336,-1,-1,-1,-1,0,0,-1,0
1528440094704336,-2,0,0,0,-1,0,-1,1
1528440094718363,-2,-2,0,-3,-1,0,-2,0
1528440094718363,0,-1,0,0,0,0,1,-1
1528440094726083,0,0,0,-1,1,0,-2,-1
1528440094726083,0,-1,0,0,-1,-1,0,0
1528440094742307,-1,-1,-2,-1,-1,0,-1,-1
1528440094742307,0,0,-2,-1,-2,-1,1,-1
1528440094743184,-1,0,-2,0,-1,-2,0,-1
1528440094743184,-1,-2,-2,0,0,0,-1,-2
1528440094758197,-1,-1,-2,1,-1,-1,-1,0
1528440094758197,-1,-2,-1,-1,-2,-2,-1,-1
1528440094764248,0,-2,0,1,-2,-1,1,0
1528440094764248,0,-3,-2,0,-1,0,-1,-1
1528440094779206,0,0,1,0,-1,0,-1,0
1528440094779206,-1,-1,0,-1,0,-1,-2,-1
1528440094785973,-1,-2,-1,-2,1,-2,1,1
1528440094785973,-2,1,1,-1,0,0,-2,0
1528440094802925,0,-1,-2,0,-1,-1,-1,-1
1528440094802925,0,0,1,0,0,-1,1,-1
1528440094803875,0,0,-1,-2,-2,-1,0,-2
1528440094803875,-1,-1,-1,0,-1,0,-1,-1
1528440094817834,-2,-1,-1,0,-2,-1,-1,-1
1528440094817834,0,0,0,-2,0,-1,0,0
1528440094831989,-3,-1,1,0,-1,-1,0,-1
1528440094831989,-2,-2,0,1,0,1,0,-1
1528440094838778,-2,-1,-1,-1,-1,0,-2,-1
1528440094838778,0,-1,-1,0,-2,0,0,-1
1528440094846858,0,0,-2,-1,-1,0,0,1
1528440094846858,0,0,0,-1,0,0,0,0
1528440094861034,1,-2,0,0,2,-2,-1,-1
1528440094861034,-1,-2,0,-2,-1,-1,0,-1
1528440094869074,1,1,0,-1,-1,-1,-2,-1
1528440094869074,1,0,1,0,-2,-1,-1,-2
1528440094878088,-1,1,-1,-2,-2,-1,0,0
1528440094878088,0,-1,-4,1,0,2,0,0
1528440094884071,-1,-2,-2,-1,-1,0,1,-1
1528440094884071,0,-3,0,-1,-3,-1,0,1
