timestamp,emg1,emg2,emg3,emg4,emg5,emg6,emg7,emg8
1528190154353153,-4,-2,-2,-2,-7,-23,-4,-18
1528190154353153,0,-4,-6,-5,-2,2,12,-5
1528190154354170,0,-7,0,4,-9,-1,-2,-12
1528190154354170,5,9,1,0,11,9,26,36
1528190154357142,-6,7,-1,-2,9,7,8,-7
1528190154357142,-3,-5,-2,2,5,6,-1,-19
1528190154358139,1,0,-1,0,-17,-11,19,23
1528190154358139,-4,-4,-1,-1,4,-5,-32,-29
1528190154365122,1,-1,1,1,0,13,14,28
1528190154365122,-1,6,1,-3,-9,-3,-57,-23
1528190154373125,-8,-11,0,-4,10,-1,-21,-10
1528190154373125,0,1,-3,0,-7,-18,35,-11
1528190154380080,5,4,-3,-4,-32,17,-9,6
1528190154380080,-1,-4,0,0,-6,-16,31,-14
1528190154394042,0,1,-1,2,23,-3,-93,34
1528190154394042,1,0,6,2,16,22,75,21
1528190154405016,-6,-8,-2,0,5,-24,-32,-25
1528190154405016,4,-6,-2,4,-16,-30,10,36
1528190154417979,3,16,-9,-10,-6,22,46,-6
1528190154417979,-9,-18,-5,-4,-19,-27,-35,-19
1528190154424960,-4,-9,-8,-2,14,17,-11,-10
1528190154424960,6,11,8,7,0,-19,-59,2
1528190154439920,-4,-6,-4,4,14,3,25,-9
1528190154439920,3,8,2,-4,-2,-1,8,-12
1528190154441916,-1,-4,3,5,-9,3,-7,11
1528190154441916,-8,-10,-8,-11,1,7,15,-3
1528190154500759,5,0,3,0,-3,0,69,25
1528190154500759,-1,0,-2,-5,-10,-17,-14,-2
1528190154501756,-1,-2,-2,6,14,14,5,-4
1528190154501756,-1,0,1,-2,-3,-3,4,-9
1528190154513725,-3,1,1,2,1,-11,-68,-14
1528190154513725,2,4,2,-3,-1,14,65,17
1528190154523696,-1,-2,6,7,-6,-19,17,-16
1528190154523696,-6,-10,-14,-4,3,22,-14,-4
1528190154524721,1,1,2,-4,0,0,-37,11
1528190154524721,5,7,6,4,-3,-6,28,-21
1528190154524721,3,2,0,0,3,7,14,37
1528190154524721,-2,-6,-2,-4,-15,-24,-6,-3
1528190154525692,-5,0,-5,-2,-2,1,6,-6
1528190154525692,-1,0,-3,-4,5,-8,-31,8
1528190154538658,-2,-2,0,3,0,11,-33,-10
1528190154538658,0,1,-1,-8,-35,-15,0,-2
1528190154544668,2,2,3,4,47,9,12,16
1528190154544668,-2,-1,7,10,17,17,39,-21
1528190154559600,2,0,-1,-5,0,-11,5,14
1528190154559600,1,6,4,4,-17,3,-1,-6
1528190154560598,-7,-6,8,3,-12,-16,-30,-17
1528190154560598,-5,-8,-14,-10,0,2,-34,2
1528190154596502,-1,-4,-4,-5,-12,-9,-15,-20
1528190154596502,3,6,0,5,16,0,8,25
1528190154597499,-3,1,-3,3,-12,10,19,-10
1528190154597499,-1,-5,9,0,19,-5,-47,4
1528190154613456,-1,-3,-13,-2,0,12,41,-19
1528190154613456,6,-1,16,1,-20,2,63,0
1528190154614453,-2,-7,-5,15,-6,-14,-6,5
1528190154614453,-3,1,-4,-37,13,20,-4,0
1528190154628416,1,4,2,28,-25,-14,16,21
1528190154628416,-7,-8,-12,-17,58,0,-43,-38
1528190154629414,5,5,0,-10,-35,-11,31,25
1528190154629414,-2,-11,-16,41,-62,2,8,7
1528190154634427,1,4,2,-24,91,8,-26,-2
1528190154634427,-5,2,2,-2,-2,-9,-15,21
1528190154634427,1,-3,-5,-5,-13,14,7,-27
1528190154634427,-7,-3,1,15,-90,-22,-36,-10
1528190154656342,9,-4,-3,-9,80,27,56,64
1528190154656342,-4,-2,-2,-2,-17,-7,-27,-17
1528190154657339,4,-2,-9,-23,11,-27,29,18
1528190154657339,-8,-1,2,18,-30,-8,-11,8
1528190154679280,-1,8,3,18,-15,-13,-3,-20
1528190154679280,3,-9,-4,-9,11,41,5,-11
1528190154686262,-12,-3,4,3,-12,-23,-46,-12
1528190154686262,2,-4,-3,-8,32,24,34,19
1528190154702221,2,3,1,-4,-44,12,24,-20
1528190154702221,-4,-8,-12,-12,28,-6,-21,10
1528190154703217,0,0,-5,2,-12,-2,-17,-15
1528190154703217,2,6,3,-8,16,-23,-8,5
1528190154716182,-14,-8,-4,12,-13,-14,-38,-28
1528190154716182,5,5,10,-14,-18,11,17,17
1528190154717179,-1,-3,5,24,0,18,11,-3
1528190154717179,-3,-6,-13,-32,47,-6,-9,-17
1528190154747099,1,0,5,-17,-12,-9,-19,3
1528190154747099,-3,-1,-4,40,13,-16,0,-5
1528190154748103,-1,-4,0,-18,-2,18,4,8
1528190154748103,3,6,0,-13,6,2,5,-8
1528190154755077,-7,-1,-2,5,-36,-11,-24,-10
1528190154755077,0,4,0,-3,-5,-9,7,12
1528190154756076,0,2,-3,-9,18,4,-2,-11
1528190154756076,3,1,3,26,21,-3,-2,1
1528190154784998,-2,-4,0,-23,-38,0,-2,1
1528190154784998,-1,5,0,9,2,-11,-5,-6
1528190154785995,-5,-9,-2,1,30,28,12,4
1528190154785995,1,1,-6,-1,-41,-22,-22,-9
1528190154799958,-1,0,-6,-30,100,-2,12,6
1528190154799958,1,-6,-2,-4,3,8,7,1
1528190154800955,2,4,-1,-9,-6,-11,-8,-5
1528190154800955,-4,-9,-9,13,19,18,9,4
1528190154814918,0,0,7,1,-46,-18,-18,-7
1528190154814918,-1,0,-24,-10,-16,-3,1,2
1528190154815915,0,-1,3,-14,5,-7,1,-4
1528190154815915,-4,-2,7,-5,-7,-3,0,-5
1528190154836859,-3,-2,-10,7,-18,4,-13,0
1528190154836859,2,3,13,7,17,3,11,5
1528190154836859,3,3,1,14,-8,6,24,-3
1528190154836859,1,-1,1,-8,2,-5,0,3
1528190154859798,1,-2,-1,-3,-24,-6,-10,-5
1528190154859798,-2,1,3,7,-1,-8,-36,-13
1528190154860796,-3,1,-4,-6,-5,-7,-24,-9
1528190154860796,2,-4,1,9,32,29,65,18
1528190154873802,-1,-3,-3,4,0,-1,2,-4
1528190154873802,-1,5,11,-7,-31,-17,-17,-24
1528190154881740,1,-7,-12,9,18,16,15,37
1528190154881740,-1,3,15,-11,0,-3,-21,-8
1528190154896699,2,-1,0,2,-12,1,-1,7
1528190154896699,-1,-1,2,2,-3,5,11,0
1528190154897710,-3,0,-5,-10,-16,-17,-22,-14
1528190154897710,0,-4,-2,10,15,15,14,6
1528190154919639,1,0,0,-2,2,3,-6,-11
1528190154919639,1,-1,0,4,-11,-6,10,9
1528190154920636,-4,1,3,-10,8,5,3,-2
1528190154920636,4,3,-3,-10,-11,-7,-12,5
1528190154933639,-3,-4,2,3,-10,-4,-8,-6
1528190154933639,-4,-6,-12,-7,3,1,5,5
1528190154957536,-1,-3,5,8,-11,-3,-8,-2
1528190154957536,-2,-7,-4,22,28,-3,-8,-13
1528190154959533,3,8,-7,-36,-15,4,3,9
1528190154959533,-1,1,0,16,-65,-10,-3,-1
1528190154960530,-4,20,-1,-10,2,-11,-8,-14
1528190154960530,-10,-28,-3,-25,64,10,-7,-1
1528190154979489,-1,-6,-11,-5,-21,8,2,-3
1528190154979489,-2,0,20,68,-33,-14,1,1
1528190154980476,9,14,5,-52,22,22,7,3
1528190154980476,-5,22,11,37,-117,-67,-22,-17
1528190154993496,-2,-22,-31,-64,73,88,21,15
1528190154993496,2,3,-5,-29,-33,-1,4,2
1528190155001458,5,-3,5,17,18,-9,2,1
1528190155001458,1,18,-10,-17,-101,-27,-14,-9
1528190155016379,-7,11,12,22,-27,-18,-4,-7
1528190155016379,1,12,-13,-37,115,4,2,1
1528190155017377,-3,-10,-30,48,-86,-11,4,0
1528190155017377,9,4,-11,-120,78,50,13,10
1528190155047296,-5,-4,12,67,-26,-27,-11,-7
1528190155047296,-5,-15,2,7,-47,0,-4,-5
1528190155048296,1,-9,17,-16,-32,-11,-7,1
1528190155048296,-4,-17,-2,111,-8,-15,-1,2
1528190155053281,0,-10,-3,-82,-21,3,9,1
1528190155053281,3,-4,8,10,31,5,-2,3
1528190155062262,-8,-16,-10,12,26,-2,-3,-9
1528190155062262,0,-5,6,-1,-18,9,1,-3
1528190155076267,2,4,11,27,6,-18,-9,2
1528190155076267,1,1,1,-9,-2,-4,-4,2
1528190155077218,-3,0,-7,-15,-6,-5,-36,-30
1528190155077218,0,-1,-3,-7,13,3,32,33
1528190155108376,-5,-4,-6,12,3,-8,-13,-17
1528190155108376,-4,-8,-15,-17,3,-2,-13,18
1528190155109358,4,4,6,13,20,10,-6,3
1528190155109358,2,8,4,2,6,17,-8,-17
1528190155113169,0,3,2,14,-3,-6,9,12
1528190155113169,-4,-2,0,-12,-14,-10,-13,-13
1528190155129079,-5,-3,8,8,18,-6,-25,-5
1528190155129079,-9,-3,3,-5,-3,-1,-16,-28
1528190155137057,11,-1,-8,2,-3,-5,41,66
1528190155137057,-3,-4,-2,1,13,8,-2,-12
1528190155137057,4,11,13,-2,-14,-16,18,11
1528190155137057,-4,3,-3,-6,17,1,-19,-8
1528190155160030,-9,-5,-2,12,-1,0,-26,-34
1528190155160030,1,-4,-8,-6,0,3,34,20
1528190155161011,-1,-6,-4,-10,-13,-6,-15,10
1528190155161011,0,-2,-4,-8,-15,-25,-12,-5
1528190155173958,-4,5,8,16,5,7,-19,-21
1528190155173958,-2,-4,-2,1,13,19,60,16
1528190155188929,2,0,-6,-1,15,12,3,-4
1528190155188929,-3,-2,-1,-6,-20,-11,-6,-9
1528190155211857,3,-3,0,6,11,-11,-12,1
1528190155211857,-2,0,2,0,4,8,-19,-17
1528190155212854,-2,-2,-1,-1,-15,-2,19,2
1528190155212854,2,-5,-3,13,-29,-3,4,9
1528190155219836,-1,8,-4,12,67,8,-4,-8
1528190155219836,-1,0,-1,-11,-13,1,-11,-4
1528190155220849,-3,-1,-10,-32,23,0,7,-3
1528190155220849,2,1,-5,-20,-22,-6,-5,7
1528190155241813,-5,-12,5,7,-45,-15,0,-4
1528190155241813,2,0,-10,8,47,2,-2,-1
1528190155242775,-3,3,-1,21,-11,-10,0,1
1528190155242775,-1,-5,3,-38,-43,2,3,-1
1528190155256741,1,6,1,5,-7,-6,1,-2
1528190155256741,1,7,-5,-90,9,22,26,2
1528190155257747,-2,5,18,71,-15,1,-4,-4
1528190155257747,0,-11,10,7,127,19,10,9
1528190155279676,-3,-6,-12,-24,-108,-17,-1,-3
1528190155279676,-6,-2,-3,79,-106,-37,-25,-10
1528190155280673,3,-5,-11,-49,95,37,13,5
1528190155280673,-4,8,11,43,-20,-6,-1,-8
1528190155302647,-2,-19,-2,-25,-42,-6,0,3
1528190155302647,-5,0,11,58,108,5,-13,-8
1528190155302647,1,1,0,-48,-72,-26,-2,-1
1528190155302647,2,2,-1,-6,50,1,32,4
1528190155324555,3,9,-3,-1,-25,6,-1,1
1528190155324555,-1,-1,-3,-30,-1,8,-4,0
1528190155325552,-5,-10,5,25,-10,5,14,3
1528190155325552,-2,1,-9,-9,3,3,-10,-3
1528190155339517,-2,5,2,-1,-25,-20,-9,-8
1528190155339517,1,0,2,20,14,-10,0,2
1528190155341512,-1,-1,-10,-18,31,18,-1,1
1528190155341512,1,1,-5,-13,-26,-1,-8,3
1528190155362454,-1,-3,2,23,21,-6,-6,-4
1528190155362454,-4,-8,-7,-13,-10,32,-7,-3
1528190155363451,0,0,-3,-12,-20,-24,-24,-3
1528190155363451,2,2,-6,22,-33,9,37,3
1528190155376416,3,2,9,6,44,10,-4,2
1528190155376416,1,1,-4,-16,2,0,-6,8
1528190155385408,2,5,-1,11,-21,-2,9,-10
1528190155385408,1,-2,3,-2,-13,-12,1,22
1528190155407334,-4,-3,-9,-8,29,-22,-5,-6
1528190155407334,0,4,2,-11,-23,9,10,17
1528190155409328,-3,-8,3,16,-7,-3,-4,-1
1528190155409328,0,2,2,-3,-3,-5,-21,-12
1528190155422294,-1,3,-1,-2,-1,2,1,-3
1528190155422294,0,-1,8,49,-17,-25,-28,-13
1528190155424288,-5,-5,-17,-68,38,26,16,5
1528190155424288,0,1,-4,2,-3,-3,-10,-2
1528190155436257,-2,-3,-2,-5,12,6,-2,-4
1528190155436257,3,3,3,-2,-47,-10,6,2
1528190155445232,-2,-2,0,22,55,1,-1,-3
1528190155445232,-3,-4,-1,29,-8,-1,-8,-4
1528190155458198,-3,0,-1,-29,12,8,2,0
1528190155458198,1,-1,-10,-13,-9,-10,-23,-7
1528190155467186,-3,-6,-6,6,-21,-1,29,5
1528190155467186,-1,1,7,5,-25,-3,-15,-2
1528190155490112,-2,-11,6,46,46,6,3,2
1528190155490112,1,4,1,-46,-14,-4,-1,0
1528190155491110,-1,-10,4,24,-53,-19,-6,0
1528190155491110,-5,-1,-18,-54,76,34,5,-5
1528190155505072,1,20,6,65,-24,-13,3,0
1528190155505072,-6,-18,-15,-68,78,13,12,1
1528190155506082,-1,7,10,43,-109,-27,-17,-6
1528190155506082,-7,-9,-5,11,80,-21,-23,-8
1528190155518038,-1,-2,-10,-75,106,27,-13,-1
1528190155518038,-3,8,14,59,-90,-15,-14,-1
1528190155535008,7,23,-6,-42,90,25,-1,1
1528190155535008,-3,-1,18,40,-104,-18,-4,-2
1528190155541974,-5,1,9,83,35,-44,-7,-3
1528190155541974,9,-3,-26,-90,35,55,25,12
1528190155543970,-3,-2,-2,35,-74,-10,4,-10
1528190155543970,0,5,-20,3,-55,4,1,1
1528190155572130,-2,-3,10,18,-75,-13,28,-2
1528190155572130,-1,7,3,16,-16,-22,6,-11
1528190155573889,-1,-11,-5,-1,30,6,12,3
1528190155573889,2,-1,-4,-31,4,-6,-12,-5
1528190155579114,3,-1,-5,-19,-12,15,19,5
1528190155579114,-4,-5,1,12,27,-7,-33,-10
1528190155604565,-2,0,1,-6,0,1,3,-5
1528190155604565,-2,-6,8,10,-56,-17,9,-7
1528190155604565,-3,-3,-10,-42,83,23,-27,-1
1528190155604565,5,4,10,13,-46,-15,12,1
1528190155608818,-5,-9,-2,10,13,-8,-15,-6
1528190155608818,3,2,2,65,25,9,-17,-3
1528190155624810,3,-4,-9,-86,-59,11,-75,2
1528190155624810,-9,-6,0,-1,0,-14,-35,-5
1528190155626804,1,-1,-2,-9,10,15,-6,-8
1528190155626804,1,-2,-2,-13,-10,-5,-23,3
1528190155638776,4,4,1,20,-25,4,35,19
1528190155638776,1,-1,7,22,1,-13,8,-4
1528190155647755,-4,-5,-3,-19,-37,-15,-31,-3
1528190155647755,-3,-1,0,-7,24,7,3,-14
1528190155662039,1,0,0,8,-29,-1,45,-5
1528190155662039,3,0,-3,-10,-3,-1,14,-5
1528190155668734,-11,-3,0,13,10,-2,5,-7
1528190155668734,3,2,-5,-22,5,9,5,14
1528190155684692,-4,1,-4,-3,-2,-6,-3,1
1528190155684692,-9,-4,3,24,7,-1,-55,-27
1528190155686686,11,1,-3,0,5,7,29,14
1528190155686686,-3,-3,-1,-17,-1,-28,-13,-8
1528190155698666,2,-4,3,-1,-15,14,-47,-9
1528190155698666,-10,3,-3,1,1,27,41,10
1528190155714611,-8,-5,-14,16,3,-40,-41,-4
1528190155714611,-5,2,26,-53,6,13,-18,-4
1528190155722121,-6,-11,-1,80,-22,7,-21,-11
1528190155722121,3,1,7,-6,1,26,-24,-1
1528190155729052,-3,0,0,7,46,-23,3,1
1528190155729052,8,-4,-16,-17,-28,57,54,11
1528190155745144,-1,3,-3,-23,23,-16,-21,-5
1528190155745144,5,-1,8,36,-3,-14,-2,8
1528190155747111,4,4,4,4,-28,-6,53,7
1528190155747111,-8,-6,-16,-15,23,-27,-68,-8
1528190155768036,-5,-7,13,-37,-38,-14,11,-9
1528190155768036,3,-1,-11,-1,-10,-12,45,14
1528190155768855,-1,-2,-3,-23,-1,6,-24,2
1528190155768855,2,2,0,15,-2,3,2,-4
1528190155781830,2,1,-5,16,6,15,20,3
1528190155781830,-2,-2,-8,-16,11,-9,2,-2
1528190155789064,2,2,0,-35,-11,15,-21,1
1528190155789064,0,-9,-8,34,3,-3,19,4
1528190155805003,-2,4,8,27,-6,-14,-10,-3
1528190155805003,-3,0,6,12,7,-7,6,-3
1528190155806993,-1,-2,-12,-12,-8,12,-4,-2
1528190155806993,0,2,-7,-20,-9,-6,8,4
1528190155827901,1,3,-5,-27,21,3,2,-8
1528190155827901,-5,-8,0,16,1,0,2,-13
1528190155828697,2,-1,2,-1,1,17,39,6
1528190155828697,-1,-4,8,-2,5,-7,-12,9
1528190155849864,-5,-7,-13,-7,-22,-12,11,-3
1528190155849864,3,1,-11,-15,22,13,-1,5
1528190155851634,2,4,5,-25,5,7,-28,-7
1528190155851634,-4,-4,19,55,-8,-19,-37,-1
1528190155864889,-2,-2,-6,45,-35,-10,-5,2
1528190155864889,-2,-7,-12,-14,56,1,-2,-1
1528190155866878,0,-3,-3,-18,8,20,15,8
1528190155866878,4,10,1,-21,26,14,18,-6
1528190155887822,0,3,-3,-32,-10,3,-4,13
1528190155887822,-3,-4,0,2,-37,-17,9,6
1528190155888822,-4,-4,4,42,-8,-13,-27,-7
1528190155888822,3,11,-3,-6,-5,3,1,4
1528190155902099,2,-15,-1,-1,8,0,74,6
1528190155902099,-1,5,-6,6,6,4,-8,-2
1528190155909258,5,8,3,19,18,5,-14,1
1528190155909258,-11,-5,-8,15,-35,-17,-10,-7
1528190155932467,2,3,-2,-61,27,25,5,4
1528190155932467,-3,-10,-3,-9,-50,-20,-20,-4
1528190155934147,-2,-3,-2,-21,26,3,-27,-4
1528190155934147,0,-1,1,-7,-58,-1,11,-2
1528190155947373,-1,8,-1,12,52,12,-44,4
1528190155947373,-13,-10,2,-1,30,0,29,-3
1528190155949111,10,13,0,1,-52,5,-13,-2
1528190155949111,-15,-15,-6,1,7,-12,3,-63
1528190155962277,5,-1,3,1,-9,-5,-7,59
1528190155962277,34,8,3,4,-18,-6,-39,38
1528190155968085,6,-16,0,36,31,-16,16,16
1528190155968085,3,4,1,-10,-6,13,16,9
1528190155985275,-5,25,2,-24,-13,-10,-6,-40
1528190155985275,-20,5,6,20,-22,-19,-7,-29
1528190155986292,-18,-51,-11,-9,-7,6,14,2
1528190155986292,3,8,-10,-14,25,17,14,21
1528190156008327,-10,1,-3,11,-26,-16,-16,-50
1528190156008327,1,10,2,-1,-2,8,-2,12
1528190156013528,1,5,2,30,-20,-12,-3,3
1528190156013528,-6,-5,12,51,35,-16,-9,-10
1528190156021241,-12,-10,-5,-34,-70,13,15,24
1528190156021241,-4,-9,-14,-22,27,2,-17,-66
1528190156030212,15,10,-1,-48,70,20,11,60
1528190156030212,15,5,-1,-4,-35,-6,11,33
1528190156045434,3,7,1,34,37,-11,-2,-19
1528190156045434,-10,-17,8,12,-110,-11,6,59
1528190156047224,-2,11,3,14,72,24,-13,-124
1528190156047224,0,-8,-6,-8,-47,-3,8,21
1528190156068371,-4,-18,-4,9,-27,-3,-2,-15
1528190156068371,2,25,-3,-25,-5,-2,-1,55
1528190156069373,-33,-4,6,13,-53,-20,-6,-80
1528190156069373,10,-2,1,1,32,-10,9,94
1528190156081078,21,6,-4,4,22,-14,-19,-34
1528190156081078,1,-9,-4,-40,57,34,10,-26
1528190156107007,0,-7,-1,22,-35,-19,0,29
1528190156107007,-24,1,1,-9,7,7,-3,-89
1528190156108004,-13,-10,4,11,-29,-23,3,89
1528190156108004,29,8,4,8,15,8,2,-2
1528190156110999,1,14,-12,-50,-21,-20,-19,-86
1528190156110999,-1,-23,-5,-18,79,27,-2,-5
1528190156128068,-9,3,0,31,-16,3,23,14
1528190156128068,-20,-11,2,-9,-21,3,-4,-74
1528190156128949,21,-2,3,-24,-14,-5,9,125
1528190156128949,5,9,2,26,-86,-32,4,-12
1528190156141253,4,6,0,-8,30,15,-9,-14
1528190156141253,-16,3,-12,-6,26,9,2,-36
1528190156156185,-12,4,2,19,-18,-8,-16,2
1528190156156185,-2,-15,5,46,61,8,17,-3
1528190156165205,19,19,-5,-41,37,10,27,5
1528190156165205,8,-2,-1,2,-18,-10,-3,30
1528190156166157,2,1,3,10,-14,-6,-12,13
1528190156166157,-11,8,-9,-7,-14,-3,-1,-17
1528190156187104,-1,-3,7,13,-38,-9,-11,36
1528190156187104,-7,-14,2,2,9,13,-2,-45
1528190156189096,13,-9,-11,-19,25,1,7,118
1528190156189096,-4,2,3,-15,-18,-11,-23,-114
1528190156210371,1,-12,-5,-7,-32,-10,-15,-9
1528190156210371,-2,1,0,46,93,11,3,24
1528190156212221,-15,-5,1,-3,-70,-8,4,-35
1528190156212221,0,5,-2,-38,-7,6,-4,15
1528190156224265,-12,-9,-10,-13,-6,1,-2,-26
1528190156224265,16,-1,-3,14,-8,-13,11,53
1528190156231284,-4,1,2,3,-12,5,11,-38
1528190156231284,0,3,-3,-9,23,8,-14,23
1528190156247429,0,-3,-5,5,37,-10,10,26
1528190156247429,-3,1,13,13,-69,-25,-13,-45
1528190156249247,2,4,-9,10,39,19,15,-2
1528190156249247,12,-2,0,-30,23,12,-13,29
1528190156270181,-12,-7,4,16,-40,-11,-11,-26
1528190156270181,-6,-3,-2,-2,13,-3,-11,6
1528190156272263,-2,0,2,16,-1,-6,2,3
1528190156272263,-4,1,-8,-8,-16,-10,2,-4
1528190156285411,-4,2,-5,-12,70,24,-2,-30
1528190156285411,10,-5,2,9,8,4,13,47
1528190156286357,-17,-7,-4,-26,-32,-13,-12,-71
1528190156286357,11,-10,0,4,8,7,11,57
1528190156307083,-4,9,-6,-12,6,-4,5,-53
1528190156307083,2,0,-5,-21,-33,-8,-15,29
1528190156309077,6,6,1,-11,-8,9,-2,17
1528190156309077,-1,0,-4,9,5,-5,-8,8
1528190156321788,4,-9,8,20,-36,5,21,-17
1528190156321788,-10,4,-5,-43,-1,12,-28,-35
1528190156337456,-1,1,3,8,-25,-7,14,11
1528190156337456,-1,0,3,53,-4,-10,25,4
1528190156352692,-2,-6,-8,-45,32,5,-10,16
1528190156352692,-6,-7,-10,-18,1,3,-2,-7
1528190156354277,1,1,4,10,19,6,4,7
1528190156354277,1,3,-2,-10,-19,-3,-7,8
1528190156367555,-4,-4,2,8,-3,-13,-10,-8
1528190156367555,-6,-4,3,26,-16,-9,11,-5
1528190156373217,1,-3,-6,-11,47,8,-7,4
1528190156373217,-5,2,-4,-16,-26,-11,6,-25
1528190156381193,0,-5,2,5,-14,3,-12,5
1528190156381193,6,9,1,0,-4,2,13,17
1528190156390170,-1,1,1,14,-19,-7,-2,8
1528190156390170,-3,-3,-2,-11,10,-2,-8,-17
1528190156405691,3,-2,2,6,11,11,3,8
1528190156405691,-2,2,0,6,2,-4,-2,-8
1528190156406432,-2,-1,-1,7,13,2,-1,-3
1528190156406432,-1,0,-2,-9,5,-4,-21,-3
1528190156428465,8,1,-2,-1,-1,7,20,9
1528190156428465,-9,-3,3,15,-12,-8,6,-8
1528190156429380,-3,-2,2,0,5,4,-12,-5
1528190156429380,-3,-2,-3,-9,-1,-3,-16,-1
1528190156441590,0,-1,-2,0,-10,-10,-25,1
1528190156441590,3,4,0,-20,10,10,56,4
1528190156450345,-12,-10,3,17,-4,-10,-60,-8
1528190156450345,-1,-4,-1,27,1,1,-6,5
1528190156465428,0,13,11,17,21,3,59,-15
1528190156465428,32,21,-7,-69,-35,-7,36,8
1528190156466066,35,-6,-11,84,15,10,-1,-5
1528190156466066,-68,-28,9,-22,1,-9,-71,0
1528190156488161,-29,-19,-3,-40,-19,16,73,9
1528190156488161,29,-6,5,11,1,-25,-128,0
1528190156489018,16,29,5,57,9,17,127,-21
1528190156489018,32,27,-4,55,15,-3,-66,9
1528190156501358,-57,-30,-2,-46,5,7,60,-20
1528190156501358,-34,-1,-2,-4,-1,-1,-1,-26
1528190156517930,-26,-18,-8,-50,-6,-5,-52,7
1528190156517930,-29,-13,-5,9,6,-7,-50,-12
1528190156525171,100,34,15,22,8,4,15,27
1528190156525171,-52,-13,1,21,-20,-15,-61,6
1528190156527193,-76,-48,1,4,-6,-3,81,-4
1528190156527193,66,57,3,-29,-4,10,47,-7
1528190156555068,-30,-11,-2,-4,-6,-9,-92,-12
1528190156555068,13,3,6,35,24,15,47,26
1528190156557046,-8,17,8,-13,-4,-9,-36,-37
1528190156557046,57,-38,-19,-39,-15,6,71,51
1528190156569795,-13,-6,-9,5,-4,-9,-33,4
1528190156569795,27,6,0,22,9,0,6,-4
1528190156571786,-21,3,-7,-30,-5,-3,-35,-1
1528190156571786,-9,-11,-7,-27,-4,2,26,-7
1528190156584768,38,9,1,28,0,-8,-41,-7
1528190156584768,-42,-13,-4,-11,1,4,23,-10
1528190156598714,19,-3,-2,-25,-11,-5,-17,15
1528190156598714,-5,8,5,1,-1,-2,1,-19
1528190156607959,-15,1,-5,8,-2,-1,3,11
1528190156607959,-9,-4,4,7,2,0,-8,-11
1528190156608895,18,9,-1,-21,1,-1,-9,6
1528190156608895,3,1,2,6,1,2,13,-1
1528190156620655,-17,-3,0,6,-4,-3,-2,-5
1528190156620655,10,-6,-8,-10,2,0,5,1
1528190156629630,29,6,0,0,-3,-3,-16,4
1528190156629630,-32,-5,0,-6,2,2,19,-6
1528190156651809,2,-3,-2,-3,-5,-3,-17,0
1528190156651809,6,1,-3,-1,1,-3,-4,-9
1528190156659780,-2,2,-1,-14,-3,1,7,10
1528190156659780,-12,-4,4,6,-1,-1,4,-9
1528190156667771,2,6,-4,-4,0,-3,-10,0
1528190156667771,8,0,-2,6,0,1,4,1
1528190156668764,-4,1,0,-9,2,1,-6,1
1528190156668764,-3,-2,-3,-5,0,-1,7,-1
1528190156681493,7,1,-4,8,-2,-4,-11,-2
1528190156681493,-9,-3,-4,-2,-1,-1,5,-3
1528190156704504,3,-2,0,6,-4,-2,-5,1
1528190156704504,3,3,-1,-10,3,-1,0,-2
1528190156719404,-14,-3,-3,-3,-2,0,-3,-1
1528190156719404,-9,-3,-1,-5,-4,-1,-4,-4
1528190156721386,11,1,-7,-30,-3,2,1,2
1528190156721386,-1,0,5,35,0,0,3,-1
1528190156727630,1,-1,-1,-4,-4,-3,-9,-2
1528190156727630,2,-3,0,2,4,3,2,0
1528190156728624,2,1,-1,-6,-6,-4,-6,-1
1528190156728624,-6,-2,-1,-7,-4,-1,3,-3
1528190156750627,0,-3,-3,-5,-2,1,-4,-1
1528190156750627,2,0,1,6,-6,-5,-5,-3
1528190156751306,-1,0,-1,2,8,4,1,1
1528190156751306,-2,0,-1,-4,-4,0,-1,-3
1528190156764271,0,-1,-2,3,6,2,-3,0
1528190156764271,3,0,-4,-12,0,-2,-2,-1
1528190156771473,-1,-1,1,7,-9,-5,-4,0
1528190156771473,-2,-3,-2,-3,1,-1,1,0
1528190156795209,2,-2,0,0,2,1,-3,-2
1528190156795209,0,-1,-2,-2,0,-1,0,-2
1528190156796186,0,-1,-2,-6,1,-2,-3,0
1528190156796186,-4,0,0,-1,-3,0,-1,-3
1528190156810149,0,-2,0,12,-4,-3,-3,-1
1528190156810149,0,-2,0,-4,2,-2,0,-1
1528190156811338,-3,1,-1,2,-5,-2,-2,-1
1528190156811338,-1,1,1,-3,-2,2,1,-1
1528190156824427,-2,-2,0,-4,-2,-3,-3,-2
1528190156824427,0,-1,0,3,0,0,1,-2
1528190156831393,0,-2,0,1,-1,-2,-2,1
1528190156831393,-2,-1,-2,-7,-2,0,-2,-2
1528190156847384,-1,-2,-2,-6,-1,0,-1,-1
1528190156847384,-2,1,2,11,-1,0,-1,-1
1528190156849327,0,1,-1,0,3,1,1,0
1528190156849327,-1,-2,-3,1,0,-2,1,-1
1528190156877497,0,-1,-2,-1,-2,-3,-3,-2
1528190156877497,0,-1,-1,-4,-1,-2,-2,-2
1528190156879247,-1,0,0,0,-2,-2,-3,-2
1528190156879247,-2,-2,-1,0,-1,-1,2,-2
1528190156884866,0,0,-1,-5,-2,-3,0,0
1528190156884866,0,-3,-1,-5,0,0,0,-1
1528190156899169,-1,-2,1,1,0,-1,-1,1
1528190156899169,-2,-1,-2,-4,-1,-1,-3,-2
1528190156908055,-1,-1,-3,-2,-2,1,-1,0
1528190156908055,0,0,-2,-2,-1,0,0,0
1528190156909745,-2,0,-1,0,-3,-1,-1,-1
1528190156909745,-1,-2,-2,-1,1,-1,1,-1
1528190156930647,-3,-1,-2,0,0,0,0,0
1528190156930647,-1,-1,-4,1,-1,-1,0,0
1528190156931645,-1,-2,-2,-3,-1,-1,-1,-2
1528190156931645,0,0,-1,-2,0,0,1,0
1528190156943944,-2,-1,0,2,-2,-1,-2,1
1528190156943944,-1,0,-1,-1,-3,-1,-1,-2
1528190156952588,0,-1,-2,-1,0,-1,-1,1
1528190156952588,-1,0,0,0,-1,0,0,-1
1528190156974797,-1,-1,-1,-2,-2,-2,-1,-1
1528190156974797,-1,0,-3,-3,-1,0,-1,0
1528190156976534,-1,0,-2,-1,-2,-1,-2,-1
1528190156976534,-1,-1,-1,0,0,0,-1,1
1528190156990529,2,0,-2,-1,-2,-1,-2,-1
1528190156990529,-1,-3,1,-2,-1,-1,-2,-2
1528190156991485,-1,-2,0,2,-1,1,0,-2
1528190156991485,-1,-1,-1,-1,-1,-2,-1,-1
1528190157003475,0,0,-1,-1,-1,-2,-2,-2
1528190157003475,-2,-1,-1,0,-1,-2,-1,-2
1528190157018737,0,-1,-1,1,-1,-2,-2,-1
1528190157018737,-1,-2,-1,-2,-2,0,0,-2
1528190157028050,-1,-1,0,-1,0,-2,-1,0
1528190157028050,-1,0,-1,0,0,1,0,-2
1528190157028982,-2,0,-1,-1,-1,-2,0,-2
1528190157028982,0,-2,-1,-1,-2,-2,-3,0
1528190157050196,-1,-2,-3,-1,-1,0,-1,0
1528190157050196,0,0,-3,-2,-2,-1,-2,-1
1528190157051920,1,-2,-1,-1,-2,0,-2,-1
1528190157051920,-2,0,-1,-2,0,-2,-1,-2
1528190157063951,-1,-2,-1,-1,-1,0,-2,-1
1528190157063951,-3,-1,-1,-2,-1,0,-2,0
1528190157072866,0,-1,0,-1,-1,-2,-2,-1
1528190157072866,-1,-1,-1,-1,-1,-2,-2,0
1528190157088069,-1,-1,-1,-2,-2,-2,0,-3
1528190157088069,1,-2,-3,-1,0,-1,-2,-2
1528190157088831,-1,1,-2,-1,-2,-2,1,1
1528190157088831,-2,0,-2,-1,-1,0,-2,0
1528190157110060,-2,-2,-1,-1,0,-1,-1,0
1528190157110060,0,1,1,-1,-2,-2,-2,0
1528190157111777,0,-2,-1,-2,-2,-1,-2,-1
1528190157111777,0,0,-1,-1,-2,-2,-1,0
1528190157123987,-1,0,-2,-1,0,-1,-1,0
1528190157123987,0,-1,0,1,0,0,0,-1
1528190157132703,-1,-2,-1,-1,0,-1,0,-1
1528190157132703,-2,-1,-2,0,0,-1,-1,-1
1528190157155646,-2,-1,-1,-2,0,-2,-2,-2
1528190157155646,-1,-1,-1,0,-2,-1,-2,-3
1528190157156200,-1,-1,-2,0,0,-1,-1,-1
1528190157156200,-1,-3,-1,0,-2,-1,0,-1
1528190157178394,-1,0,-2,0,-1,-2,-1,-1
1528190157178394,-1,-2,0,0,-1,-1,0,-1
1528190157180347,-1,0,-1,-1,-2,-2,-1,-1
1528190157180347,-1,-1,0,-1,-1,0,-1,-2
1528190157183122,-3,-1,1,-2,-1,-2,0,0
1528190157183122,-2,-2,-1,-2,-2,-1,1,1
1528190157192419,-1,-1,0,-2,0,-1,0,-1
1528190157192419,-2,0,0,0,-1,-1,-1,0
1528190157215037,-1,0,-1,0,-2,0,-1,0
1528190157215037,-1,0,-1,0,-2,-1,1,-1
1528190157217196,-2,-2,0,-1,-1,0,-2,-2
1528190157217196,-1,-2,-1,-2,-1,-2,-1,0
1528190157229997,-1,-1,0,-3,-2,0,-2,-2
1528190157229997,0,-2,-4,-3,0,-1,0,1
1528190157230996,-2,-2,-1,-2,-2,0,-1,-1
1528190157230996,0,0,-2,-1,-1,-2,0,-1
1528190157244286,0,-1,-1,1,-1,0,0,0
1528190157244286,0,-1,0,-1,-1,-1,-1,-3
1528190157269889,-1,-1,-2,0,-1,0,-1,-2
1528190157269889,-2,-3,-1,-2,-2,-1,-2,0
1528190157269889,0,-1,-2,-1,-3,-1,0,-2
1528190157269889,-1,-2,-2,0,-1,-1,-2,1
1528190157274137,-2,-2,-1,-1,-1,-3,-1,0
1528190157274137,-2,0,-1,-1,0,-1,1,-1
1528190157290096,-1,-2,-1,-1,0,-1,-2,-1
1528190157290096,-1,0,-2,1,-1,-1,-1,-2
1528190157291830,-2,-2,0,1,-2,-1,0,-1
1528190157291830,-2,-3,0,-2,-1,-2,-1,-2
1528190157304363,-2,-1,0,-2,-1,-1,-1,-1
1528190157304363,0,-1,-1,-1,-1,-2,-1,-1
1528190157312469,0,-1,-1,-1,0,-1,0,-2
1528190157312469,0,-1,-1,-1,-2,-1,-1,-2
1528190157327775,-1,-1,0,-1,-1,-1,-1,-1
1528190157327775,-1,-1,-2,-1,-1,0,-2,-2
1528190157329423,0,0,-3,-1,0,-1,0,0
1528190157329423,-2,0,-1,-2,-1,0,-1,-2
1528190157349771,0,0,-1,-1,0,-2,-1,-1
1528190157349771,-1,-1,-1,-2,1,0,-2,1
1528190157351396,-1,-1,-2,-1,0,-2,0,0
1528190157351396,-1,-1,-1,-1,0,-2,0,-3
1528190157363656,-1,-2,-2,0,0,-1,0,-2
1528190157363656,0,-2,0,-1,-1,0,0,-1
1528190157372308,-2,-1,-1,0,-1,0,-2,0
1528190157372308,-1,-2,-3,1,-2,0,-3,0
1528190157387270,0,-1,-2,-2,-1,0,-1,0
1528190157387270,-2,1,-1,-1,-1,-2,-1,1
1528190157389263,0,-1,-2,-3,-2,-2,-1,1
1528190157389263,-1,-1,-2,-1,-1,-2,1,1
1528190157410531,-3,1,-2,-2,-1,-1,0,-2
1528190157410531,0,-2,0,0,-2,-2,1,0
1528190157412260,1,0,-1,0,-2,-1,-2,-1
1528190157412260,0,0,0,2,0,-1,0,-1
1528190157432432,0,-1,1,1,-2,0,-1,-1
1528190157432432,-1,-1,-1,-2,1,-1,-1,-1
1528190157434148,-2,-1,1,-2,-2,0,-1,-2
1528190157434148,-2,1,-2,-1,-1,0,-1,-1
1528190157447593,-1,-1,-1,-1,-1,-3,-1,0
1528190157447593,-2,0,0,0,1,-2,0,-3
1528190157448668,-1,-2,-2,-1,-1,-1,0,-2
1528190157448668,-1,-1,-2,-1,-2,-1,0,0
1528190157469897,-1,-1,-3,-1,-1,0,-1,-1
1528190157469897,-1,-2,-2,0,-1,-2,0,1
1528190157471530,-2,-2,-1,0,0,0,-2,-2
1528190157471530,-1,0,0,-2,-3,-1,-2,-1
1528190157492809,0,-1,-3,-1,-2,-1,-2,2
1528190157492809,-1,0,0,-2,-1,-1,-2,-1
1528190157494584,-1,-1,0,-2,-2,-1,-1,0
1528190157494584,0,-1,-2,-2,-1,-3,-1,1
1528190157514570,-1,-1,0,1,-1,-2,0,-1
1528190157514570,-2,-2,-2,-1,-2,1,-2,-1
1528190157516561,-1,-1,0,1,-1,-2,-1,0
1528190157516561,-1,0,-1,-1,0,-2,-3,-2
1528190157530582,0,0,-2,-1,-1,-1,-2,-2
1528190157530582,0,-2,-2,-3,-1,0,-3,-2
1528190157531521,0,-2,0,-1,0,-1,-1,-3
1528190157531521,-2,-2,0,-2,1,0,0,-1
