timestamp,emg1,emg2,emg3,emg4,emg5,emg6,emg7,emg8
1528443299908330,-1,-2,-3,-1,-1,-1,0,0
1528443299908330,1,0,0,0,0,-1,0,-2
1528443299923333,-1,0,0,-2,0,0,1,-1
1528443299923333,0,0,0,-2,-1,0,-1,0
1528443299930269,0,0,2,-1,1,0,-2,0
1528443299930269,0,-1,-1,-2,-2,0,-2,0
1528443299945275,-1,-3,-1,1,1,0,1,-1
1528443299945275,-1,-2,-1,-1,0,0,0,-2
1528443299960190,1,-2,-1,0,-2,-2,-1,0
1528443299960190,1,1,0,-1,-1,-2,-1,1
1528443299968168,-1,-1,0,0,0,-1,0,0
1528443299968168,-2,0,-1,1,0,-2,-1,0
1528443299983128,0,0,-2,-2,1,0,0,-1
1528443299983128,-2,0,-1,2,-1,-1,0,-1
1528443299991107,-1,1,-1,-1,0,-1,-1,-3
1528443299991107,0,0,-1,0,0,0,0,0
1528443300013096,0,1,-1,-1,-3,-2,0,-2
1528443300013096,-1,0,-1,0,1,-1,-1,-1
1528443300035986,-1,-1,1,0,0,1,0,1
1528443300035986,-1,1,2,2,0,0,1,-1
1528443300042970,0,0,0,-2,0,1,0,0
1528443300042970,0,-1,-1,-2,-1,-1,-1,-1
1528443300057955,-1,0,0,2,1,1,0,1
1528443300057955,-2,-3,-3,-4,-3,-2,-1,-2
1528443300072888,-4,-1,-1,-1,-1,-1,-2,-2
1528443300072888,1,0,-1,0,-1,0,-1,-1
1528443300087848,0,-1,0,-2,-1,-3,-1,0
1528443300087848,-1,0,2,1,0,1,-1,-1
1528443300102807,-1,-1,-2,-1,1,-1,-1,1
1528443300102807,-3,0,2,1,0,1,0,0
1528443300110786,-1,-3,-1,-2,0,2,0,-1
1528443300110786,-2,-1,-1,0,0,-1,-1,-1
1528443300125749,1,-1,0,0,1,-1,-1,0
1528443300125749,0,0,0,0,0,-2,0,0
1528443300140706,0,1,-3,-1,0,0,0,-2
1528443300140706,-1,-1,0,-1,-1,-1,0,-2
1528443300147688,-1,-1,0,-1,-2,0,-2,0
1528443300147688,0,-1,-1,1,0,-3,-3,-1
1528443300163701,-1,-1,-1,-1,-1,1,-1,-1
1528443300163701,1,0,0,-1,0,0,-1,0
1528443300170627,-1,-1,-1,0,-3,-2,1,-1
1528443300170627,-1,-2,-1,-2,0,0,0,0
1528443300186163,0,0,0,-1,1,0,-1,-1
1528443300186163,-1,0,-2,-4,-3,-2,-3,-1
1528443300200959,-2,0,-2,0,-1,0,-1,-2
1528443300200959,0,-2,-1,0,-2,-1,-1,-1
1528443300207937,0,-2,-1,-1,2,0,0,-2
1528443300207937,0,0,1,0,0,0,0,0
1528443300222899,0,2,0,-1,-1,-2,0,0
1528443300222899,0,0,-1,-2,0,-1,-2,-1
1528443300230876,1,-2,-1,0,-1,-2,-2,-1
1528443300230876,0,-2,-1,0,0,0,0,-3
1528443300245837,-2,-1,0,-1,-3,0,0,-1
1528443300245837,-2,-3,-1,-1,1,3,1,0
1528443300260797,0,1,-1,-1,-2,-2,-1,-2
1528443300260797,1,0,-1,-1,1,0,0,0
1528443300267907,-1,1,0,-1,0,-1,0,1
1528443300267907,-1,1,-1,-2,-1,-1,-1,-1
1528443300282920,-1,-2,-2,0,-1,-1,-2,-1
1528443300282920,-1,0,-1,1,0,-1,0,-2
1528443300291045,-1,0,-2,0,-2,0,0,-1
1528443300291045,-1,0,0,2,0,1,-1,0
1528443300313838,-1,0,2,-1,0,0,0,2
1528443300313838,2,0,-1,-1,-1,-1,0,-2
1528443300328834,-5,-3,-2,0,0,-2,-1,-2
1528443300328834,-1,-1,-2,-2,0,2,0,-1
1528443300335937,0,0,0,0,0,-1,-1,-1
1528443300335937,-1,0,0,-1,-2,-2,-1,1
1528443300350995,0,-1,-2,-2,-4,-2,-2,-1
1528443300350995,0,-1,-2,-1,-1,-1,-1,0
1528443300365901,1,1,1,2,1,2,1,-1
1528443300365901,-4,-1,0,1,-2,-3,-2,0
1528443300372882,1,0,-1,-2,-1,0,-1,-2
1528443300372882,-1,-2,-3,-2,-3,1,1,-1
1528443300387939,-1,0,0,-1,1,0,0,0
1528443300387939,0,0,0,0,0,0,2,0
1528443300402856,0,-3,1,-1,0,0,-1,0
1528443300402856,2,0,0,-1,-1,0,0,1
1528443300410834,-1,-1,0,-1,-2,0,-2,-1
1528443300410834,-3,-2,-2,-1,-1,-3,-1,0
1528443300426007,3,2,-1,-1,0,0,0,0
1528443300426007,-1,-1,-1,2,-1,0,0,-2
1528443300433202,-3,-2,-2,0,-1,0,-1,-3
1528443300433202,0,1,1,0,2,0,0,-1
1528443300448308,1,0,-2,0,1,-1,0,-1
1528443300448308,-1,-1,-2,-1,-1,-1,-1,-1
1528443300470452,-1,1,1,-1,0,0,-3,-1
1528443300470452,1,-1,0,-1,1,1,-1,-2
1528443300478426,-2,-1,-1,0,-2,-1,0,0
1528443300478426,-1,-2,-1,-2,-2,-2,-1,-2
1528443300493751,-1,-2,0,-2,0,0,0,-2
1528443300493751,0,2,0,-1,-1,1,-1,-1
1528443300500738,-1,1,0,-1,-1,0,-1,1
1528443300500738,0,1,-1,-1,0,-1,0,-1
1528443300515697,-1,-1,1,-2,-1,-2,-2,-2
1528443300515697,-1,0,0,1,-1,1,-1,1
1528443300523231,-2,1,-1,1,0,0,-1,-4
1528443300523231,-2,0,0,-1,-1,-2,-2,-2
1528443300531210,-1,1,0,-1,-1,1,0,0
1528443300531210,1,-1,-2,0,-1,-2,-2,-1
1528443300546302,0,-2,-1,0,0,0,0,-1
1528443300546302,1,0,0,0,0,-1,-3,0
1528443300553389,-1,1,1,0,0,-1,-1,-1
1528443300553389,-1,-1,0,1,-2,0,0,-1
1528443300568680,0,1,0,-1,-1,-1,0,0
1528443300568680,-1,-1,-3,-2,-1,1,-1,0
1528443300583046,-2,0,-2,0,-1,-2,-2,-1
1528443300583046,-1,2,-1,-1,1,-2,-1,-1
1528443300591193,0,-3,-1,1,-1,-1,0,0
1528443300591193,2,-1,0,0,-2,-1,0,0
1528443300606302,1,0,-1,-2,-1,1,-1,-1
1528443300606302,1,-1,-1,-1,-2,-3,-2,2
1528443300613176,-1,-1,-2,-2,-4,-1,-1,-3
1528443300613176,-4,0,-1,1,1,-3,0,-3
1528443300628172,-1,0,-3,0,-1,0,-1,-2
1528443300628172,0,-2,-1,-1,-3,-1,-2,0
1528443300643097,-1,-1,-1,-3,-2,-1,-2,-1
1528443300643097,-4,1,-1,0,0,-1,0,-3
1528443300658196,2,-2,0,0,-1,-1,-2,2
1528443300658196,-2,0,-1,0,0,1,-3,-1
1528443300673392,-1,1,0,1,-2,0,1,1
1528443300673392,0,-3,-1,-1,0,0,0,-1
1528443300681278,-2,-1,1,-1,0,0,-2,-1
1528443300681278,-1,1,1,0,0,0,-1,-1
1528443300695380,0,0,0,1,1,1,1,-1
1528443300695380,1,-2,-1,-3,-2,0,-2,0
1528443300703385,-2,0,1,0,-1,0,-1,-2
1528443300703385,-1,-2,-1,0,0,2,0,-2
1528443300710531,1,1,-1,1,1,0,-2,-1
1528443300710531,0,-1,-1,-2,-1,2,2,0
1528443300725326,0,-1,0,1,0,-1,0,-1
1528443300725326,-1,-1,-1,-1,0,0,-1,1
1528443300741328,-1,0,-3,-1,-1,-1,0,0
1528443300741328,-1,0,-1,-1,1,-1,-1,-2
1528443300756246,0,1,1,0,0,0,-1,0
1528443300756246,2,0,1,1,-1,-2,-1,1
1528443300770762,-2,-1,-1,-1,0,-1,0,-1
1528443300770762,-1,-2,-2,-2,-3,0,-2,-1
1528443300778735,-2,1,0,-2,-2,0,-2,-1
1528443300778735,-1,-1,0,0,1,-1,-1,-1
1528443300793695,-2,-2,-1,0,-2,-3,-3,0
1528443300793695,-2,0,-1,1,-1,-1,1,-1
1528443300808525,0,-1,1,-1,0,-1,1,0
1528443300808525,-1,0,-1,-1,0,-1,0,-2
1528443300823506,1,0,0,0,-2,-2,0,0
1528443300823506,1,1,-1,0,-2,-1,0,1
1528443300830438,-1,0,-1,-2,1,-2,-1,-1
1528443300830438,0,-1,1,-1,1,-2,0,1
1528443300845518,0,-1,1,-1,-1,2,-1,-1
1528443300845518,-2,0,1,0,0,-2,-1,-3
1528443300853613,0,-2,-2,-2,0,1,0,-2
1528443300853613,-1,0,-2,-2,-1,0,0,0
1528443300868447,0,0,-2,-2,1,0,1,0
1528443300868447,-1,0,1,0,-1,1,-1,-1
1528443300883424,1,0,0,0,1,0,0,1
1528443300883424,0,-2,0,-1,-1,-3,-3,-1
1528443300890579,-1,-1,-1,-1,0,-1,0,-1
1528443300890579,0,-2,-1,-2,-1,0,0,0
1528443300905535,-2,-1,-1,-1,0,0,1,0
1528443300905535,-1,0,1,-1,-1,-2,1,0
1528443300913336,0,1,-1,0,-2,-1,-2,0
1528443300913336,0,0,-1,-1,-1,-1,-1,0
1528443300928457,-1,-1,-1,-1,0,-1,-2,-1
1528443300928457,-1,-3,-1,-1,-1,-1,-2,-1
1528443300943417,-1,2,-1,0,-2,-2,-1,0
1528443300943417,1,0,-1,-2,-1,0,-2,0
1528443300951241,1,-1,1,1,-1,0,-2,1
1528443300951241,0,-1,0,0,-1,-3,0,-1
1528443300965403,-2,-2,-3,-1,0,-1,-1,-3
1528443300965403,0,2,1,-1,0,1,0,-2
1528443300973538,-1,-1,-1,-1,-2,-1,0,-1
1528443300973538,-1,-1,-1,-1,-1,0,-1,0
1528443300988460,0,-2,0,0,1,-1,1,0
1528443300988460,1,1,1,-2,-2,-1,-1,-1
1528443301003423,1,0,1,-1,1,0,0,0
1528443301003423,-2,-1,-1,-1,-1,0,-2,-1
1528443301010456,-1,0,0,0,1,0,-1,-2
1528443301010456,0,-2,-2,-1,0,-2,-1,0
1528443301025536,-3,-2,-2,-1,-1,-2,-2,-4
1528443301025536,-1,-2,0,-1,0,0,0,1
1528443301033506,-2,-1,-1,-1,-1,-1,-2,-1
1528443301033506,-1,2,0,0,0,1,0,0
1528443301048437,-2,-2,-1,-1,-1,-1,0,-1
1528443301048437,-2,-1,-2,-1,-2,-1,-1,-1
1528443301063398,0,-1,-1,-1,-1,0,-1,0
1528443301063398,-1,-1,-2,-1,-1,4,3,0
1528443301070379,0,0,0,-3,-1,-1,-1,0
1528443301070379,-1,-1,0,0,-1,-1,0,0
1528443301085337,2,-1,-1,-2,-2,-2,0,0
1528443301085337,0,1,-1,1,1,-3,-2,0
1528443301093316,-1,2,-1,0,-1,-1,-1,-2
1528443301093316,-2,0,-2,-2,-1,-1,-1,-1
1528443301108275,-1,-2,0,-1,1,0,0,-1
1528443301108275,-1,0,-1,0,0,-1,-1,0
1528443301123290,-2,-2,0,-2,-1,0,0,-1
1528443301123290,0,-2,0,-2,-2,-3,0,0
1528443301131249,1,1,-1,2,-2,-1,-1,-2
1528443301131249,-2,-3,-2,0,-1,0,-1,-1
1528443301146219,-2,0,0,1,-1,0,0,-1
1528443301146219,-1,-1,0,-1,-1,-1,-1,0
1528443301153208,-2,-1,1,0,0,1,0,0
1528443301153208,-1,0,1,-1,0,-2,1,-2
1528443301168175,0,-2,-3,-1,-2,-2,-1,0
1528443301168175,-1,-2,-1,-1,0,-1,0,0
1528443301183130,-1,0,0,-3,1,-1,0,0
1528443301183130,0,2,-1,2,0,-4,-2,0
1528443301191109,-2,-1,-1,-1,-2,-1,-1,-2
1528443301191109,0,-1,-1,1,0,-2,0,0
1528443301206070,1,-1,1,0,-1,1,0,-1
1528443301206070,-1,-4,-4,-2,0,1,-4,-2
1528443301213050,-1,1,1,-2,0,-1,1,-1
1528443301213050,0,-1,0,0,-1,-1,-1,0
1528443301235993,-2,-2,0,1,-1,-2,1,0
1528443301235993,-2,-1,0,0,0,0,-2,-3
1528443301250948,-1,0,-1,-1,0,-2,-1,-1
1528443301250948,0,0,1,0,1,1,-1,0
1528443301257931,1,0,-1,0,-2,1,0,1
1528443301257931,2,-1,0,-1,-1,-1,0,0
1528443301272888,-2,0,-2,-1,-2,-1,1,1
1528443301272888,-2,1,0,0,0,-3,-1,-1
1528443301280860,-1,-2,0,-1,0,0,-2,0
1528443301280860,1,0,0,-2,0,0,-2,-1
1528443301295829,0,-1,-1,-1,0,-1,-1,0
1528443301295829,-1,0,1,1,1,-2,1,0
1528443301302810,-1,-2,-1,-2,-1,-1,1,0
1528443301302810,-1,-1,0,0,-1,-1,-1,0
1528443301325707,-4,-2,-1,-1,-1,-1,-1,-3
1528443301325707,0,-1,-1,0,-2,-1,-1,-1
1528443301340713,-1,1,0,0,0,-1,0,1
1528443301340713,1,-1,-3,0,-1,1,0,0
1528443301348716,0,0,-1,1,-1,-1,-1,0
1528443301348716,-1,2,0,-1,0,1,-1,0
1528443301355671,-1,1,-1,-4,-2,-1,0,-2
1528443301355671,0,-1,-2,-1,0,0,-1,1
1528443301363648,0,0,-2,-1,1,0,1,1
1528443301363648,0,-2,-1,-1,0,-2,-2,0
1528443301370638,0,-1,-1,0,0,-1,-1,0
1528443301370638,0,0,1,0,0,0,1,0
1528443301393540,-2,-1,0,0,-2,0,-1,0
1528443301393540,0,-1,-2,-1,-1,-1,1,-1
1528443301400643,0,-1,-1,-2,-1,-1,0,-1
1528443301400643,-2,-3,-1,0,-1,0,0,-2
1528443301423814,-1,-3,-2,1,1,-1,0,0
1528443301423814,-1,0,-2,-1,-1,-1,1,0
1528443301431143,-1,0,-1,-1,-1,-1,-1,0
1528443301431143,-1,0,0,-1,-2,-3,0,-1
1528443301446100,1,1,0,0,-1,1,0,-2
1528443301446100,-1,-2,-1,-3,0,0,-1,0
1528443301452922,0,0,-1,-1,0,-1,0,-2
1528443301452922,-1,-1,-1,-1,-1,-1,-2,0
1528443301460901,-2,1,-1,0,0,-1,-1,-1
1528443301460901,-2,1,0,-1,-1,1,0,-1
1528443301475865,1,0,-1,-1,-1,2,-1,0
1528443301475865,0,0,-1,-1,-1,-2,0,0
1528443301491034,-1,-2,0,0,1,-1,-1,0
1528443301491034,1,0,-2,0,-2,0,-2,-1
1528443301506187,-1,-1,-1,-1,-1,-1,-1,-1
1528443301506187,-1,-2,-3,-1,-2,0,-1,-2
1528443301521263,0,0,-2,-1,-2,-1,-2,0
1528443301521263,-1,0,-2,1,0,0,0,1
1528443301536260,-2,-1,-1,-1,0,-3,-2,-1
1528443301536260,0,-1,1,1,1,1,0,0
1528443301543245,0,-2,-2,-2,-2,-3,-1,0
1528443301543245,0,0,0,1,-1,0,-1,-1
1528443301558166,0,-1,1,-1,0,-1,0,-1
1528443301558166,-1,0,-1,-1,-1,0,0,2
1528443301573541,-1,1,0,0,-1,0,-1,0
1528443301573541,-1,0,0,0,-1,0,-1,-2
1528443301588706,-3,0,0,-1,-2,2,1,-1
1528443301588706,-1,-1,-1,-1,-1,-2,-1,1
1528443301595690,-2,-2,-1,-1,1,-1,0,-1
1528443301595690,0,-1,0,-1,-1,-1,0,-1
1528443301610491,-1,1,-1,-1,0,1,1,0
1528443301610491,0,-2,-1,-1,0,0,-1,0
1528443301625678,-1,-1,-3,0,-2,-2,1,-1
1528443301625678,1,-2,0,0,-1,1,-1,0
1528443301633734,-2,1,1,-1,0,0,-1,-2
1528443301633734,0,1,0,-1,0,-1,-1,-1
1528443301648600,0,-2,1,2,-1,-1,-1,0
1528443301648600,-1,0,-1,0,1,0,-2,-1
1528443301655581,-1,-1,-1,1,-1,-1,-2,0
1528443301655581,-1,0,-1,-1,0,-2,-1,-2
