timestamp,emg1,emg2,emg3,emg4,emg5,emg6,emg7,emg8
1528186158196037,2,0,-8,-1,-2,1,0,1
1528186158196037,-1,1,10,-1,-1,-1,0,-1
1528186158196037,-2,0,-2,0,1,-1,-1,-4
1528186158196037,-1,-3,-1,3,0,-1,0,-3
1528186158210038,-4,-3,-2,0,-2,-1,-2,-3
1528186158210038,-2,0,-6,-4,-2,-1,1,2
1528186158210983,2,2,3,-1,-3,-1,0,1
1528186158210983,1,1,2,5,1,-1,0,1
1528186158232923,-1,-2,-6,-5,-1,0,0,-3
1528186158232923,1,-1,-7,-6,-3,0,0,0
1528186158232923,2,3,7,4,6,1,-2,0
1528186158232923,0,1,4,-1,-3,-1,-1,-1
1528186158255890,-3,-3,-1,0,0,-3,-2,-1
1528186158255890,-2,-3,-8,-15,-16,-5,-1,-3
1528186158256875,-2,-2,-2,2,0,0,-2,-3
1528186158256875,-1,0,-2,-1,-3,-1,-1,-1
1528186158269826,2,2,4,0,4,0,1,0
1528186158269826,1,3,4,10,7,-1,1,1
1528186158270824,-2,-4,-1,-4,-4,0,1,-1
1528186158270824,-2,-3,-2,0,4,0,0,-1
1528186158292798,-1,1,1,0,0,0,0,-1
1528186158292798,0,-4,-2,-2,-3,0,-2,-2
1528186158292798,1,-2,-4,2,0,-1,0,-1
1528186158292798,0,1,2,-4,0,1,-1,0
1528186158315729,-1,-2,-4,-2,-4,-3,0,-1
1528186158315729,0,1,2,2,2,-1,-1,-1
1528186158316737,-3,-1,1,0,3,0,-2,-2
1528186158316737,3,4,5,0,1,0,1,1
1528186158329696,-4,-8,-10,-2,-10,-5,-3,-2
1528186158329696,1,1,-3,0,3,1,0,-1
1528186158330664,-1,0,0,1,-1,-2,-1,0
1528186158330664,-2,-3,-2,-2,0,1,-1,-1
1528186158352657,1,4,7,4,4,2,0,1
1528186158352657,0,-3,-1,-7,-7,-2,1,0
1528186158353653,0,1,1,0,1,1,1,1
1528186158353653,-3,-2,-1,2,-2,-1,1,-1
1528186158375555,0,1,2,1,1,0,-1,1
1528186158375555,-1,-1,-3,-1,2,-1,0,0
1528186158376541,-2,-4,-4,2,-3,-1,-2,-1
1528186158376541,1,2,0,-13,-5,-3,-2,-2
1528186158390505,1,2,4,0,-1,2,0,1
1528186158390505,0,-2,-3,4,3,0,-1,0
1528186158390505,-1,-1,-2,-3,1,0,0,0
1528186158390505,-4,-2,0,2,0,0,-1,0
1528186158412445,-1,-2,-4,-4,-3,0,-2,-2
1528186158412445,-1,0,1,0,-1,0,-3,1
1528186158413443,-2,-3,-1,0,-2,-2,-1,-3
1528186158413443,1,-1,0,-1,-1,-1,0,0
1528186158435402,0,-1,3,-1,-2,-1,0,0
1528186158435402,-2,-3,0,2,0,3,1,0
1528186158436381,1,0,-4,-2,-1,-1,-1,0
1528186158436381,-2,0,2,-2,-5,-3,-2,-1
1528186158450343,0,1,1,-1,0,-1,-1,0
1528186158450343,1,-2,-4,5,3,-1,0,1
1528186158450343,0,1,0,-5,-3,-1,-1,0
1528186158450343,1,2,-2,-2,0,-2,0,0
1528186158472284,-2,-2,-2,-2,0,0,0,0
1528186158472284,0,0,2,-4,-2,-1,-1,-1
1528186158473299,0,0,0,2,2,1,2,3
1528186158473299,-2,-2,-3,1,-2,-1,-2,-1
1528186158503202,0,0,-1,-4,-1,0,0,-1
1528186158503202,-2,0,0,2,-1,-2,-2,-2
1528186158504199,-1,-2,-6,-2,-2,-1,-2,0
1528186158504199,-1,-1,-3,2,0,0,1,0
1528186158510184,1,1,4,6,3,1,0,-1
1528186158510184,-3,-3,-1,-5,-7,-2,-2,-1
1528186158511239,-1,-1,0,-5,-3,1,0,-1
1528186158511239,0,0,-1,-3,-1,-2,-1,-1
1528186158532163,-1,-5,-2,-3,-1,-1,0,-2
1528186158532163,1,2,0,4,0,1,1,0
1528186158533123,0,2,0,-5,-2,0,0,0
1528186158533123,-2,-3,-2,5,2,0,1,0
1528186158556060,-1,-2,-1,-2,-2,-1,-1,-2
1528186158556060,-1,1,2,0,2,-1,-2,-1
1528186158556060,-2,0,0,0,0,-3,1,-3
1528186158556060,1,0,1,-2,2,1,-1,0
1528186158569026,-1,-1,-3,-4,-2,-2,0,-1
1528186158569026,-1,-1,0,1,0,0,0,0
1528186158577006,1,-1,-1,-1,0,1,0,-2
1528186158577006,-1,-2,-1,-1,-2,-2,1,-1
1528186158592963,0,2,3,4,1,0,-1,0
1528186158592963,2,2,2,-2,3,1,1,0
1528186158593971,0,-4,-7,-2,-3,-4,-2,-2
1528186158593971,0,-3,-2,0,1,0,-1,-1
1528186158615943,-1,0,1,1,0,-2,-2,2
1528186158615943,0,2,2,1,1,-1,1,-1
1528186158615943,0,0,0,2,-1,0,-3,0
1528186158615943,-2,-4,-5,-3,-1,0,0,-3
1528186158628894,0,4,2,-1,-2,0,-1,-2
1528186158628894,2,2,1,1,-1,0,-1,1
1528186158637842,0,-3,1,1,-1,1,0,-1
1528186158637842,1,-2,-3,-1,-1,0,-1,0
1528186158660783,-4,-3,-2,-2,0,0,-1,-1
1528186158660783,0,-3,-2,-1,2,-2,-2,-2
1528186158661779,-1,-1,-2,-1,0,-1,-2,-1
1528186158661779,-2,0,-4,-2,-2,-2,-2,-2
1528186158675742,1,1,2,3,1,1,0,-1
1528186158675742,-2,-2,-1,-5,-6,0,0,1
1528186158676777,-2,0,4,10,5,-1,0,-1
1528186158676777,0,2,2,-5,-4,-2,0,-1
1528186158689703,0,-1,-3,6,0,-2,0,-3
1528186158689703,-1,0,-2,-10,-2,-2,-1,-1
1528186158697682,-1,-2,1,-3,-2,-1,0,0
1528186158697682,-1,2,2,2,0,1,0,1
1528186158736635,0,2,0,-3,-2,-1,-1,1
1528186158736635,0,-2,0,3,0,1,0,-1
1528186158737576,0,3,-1,1,-1,0,-1,0
1528186158737576,0,1,1,0,0,0,0,-2
1528186158739571,-2,-5,-2,-2,-1,0,-1,-1
1528186158739571,-1,2,-1,0,-1,-2,-1,-1
1528186158743561,0,-2,-1,1,1,0,0,-1
1528186158743561,0,-1,-1,-6,-1,0,0,0
1528186158749595,-1,0,-1,-2,-1,0,-1,-1
1528186158749595,-3,-2,-2,0,-1,1,-1,-1
1528186158758521,-1,0,-4,-2,-1,0,-1,0
1528186158758521,2,0,2,2,0,2,0,0
1528186158771537,-1,-1,1,-1,-2,-2,-1,0
1528186158771537,-1,0,0,0,2,-1,-2,0
1528186158780460,0,-2,0,-1,-1,0,-1,-1
1528186158780460,-1,-3,-3,-1,0,0,-1,-1
1528186158794479,-2,1,1,0,0,0,0,1
1528186158794479,-1,-1,2,1,-3,0,-1,-2
1528186158803401,1,-1,0,0,2,0,0,-1
1528186158803401,-1,-1,-1,1,0,-2,-1,0
1528186158809438,-1,-1,0,-1,-1,-1,0,0
1528186158809438,1,1,-2,2,0,0,1,1
1528186158818374,-3,-1,-2,-4,-5,-3,0,0
1528186158818374,-1,-2,0,-1,-1,-1,-1,-1
1528186158832326,0,-2,-4,-3,1,1,0,-1
1528186158832326,-2,-3,-2,-1,-1,0,-1,-2
1528186158840300,1,2,3,-4,1,0,-1,0
1528186158840300,-1,1,3,8,3,0,1,-1
1528186158855313,2,-2,-2,-5,-2,-2,1,0
1528186158855313,-1,0,1,0,-1,0,0,-1
1528186158857257,-2,-1,0,0,0,-1,-2,-2
1528186158857257,-1,-1,-2,-1,-3,-1,-1,0
1528186158869223,3,3,2,-1,-1,-2,-1,0
1528186158869223,-2,-5,-5,-3,-1,-1,-1,-1
1528186158878204,-1,2,1,-5,-2,-1,1,-1
1528186158878204,-1,0,3,8,1,-1,-2,1
1528186158892162,0,-1,0,-1,0,0,1,-1
1528186158892162,0,-1,0,0,-2,-1,-1,1
1528186158899143,-2,-2,-2,1,0,0,1,-1
1528186158899143,-2,-2,-2,-1,0,1,0,-1
1528186158916325,0,-1,1,0,-1,-1,-1,-1
1528186158916325,0,-1,-1,1,0,0,0,-2
1528186158917103,0,-2,-2,1,-1,-1,-1,0
1528186158917103,0,0,0,-3,-3,0,1,-2
1528186158929639,-1,-2,-1,-1,-2,-2,-2,-2
1528186158929639,0,0,-3,0,-1,0,-1,-1
1528186158938343,1,2,2,2,1,-2,0,0
1528186158938343,-2,0,-1,-2,-2,-2,-2,-2
1528186158952309,-2,0,-3,-1,0,0,1,-1
1528186158952309,-2,0,-1,-3,1,-1,-1,0
1528186158959290,-2,-1,0,-1,0,0,-1,1
1528186158959290,1,0,1,-4,0,-1,-2,0
1528186158977461,-1,-1,-1,1,-1,-1,0,0
1528186158977461,2,-1,-2,-3,-3,-1,-1,2
1528186158982239,-1,-1,-2,0,-2,0,0,-2
1528186158982239,0,-1,1,4,1,-1,1,-1
1528186158998497,-3,-3,-3,-3,-1,-1,-1,0
1528186158998497,0,-1,-1,-1,-1,-1,0,-1
1528186158999470,1,2,-1,-2,-1,1,-1,0
1528186158999470,-2,-1,-2,0,-2,0,0,0
1528186159012436,-2,1,2,2,0,-1,-2,0
1528186159012436,-1,0,2,1,0,-1,0,-1
1528186159019526,0,-1,0,0,-1,-1,0,0
1528186159019526,1,1,-2,-4,0,0,0,-2
1528186159034395,0,0,-2,1,1,1,1,-1
1528186159034395,-1,-1,1,2,-2,0,-1,1
1528186159043350,-1,-3,-3,-7,-2,0,-1,-2
1528186159043350,-2,-2,-4,-1,-2,0,-1,-2
1528186159058312,-1,0,1,1,-2,-1,-1,0
1528186159058312,1,0,0,1,0,-1,-1,0
1528186159059308,0,-1,-1,2,2,0,-3,0
1528186159059308,0,-1,-1,0,3,1,0,1
1528186159080252,-1,0,-2,-3,-2,-1,-2,0
1528186159080252,1,-2,-1,0,-1,-1,-1,-1
1528186159082247,-1,-2,-3,-2,-3,0,-1,-1
1528186159082247,-1,-2,-1,-1,0,0,-2,-1
1528186159094443,1,-1,0,2,-1,-1,0,-2
1528186159094443,-1,1,-1,-3,-1,1,1,-2
1528186159103228,1,-1,1,1,0,-1,1,1
1528186159103228,0,-2,-1,4,2,-1,-2,0
1528186159126364,-1,-1,0,-4,-3,-2,-1,0
1528186159126364,1,3,-2,-2,-1,-1,0,0
1528186159127135,-1,-4,0,3,0,-1,-1,-2
1528186159127135,-2,-2,-5,-4,-3,-2,-1,-1
1528186159141493,-1,5,4,-2,-1,-1,0,2
1528186159141493,-2,0,0,7,3,0,-2,-1
1528186159142087,-1,0,1,0,0,-1,-1,-1
1528186159142087,0,0,1,1,0,1,-1,-1
1528186159155132,1,-1,-2,-2,-1,0,-1,0
1528186159155132,0,0,0,1,1,0,0,2
1528186159163211,-3,-3,-4,-7,-5,-1,-1,0
1528186159163211,-2,-1,-2,-2,-2,-1,-1,1
1528186159178545,0,-2,-2,-2,1,-1,0,-3
1528186159178545,-1,0,1,-3,-1,0,0,-2
1528186159180551,0,-1,0,0,4,0,1,-1
1528186159180551,0,-2,2,-4,-10,-1,0,-1
1528186159201277,2,4,3,8,3,0,0,0
1528186159201277,-1,-4,-2,-2,-2,-2,-2,-1
1528186159202221,-2,0,-3,-2,-2,-1,-2,-1
1528186159202221,-1,0,1,-4,0,0,-1,0
1528186159214697,0,-3,0,1,0,0,0,0
1528186159214697,0,0,1,0,-1,-1,0,-1
1528186159223429,-1,0,0,-6,-2,-1,-1,0
1528186159223429,1,0,-4,0,1,0,-1,0
1528186159238925,0,8,7,3,0,2,-1,2
1528186159238925,-2,-1,-1,-4,-1,-1,-1,-1
1528186159239847,0,-2,-3,1,0,-1,1,0
1528186159239847,1,-1,-1,1,6,-2,0,-2
1528186159261052,-3,-8,-9,-13,-15,-3,-1,-1
1528186159261052,-2,3,2,5,1,-2,-1,-2
1528186159262056,0,1,2,3,1,1,-2,0
1528186159262056,-2,1,2,-4,-2,-2,-1,1
1528186159274754,-3,-5,-5,-1,2,0,-2,0
1528186159274754,3,1,1,-1,-1,0,-1,1
1528186159283730,0,-3,-2,0,-1,-1,-2,-1
1528186159283730,-3,-2,-1,-2,-1,0,-1,-2
1528186159298848,1,-2,0,0,1,1,-1,0
1528186159298848,0,-1,-2,-1,-3,-1,-1,0
1528186159299694,0,1,0,-2,-2,0,0,-1
1528186159299694,0,1,-1,1,0,-1,-1,-1
1528186159320987,-1,-1,0,-1,2,-1,0,0
1528186159320987,-1,-3,-3,-4,-1,0,-1,-1
1528186159322627,1,1,0,1,-1,0,-2,-1
1528186159322627,-1,-1,-1,-1,-2,-1,-1,-1
1528186159335052,0,-2,-1,-1,0,-2,-1,-1
1528186159335052,0,-1,-1,0,0,0,-2,0
1528186159343603,-1,1,-1,1,-1,-2,-2,0
1528186159343603,1,0,-1,0,-1,0,-1,0
1528186159358263,-1,-1,-1,1,2,-1,0,-1
1528186159358263,-2,-1,0,-2,0,-1,0,-2
1528186159364563,-1,-1,-3,1,0,0,0,-1
1528186159364563,-1,2,1,-1,-3,-1,1,-2
1528186159381373,-1,-1,-1,0,0,-1,-2,0
1528186159381373,-1,-1,0,-2,-1,-2,1,0
1528186159382159,1,0,-1,-2,1,-1,1,0
1528186159382159,0,0,1,0,0,-2,0,1
1528186159395164,0,1,-1,0,-1,0,2,0
1528186159395164,-1,-2,-3,-1,0,0,0,-1
1528186159403334,0,0,0,0,0,1,-1,-1
1528186159403334,1,-2,0,0,0,0,-1,-2
1528186159426434,-1,-1,-1,0,1,-2,-2,0
1528186159426434,0,-1,-3,-1,-1,0,-1,-1
1528186159428105,0,1,-1,-1,0,-1,1,-2
1528186159428105,0,-1,1,-1,-1,-3,1,0
1528186159441449,-2,-1,-2,0,0,-2,-2,-1
1528186159441449,-1,-3,-2,-1,0,0,-1,-2
1528186159442445,-1,0,1,0,-2,-1,-1,0
1528186159442445,-1,-1,1,1,0,-1,-1,1
1528186159464750,0,0,-1,-1,-2,1,0,-1
1528186159464750,-2,0,-1,-1,-1,0,0,0
1528186159467743,1,0,0,1,1,0,0,0
1528186159467743,1,-1,-1,-1,-3,-1,-1,0
1528186159469737,-2,-2,-2,0,1,-1,0,-1
1528186159469737,-2,0,-1,-2,-4,-1,-2,1
1528186159493934,-2,-2,-2,0,-2,-1,-1,0
1528186159493934,-1,-1,0,1,-1,0,0,0
1528186159495667,0,1,2,-1,-3,0,-1,-1
1528186159495667,0,1,0,0,0,-1,0,0
1528186159499677,-2,0,-2,-2,0,0,-3,-1
1528186159499677,-1,-1,-1,-1,-1,0,-2,0
1528186159506643,-3,1,-1,-1,0,0,-2,-1
1528186159506643,-1,-1,-2,0,-2,-1,0,-2
1528186159517609,-1,-3,-1,0,-2,-2,-1,1
1528186159517609,-2,1,-2,0,1,-1,-2,-1
1528186159529613,-1,-1,0,-1,-1,2,0,1
1528186159529613,0,0,0,-2,1,-1,-2,0
1528186159538224,0,0,0,-2,-2,-1,-1,-1
1528186159538224,-3,-1,-1,-1,-1,-1,0,0
1528186159553298,0,0,-1,0,-1,-1,1,0
1528186159553298,-1,-3,0,0,1,-2,1,0
1528186159559071,-1,-1,-1,2,0,0,-1,-1
1528186159559071,-2,-3,0,-1,1,0,-1,-3
1528186159567053,-1,0,0,0,-2,0,0,-1
1528186159567053,-1,0,-1,-1,-2,-1,0,1
1528186159575417,0,1,0,-1,-1,0,0,0
1528186159575417,1,0,-4,-1,2,2,0,1
1528186159589379,-1,-3,-1,-3,-3,-1,0,0
1528186159589379,0,-1,0,1,-3,-1,-1,-1
1528186159598356,-2,-3,-1,-1,-1,-2,0,1
1528186159598356,1,1,2,1,2,0,-1,-1
1528186159612562,2,-1,-2,-2,2,-2,-4,-1
1528186159612562,0,1,-1,2,0,0,-2,-2
1528186159619540,1,-1,0,4,0,-1,-1,-1
1528186159619540,-1,-1,-1,-2,-4,-2,-1,0
1528186159627410,-1,-1,-1,2,2,-2,-1,0
1528186159627410,-1,0,0,-3,-1,0,-2,-2
1528186159636272,1,2,1,-2,-1,1,1,1
1528186159636272,1,1,-4,2,0,0,-1,1
1528186159649461,-3,-5,-5,-9,-2,-1,-1,-1
1528186159649461,-2,-3,0,-3,-3,-2,0,-1
1528186159658197,-1,0,-3,-7,-1,0,0,-2
1528186159658197,0,2,5,4,0,-2,-1,-1
1528186159672520,0,1,2,6,2,1,0,-1
1528186159672520,-1,-1,-3,-1,0,0,-2,-2
1528186159687776,-1,-2,0,-1,0,-1,0,-1
1528186159687776,-1,-1,-3,-4,-2,-2,1,-1
1528186159688441,-1,-2,-1,-2,-1,-1,0,-1
1528186159688441,-1,-1,0,1,-1,-1,1,-1
1528186159695673,0,-2,-1,3,-2,-2,-1,0
1528186159695673,0,0,-1,-2,-2,-2,-1,1
1528186159709383,-1,1,2,3,0,-1,1,-1
1528186159709383,1,-4,-8,-7,0,-1,-2,1
1528186159718359,-2,-1,1,0,-1,-1,-1,1
1528186159718359,-1,-3,2,0,-1,-2,-1,-2
1528186159732958,1,1,-1,-1,0,0,0,0
1528186159732958,2,1,3,5,1,2,2,0
1528186159739608,0,2,-1,3,1,-2,0,0
1528186159739608,-3,-4,-2,-10,-7,-2,-3,-3
1528186159755911,-3,-9,-10,-3,-5,-4,-1,-3
1528186159755911,-1,-1,-3,-4,-1,-2,-1,0
1528186159757561,-4,0,3,7,2,-1,-1,-2
1528186159757561,1,1,-9,-2,2,1,2,2
1528186159769792,3,9,22,9,1,2,1,2
1528186159769792,0,-2,-8,-10,-2,-1,0,-1
1528186159784492,0,-4,-4,-2,-3,-2,0,-1
1528186159784492,1,1,12,12,4,1,0,1
1528186159792468,1,-3,-15,-11,0,-1,-2,-1
1528186159792468,-2,-2,-1,-1,-5,-3,-1,-3
1528186159799696,2,4,5,3,3,2,1,1
1528186159799696,-1,-2,-1,-1,0,-1,-2,-2
1528186159816403,1,4,2,1,4,1,3,2
1528186159816403,0,1,3,5,2,2,0,-1
1528186159817401,-3,-4,2,2,-3,-2,-2,-2
1528186159817401,4,3,-4,3,2,2,2,2
1528186159829672,-4,-1,9,2,-1,-1,-3,-3
1528186159829672,-1,-2,-10,-3,4,0,1,-2
1528186159838647,-5,-4,5,1,-3,-4,-2,-2
1528186159838647,-4,-6,-12,-8,-5,-5,-2,-2
1528186159854780,3,2,-5,2,-1,1,1,0
1528186159854780,0,1,4,-1,-1,-1,-1,0
1528186159859890,-4,-5,-11,-21,-1,-1,-2,-4
