timestamp,emg1,emg2,emg3,emg4,emg5,emg6,emg7,emg8
1528447689083567,-1,1,1,-1,-2,-1,-2,0
1528447689083567,-1,-1,-3,-2,-1,0,0,-1
1528447689086559,-2,-1,-1,0,0,0,0,-1
1528447689086559,-1,3,2,-2,-1,-1,-1,1
1528447689094538,0,-1,-2,0,0,-1,1,0
1528447689094538,1,0,1,-1,-1,0,1,0
1528447689101519,-2,1,-2,-1,-3,-1,-1,1
1528447689101519,0,-2,-1,-1,0,1,0,-1
1528447689112489,-1,-1,-1,0,0,0,-2,0
1528447689112489,-1,0,-1,-1,1,-1,-2,-1
1528447689124457,-2,-2,1,-3,1,-1,-1,0
1528447689124457,1,-2,-2,0,-1,-1,-2,-2
1528447689131440,-1,-1,1,-1,0,0,1,-1
1528447689131440,-1,0,-1,0,-2,-1,0,0
1528447689146399,0,0,0,0,-1,-1,-1,-1
1528447689146399,-1,-1,1,-1,-1,0,0,0
1528447689157369,-1,-1,1,-1,-1,0,-1,0
1528447689157369,0,-2,1,-1,1,0,-1,-3
1528447689169338,-1,0,-1,-1,-2,0,0,-1
1528447689169338,-1,-1,-1,0,0,-1,-1,0
1528447689176319,-2,1,-3,0,-1,-1,0,-2
1528447689176319,-1,-2,0,1,-1,0,-2,1
1528447689193274,1,-2,0,0,-2,-2,-2,0
1528447689193274,0,0,-2,0,-2,-3,-2,-2
1528447689199257,-2,-1,-1,0,-2,1,1,-1
1528447689199257,-1,0,0,0,0,0,0,-1
1528447689208234,0,-1,0,-1,-1,0,0,-1
1528447689208234,-2,-1,-1,0,0,1,0,-2
1528447689214218,0,-1,0,-1,-3,-1,-3,-1
1528447689214218,-2,0,-2,-1,0,0,0,-2
1528447689229177,-1,-1,-3,-2,0,-1,1,-1
1528447689229177,-1,-1,0,1,-2,0,1,-1
1528447689237156,-1,-1,-1,1,1,-1,-1,0
1528447689237156,-1,-1,0,-1,0,-1,-1,-2
1528447689252118,0,0,1,-1,1,-2,-1,-1
1528447689252118,-2,0,-2,-2,0,-2,0,-1
1528447689262090,0,1,-2,-1,0,1,-1,0
1528447689262090,1,-1,0,0,-1,0,0,1
1528447689267076,-1,-1,1,-1,-1,0,1,-2
1528447689267076,0,0,0,-1,0,-2,0,-2
1528447689274058,0,0,0,1,-1,-1,0,0
1528447689274058,-2,0,0,-1,-1,-1,-1,1
1528447689296997,0,0,-1,-1,0,0,-2,-2
1528447689296997,0,-2,-2,0,0,0,-1,2
1528447689303978,-1,-1,0,-1,0,-2,1,-1
1528447689303978,0,0,-2,0,-2,-1,-1,0
1528447689326916,0,-1,-2,0,0,0,0,-1
1528447689326916,-1,-1,0,-2,-2,1,0,-2
1528447689334895,-1,0,-1,-2,0,-1,0,-1
1528447689334895,0,-1,0,1,-2,-1,0,0
1528447689341877,0,-1,-1,1,-1,0,0,0
1528447689341877,1,-1,-2,-1,0,0,0,-1
1528447689348858,-1,-3,1,0,-1,0,-2,-1
1528447689348858,0,0,-2,0,0,-2,-1,-1
1528447689356837,0,0,-1,-1,0,-1,0,-1
1528447689356837,-2,1,0,-1,-1,-1,1,0
1528447689363824,-1,1,-1,-2,-2,-1,0,-1
1528447689363824,-2,-1,-1,-2,-1,0,-2,-1
1528447689393738,0,-3,-1,1,0,-1,-1,-2
1528447689393738,-1,0,-1,-2,0,-2,-2,-1
1528447689401717,-2,-1,0,-1,0,-1,-1,-1
1528447689401717,0,-1,-1,-1,-1,-1,-1,0
1528447689409696,-1,-1,-2,-1,-1,0,-1,0
1528447689409696,-1,2,0,0,0,-3,-1,0
1528447689416677,-1,-2,-1,-1,1,-1,0,0
1528447689416677,0,-1,-2,0,0,-1,-1,-1
1528447689431638,0,2,0,-2,-1,0,-2,-1
1528447689431638,0,-2,-2,-1,-2,2,0,0
1528447689439616,-1,0,-2,1,0,1,2,-1
1528447689439616,-2,-1,0,-1,-1,-1,0,-2
1528447689446597,-1,0,-2,-1,-1,-1,0,-2
1528447689446597,0,-2,0,-1,0,0,0,-2
1528447689454575,0,0,0,0,-1,-2,-1,-2
1528447689454575,0,-1,-1,-2,-1,1,-1,1
1528447689469535,-2,-1,-1,-1,0,1,-1,1
1528447689469535,0,0,1,-2,1,-1,-1,-2
1528447689476516,0,0,0,-1,-1,-1,-1,1
1528447689476516,-2,-2,-2,-1,0,-2,0,0
1528447689491478,-2,-1,0,-2,-2,0,0,1
1528447689491478,-2,-1,-2,0,-2,-1,-2,1
1528447689506484,2,-1,-1,-2,-1,0,-1,-1
1528447689506484,0,-1,-1,2,0,0,-1,-1
1528447689514415,0,-1,1,0,-1,-1,1,0
1528447689514415,-1,-3,0,-1,0,-2,-1,0
1528447689521454,-1,-1,-1,-2,-1,-1,-2,-1
1528447689521454,0,0,-1,-2,-1,0,0,1
1528447689536358,0,0,-1,1,0,-2,1,-1
1528447689536358,0,0,1,1,-2,1,1,-1
1528447689559295,-1,0,-1,-2,-2,-1,-1,0
1528447689559295,-1,0,0,-1,-1,1,-3,0
1528447689574255,-1,0,1,0,0,-1,-2,2
1528447689574255,0,-1,0,-2,-1,0,0,-1
1528447689581237,0,0,0,0,1,-1,-1,-1
1528447689581237,-1,1,-1,-1,1,0,0,-1
1528447689589219,-2,0,-1,-1,0,1,0,-2
1528447689589219,-1,-1,1,0,0,-1,-1,-1
1528447689604177,1,1,-1,0,0,-2,-1,0
1528447689604177,-2,-1,0,-1,-1,0,0,-1
1528447689612154,0,1,-1,1,-1,0,0,0
1528447689612154,1,1,-1,0,-1,1,-1,0
1528447689619141,1,-2,1,0,-2,-1,0,-1
1528447689619141,0,-1,-2,-1,0,-1,-1,-1
1528447689627115,-1,0,0,0,-2,0,-3,-2
1528447689627115,-2,0,-2,0,1,0,1,1
1528447689634096,-2,-2,-1,-1,-1,0,-1,-1
1528447689634096,-1,1,0,-1,-2,0,0,-1
1528447689649056,-1,-1,-1,0,-2,-1,2,0
1528447689649056,0,1,-1,0,-1,-1,1,-3
1528447689657034,2,-1,-1,1,-1,-1,0,-1
1528447689657034,0,-1,-1,0,-2,0,-1,0
1528447689671994,-2,-2,1,-1,-1,0,0,-1
1528447689671994,-1,-1,0,-1,-1,-1,0,1
1528447689678977,-2,-1,-3,-1,1,-1,1,1
1528447689678977,0,-1,-2,-2,0,-1,-2,-2
1528447689687002,-2,-1,1,0,-1,0,-1,-1
1528447689687002,-1,-1,0,0,0,-1,0,1
1528447689693985,-1,1,0,0,1,0,0,0
1528447689693985,-1,-1,1,0,-1,0,-1,1
1528447689708943,0,0,-3,-2,0,-1,-2,-1
1528447689708943,-1,0,-1,0,0,-2,-1,-2
1528447689716922,-1,-1,-1,-1,-2,-1,0,-1
1528447689716922,0,-1,-1,0,-1,-1,1,-1
1528447689738863,0,-1,0,-1,0,-1,0,0
1528447689738863,0,-1,0,-1,0,-1,-1,0
1528447689746842,-2,-1,-1,-1,1,-2,-1,0
1528447689746842,1,-2,-1,1,0,-1,-3,-2
1528447689761802,-1,-2,-2,0,0,0,0,0
1528447689761802,0,-1,0,-1,-1,-1,-2,-1
1528447689768785,-1,1,0,-2,-1,0,-1,-2
1528447689768785,-1,1,-1,-1,-1,-1,0,1
1528447689783743,-1,-2,-2,-1,-1,-1,0,-1
1528447689783743,-2,-1,-1,-1,0,0,-1,0
1528447689791761,-2,0,-1,0,0,1,0,0
1528447689791761,-2,-1,-1,-1,0,-2,-1,-1
1528447689806689,1,-2,0,1,-1,1,-1,-1
1528447689806689,-1,0,0,-2,0,-2,-1,0
1528447689814660,1,-1,0,0,0,-1,0,-1
1528447689814660,-1,1,1,-1,0,0,2,0
1528447689829622,-1,-1,1,1,0,-1,-2,-2
1528447689829622,-1,-1,-1,0,0,0,-2,0
1528447689844615,0,-1,-1,1,1,-1,-2,-2
1528447689844615,-1,0,-2,-6,-7,-2,-1,-2
1528447689859577,-2,0,-2,0,2,0,-2,-1
1528447689859577,0,-1,-1,0,-1,0,0,-1
1528447689881978,1,-1,0,0,0,-2,0,0
1528447689881978,-1,-1,0,3,0,0,-1,-1
1528447689889755,-1,-1,-1,-3,-1,0,-1,0
1528447689889755,-1,-2,-1,0,0,-1,1,1
1528447689896712,-1,-1,-2,-1,0,0,1,-1
1528447689896712,-1,-2,-2,1,-1,0,-1,-1
1528447689904691,1,-1,-1,1,-2,0,-1,-2
1528447689904691,-1,-1,0,-1,0,1,-2,-1
1528447689911672,0,-2,0,-3,-1,-1,0,-2
1528447689911672,1,1,-1,0,0,-2,-1,-2
1528447689926635,0,-1,-1,-1,-3,-1,0,-2
1528447689926635,-1,0,2,0,0,2,-1,-1
1528447689934063,-1,0,0,0,-2,-1,0,2
1528447689934063,0,0,-2,-2,-1,-2,-1,1
1528447689949267,0,1,0,2,1,0,-1,0
1528447689949267,0,-1,-1,-2,-1,0,-2,0
1528447689957246,2,-1,-1,0,-2,-1,-2,0
1528447689957246,-1,1,-1,-1,-1,0,0,-1
1528447689971962,-1,0,-1,-1,0,-2,-1,1
1528447689971962,-1,-1,-1,0,2,-1,1,1
1528447689978943,-1,-3,-1,0,-2,0,1,-1
1528447689978943,0,-2,-1,0,0,-2,-1,-1
1528447689986923,1,0,-2,0,1,-2,-1,1
1528447689986923,-1,-2,1,-1,-1,1,1,-1
1528447689994942,1,-2,1,-1,1,0,0,0
1528447689994942,-1,1,0,1,0,-1,0,-2
1528447690009537,0,0,0,0,1,1,0,0
1528447690009537,0,0,-1,-1,0,0,-1,-1
1528447690016828,0,0,-1,-2,-3,-2,0,-2
1528447690016828,-1,-1,0,0,0,-1,-1,-1
1528447690032179,-2,-2,-1,1,-2,-1,-3,0
1528447690032179,1,1,-1,1,0,1,-1,-2
1528447690040043,-1,-1,-1,1,0,0,-1,0
1528447690040043,0,-1,0,-1,2,-2,-1,-2
1528447690046841,0,0,-2,-3,-2,-3,0,-2
1528447690046841,1,-1,-1,-1,0,-1,0,-1
1528447690054405,-1,-1,-1,-2,0,0,0,0
1528447690054405,0,-2,-1,0,0,-1,-1,0
1528447690070063,0,-1,0,-1,0,-1,-1,-1
1528447690070063,-1,-1,-1,-3,-1,-2,0,0
1528447690077336,2,0,-1,1,1,0,-1,-1
1528447690077336,-4,-2,-2,0,-2,1,-1,0
1528447690091276,0,-1,0,-2,1,-1,0,-2
1528447690091276,-1,-1,0,-1,-2,0,0,-1
1528447690107232,-1,-2,-1,0,0,0,0,0
1528447690107232,-2,1,-1,0,-2,0,0,0
1528447690114301,1,-1,-1,-1,-3,-1,-1,0
1528447690114301,-2,-2,-1,0,-2,-1,0,0
1528447690122600,-1,0,1,-1,0,-2,-3,-1
1528447690122600,1,0,-1,0,1,-1,1,-1
1528447690136905,-1,0,0,-2,0,1,1,0
1528447690136905,-1,-1,-1,0,-2,0,0,0
1528447690144883,0,-2,-1,-3,-1,-1,0,-1
1528447690144883,0,0,-1,-2,-1,-1,-2,-1
1528447690152078,0,-2,-1,0,0,-1,-1,-1
1528447690152078,-1,-1,-1,0,0,-1,0,-1
1528447690160099,0,1,-2,-2,-1,-2,-1,1
1528447690160099,0,0,1,-1,0,-2,-1,0
1528447690167079,-3,1,-1,0,-1,0,0,0
1528447690167079,-1,1,-2,-2,0,-2,-1,-1
1528447690175054,0,-1,0,1,-1,-1,-1,1
1528447690175054,-1,-1,0,-2,-1,1,0,-1
1528447690189242,1,0,0,-2,-1,0,-1,0
1528447690189242,-1,-1,-2,-2,-2,-1,-2,0
1528447690197221,0,-1,1,-1,-2,0,0,-1
1528447690197221,0,-1,-2,1,-1,1,-1,2
1528447690212188,0,0,-2,2,2,1,-1,0
1528447690212188,0,-3,0,-1,1,1,-1,-1
1528447690219946,-3,-1,-1,-3,-4,-2,-3,0
1528447690219946,0,-1,1,-1,-1,0,-1,-1
1528447690227140,-1,-1,0,-1,0,-1,-1,-1
1528447690227140,-1,1,0,2,1,0,-1,-1
1528447690234199,-1,0,0,0,1,-1,0,-1
1528447690234199,0,-2,0,0,1,0,-1,-2
1528447690249424,-2,0,-1,-2,-1,-1,-1,2
1528447690249424,0,-2,0,-1,0,0,-3,1
1528447690257442,-1,1,-1,1,-1,-2,0,0
1528447690257442,0,0,-3,-2,-2,-1,0,-1
1528447690272557,-1,0,0,-1,-1,0,1,-2
1528447690272557,0,-1,0,1,-3,2,-1,0
1528447690287432,-3,-1,-1,-1,1,0,-1,1
1528447690287432,0,-2,-2,1,0,-2,-1,0
1528447690294083,0,0,-1,-1,-1,-1,2,-3
1528447690294083,0,-1,0,-2,-1,-2,-2,-1
1528447690301361,0,1,1,0,2,1,0,-1
1528447690301361,1,0,-1,0,2,-3,-1,1
1528447690316321,-1,-2,-2,-4,-6,-1,-2,-1
1528447690316321,-2,-2,-1,0,-1,0,-2,-1
1528447690324300,-1,-1,0,-1,0,0,1,-1
1528447690324300,-1,0,1,0,0,0,0,-1
1528447690339264,0,-2,-1,0,1,-2,-2,0
1528447690339264,0,1,-2,-2,-2,-1,-1,1
1528447690346295,-1,-1,-2,0,-1,-2,-1,0
1528447690346295,-1,-1,0,0,-4,-2,-1,-1
1528447690354258,2,0,0,0,0,-1,0,1
1528447690354258,1,-1,-1,0,1,0,0,-1
1528447690392153,-2,3,1,0,-1,-1,0,-1
1528447690392153,1,1,-1,-2,1,0,0,0
1528447690407130,-1,0,-2,-2,-2,1,0,-1
1528447690407130,-1,-1,0,-1,-2,0,-1,-3
1528447690414100,-1,-1,-2,1,0,1,-2,-3
1528447690414100,0,-1,0,1,-1,-2,0,0
1528447690451958,0,-1,-3,1,0,1,0,0
1528447690451958,0,-1,-2,1,-1,0,-1,0
1528447690458973,0,-1,0,1,0,-1,0,-2
1528447690458973,0,1,0,-2,0,-1,-2,-2
1528447690473958,-2,-1,-1,-2,-1,-1,-1,-1
1528447690473958,-1,-1,0,-1,0,1,-1,-1
1528447690481932,0,0,-1,1,1,-1,-1,-2
1528447690481932,0,-2,-2,1,0,-1,-1,0
1528447690488914,0,-1,-1,-1,1,2,1,-3
1528447690488914,-1,0,1,-3,-1,-2,0,-1
1528447690503874,-1,0,1,-1,-2,-1,0,-1
1528447690503874,-1,-2,0,0,1,-1,1,0
1528447690511799,-2,-1,0,-1,0,0,-1,-1
1528447690511799,0,-1,-1,-1,1,0,0,0
1528447690526811,1,1,-1,1,-2,1,-1,1
1528447690526811,-1,-1,-2,-1,-3,-1,-2,1
1528447690533792,-1,0,-1,-2,-1,-1,-1,0
1528447690533792,-1,0,-1,-1,2,-2,0,1
1528447690549737,1,0,-2,-2,-2,0,-1,-1
1528447690549737,-1,-1,-1,0,0,0,-1,-2
1528447690564713,-1,1,1,0,1,-2,-2,-2
1528447690564713,2,0,-2,-1,0,-1,-1,-1
1528447690571695,-1,2,-1,-1,1,0,0,0
1528447690571695,1,-3,0,-1,0,0,0,-3
1528447690586632,-2,-1,0,-1,-2,-1,0,0
1528447690586632,0,-1,0,-2,0,0,-1,0
1528447690594611,0,-1,-1,-2,0,0,-2,0
1528447690594611,0,1,-2,-1,0,-1,0,-1
1528447690609537,1,-2,-2,-1,1,-1,1,2
1528447690609537,-1,0,1,-1,0,-1,-2,0
1528447690624498,-2,-1,-2,1,0,0,-2,-1
1528447690624498,-1,-1,0,0,-2,-1,0,0
1528447690631732,-1,-2,-2,-1,-1,-2,-2,-1
1528447690631732,-2,-2,0,-1,-1,-1,0,0
1528447690647006,0,0,0,-3,1,-1,-2,0
1528447690647006,-2,-2,-1,0,0,0,0,0
1528447690661966,0,-1,-1,-1,0,1,-2,0
1528447690661966,0,0,-3,-1,0,-1,2,0
1528447690676925,-2,-2,-2,0,-1,0,0,0
1528447690676925,-1,-1,-1,0,0,0,0,-1
1528447690692079,0,-2,0,-2,1,-2,-1,-1
1528447690692079,-1,1,-2,-1,-2,0,-1,-1
1528447690699594,-1,-1,0,0,1,0,1,0
1528447690699594,-1,1,1,-1,-1,-1,-2,-1
1528447690707231,-2,-1,1,-1,-1,0,-1,-1
1528447690707231,0,-1,0,-2,-2,-1,-1,-1
1528447690714478,0,-1,-1,1,0,1,1,-1
1528447690714478,-2,-2,0,-1,-2,0,-1,0
1528447690729461,-1,-2,-1,1,0,-1,0,0
1528447690729461,-1,0,-1,0,0,-1,-1,-2
1528447690744488,-1,1,-2,-1,-2,-2,0,-2
1528447690744488,-2,-1,0,-1,-1,-1,0,-1
1528447690751572,0,1,0,0,-2,0,-1,-1
1528447690751572,0,0,0,0,-3,1,0,0
1528447690767048,0,1,-1,0,-1,-2,-2,-1
1528447690767048,-1,-2,0,-1,-1,-1,0,1
1528447690775114,-1,0,-1,-1,-1,-1,0,-1
1528447690775114,-1,-1,-2,-2,0,-2,-1,0
1528447690790029,0,0,0,0,0,0,-2,-2
1528447690790029,-2,-2,-1,0,-1,0,0,0
1528447690804377,-2,-1,-1,-2,0,0,0,0
1528447690804377,-3,1,-3,-2,0,1,-3,0
1528447690812357,0,0,-2,0,1,-2,1,0
1528447690812357,-2,0,-1,0,-1,-1,-1,-2
1528447690827280,-1,-2,1,-1,-1,-2,-1,-1
1528447690827280,1,0,0,-1,-2,-1,0,0
1528447690834450,0,-1,-1,0,-1,-2,-1,0
1528447690834450,-1,-1,-1,-1,-2,0,0,-1
1528447690849597,-2,-1,-2,-1,-2,0,-1,2
1528447690849597,-1,1,-1,-1,0,0,-1,-1
1528447690864557,-1,1,-1,0,-2,0,-2,-1
1528447690864557,1,-2,-1,0,1,0,1,-1
1528447690872015,-1,0,0,-3,-3,-1,0,0
1528447690872015,-1,-1,0,-1,-1,-1,0,-2
1528447690887577,0,0,-2,-1,-1,0,0,-1
1528447690887577,-1,1,-2,-1,-1,-1,0,-1
1528447690894910,1,0,1,1,0,0,-3,-1
1528447690894910,-3,0,-2,-2,-2,-2,-2,-1
1528447690909974,0,-1,0,-1,0,-2,0,-1
1528447690909974,-1,-2,-1,-1,0,-1,-2,-1
1528447690924948,-2,-1,0,1,-2,0,0,-1
1528447690924948,0,0,2,1,1,-1,-1,0
1528447690932439,-1,-2,-1,-1,-1,-1,-1,0
1528447690932439,1,1,0,-1,-2,-1,-3,-1
1528447690947562,1,1,0,0,0,-1,-1,-1
1528447690947562,0,-1,-1,-1,-1,0,0,0
1528447690954978,-2,1,-1,-1,-1,1,0,-2
1528447690954978,-1,-1,-2,-1,0,-1,0,-1
1528447690969714,1,-1,0,-1,0,0,0,0
1528447690969714,0,-1,-2,-1,-1,0,-2,1
1528447690992552,0,0,-1,-1,1,-1,0,0
1528447690992552,-1,-1,1,-1,0,-2,-1,-1
1528447690999857,1,-1,0,-1,0,-2,0,-2
1528447690999857,0,-1,0,-1,-2,-1,-1,-2
1528447691014904,-2,-2,1,-2,-2,0,0,1
1528447691014904,2,-1,-1,-1,-2,0,-1,0
1528447691022045,-1,-1,-2,0,0,-1,0,-1
1528447691022045,-2,-1,0,0,0,-1,-1,0
1528447691044924,0,0,-1,-1,-2,0,-2,-1
1528447691044924,-1,-2,0,-1,-1,-1,-3,-1
1528447691051697,-2,-2,-2,-1,0,-1,0,0
1528447691051697,0,1,-1,-3,1,-1,0,-1
1528447691067021,1,-2,0,-2,-1,-1,-2,-1
