timestamp,emg1,emg2,emg3,emg4,emg5,emg6,emg7,emg8
1529310081444207,0,-1,-1,-2,-2,-1,0,0
1529310081444207,-1,-3,0,-1,-1,0,0,-2
1529310081456167,-2,0,-2,-3,-2,-2,-1,-1
1529310081456167,-1,-1,-1,0,0,-1,0,-2
1529310081457165,-2,-3,-2,0,0,-1,-2,-1
1529310081457165,0,1,-1,-1,0,-2,-1,1
1529310081458161,-1,-2,-2,0,-1,0,-1,0
1529310081458161,-1,-3,-1,-1,-2,-1,-1,0
1529310081465143,-2,0,-2,-1,-1,0,-1,0
1529310081465143,0,1,-2,-1,-1,0,-2,-1
1529310081470130,0,-1,-1,-1,0,-1,-1,0
1529310081470130,-1,0,1,-1,0,-2,-2,-1
1529310081478108,-2,0,0,-2,-1,0,0,-2
1529310081478108,-1,0,-2,-1,-3,-3,0,-1
1529310081494066,-1,-2,-1,1,-2,0,0,-2
1529310081494066,0,-2,-2,-1,0,1,-1,-2
1529310081502045,-1,-1,-1,-2,-1,-1,-1,-1
1529310081502045,0,-1,-1,-1,0,-2,1,-2
1529310081517005,0,-1,-2,-1,-1,-2,-2,-2
1529310081517005,-1,0,-1,-2,-3,0,0,0
1529310081522989,0,-1,-1,-1,-2,-1,-1,-1
1529310081522989,-1,0,-1,0,-1,0,1,0
1529310081538947,-1,-1,-1,1,-1,0,-1,0
1529310081538947,0,-2,-1,-1,-1,-1,-1,-3
1529310081539943,0,0,0,-1,-2,-2,-2,-1
1529310081539943,-3,-2,-2,-2,-1,0,0,-1
1529310081584826,-2,-2,-1,-2,0,-1,-1,-1
1529310081584826,-1,-2,-2,-2,-1,-2,-2,0
1529310081585821,-1,0,-2,-1,-1,-1,-2,-2
1529310081585821,0,-1,-1,-1,-1,-1,-1,-1
1529310081587817,0,-1,-1,0,-1,-1,-1,-2
1529310081587817,-1,-1,-1,-1,-2,-1,-1,1
1529310081591805,-1,-2,0,-1,-1,-1,1,0
1529310081591805,0,-1,-1,-1,1,-1,-2,-1
1529310081596791,-3,-1,-1,-1,-2,-1,0,0
1529310081596791,0,0,-1,-1,-1,-3,-1,-1
1529310081606764,-1,-2,-1,-1,-1,-2,-1,-2
1529310081606764,-2,-1,-1,-2,-1,-1,-1,-1
1529310081612755,-1,-3,-3,0,1,-1,-1,-1
1529310081612755,-2,0,2,-1,-1,0,-1,-1
1529310081627715,-1,2,-4,4,1,-1,-1,1
1529310081627715,-2,1,5,-4,-3,2,2,-1
1529310081634707,-3,-5,-3,-10,-4,-3,-3,-1
1529310081634707,-2,-1,-2,1,0,-1,-1,0
1529310081657628,0,0,-2,-6,-2,0,-2,0
1529310081657628,0,1,8,11,0,-1,-1,1
1529310081658626,1,3,-3,5,-1,0,1,1
1529310081658626,-1,-3,-1,5,-3,-4,-2,-4
1529310081672589,-1,-1,0,2,-1,4,0,0
1529310081672589,-1,1,-2,2,1,3,2,1
1529310081673588,0,1,2,-11,-2,-3,-2,-2
1529310081673588,-1,0,3,5,3,-1,-2,-2
1529310081695527,-1,1,-5,0,2,3,1,0
1529310081695527,-1,-2,3,10,0,0,1,-2
1529310081696525,-1,-1,1,-8,-7,-4,-4,-1
1529310081696525,-2,-6,-10,-11,-11,-6,-2,-2
1529310081717469,-2,-1,0,9,-1,-7,-4,-2
1529310081717469,-1,-1,-7,-13,12,10,4,0
1529310081718466,0,-1,-5,3,5,16,3,0
1529310081718466,-2,0,7,4,-15,-20,-8,-3
1529310081734424,-2,-3,-3,-6,-11,-23,-10,-5
1529310081734424,-4,-2,-5,-9,-1,8,0,-5
1529310081735421,0,-1,-7,-4,-4,1,4,0
1529310081735421,-1,0,-2,-4,1,26,5,1
1529310081755403,1,-1,5,9,-16,-25,-6,0
1529310081755403,2,1,0,3,28,5,2,4
1529310081756365,-2,0,1,4,17,15,5,-1
1529310081756365,0,3,1,13,-4,-17,-8,-2
1529310081778358,0,0,1,-16,-14,-4,5,3
1529310081778358,2,-1,-7,3,23,28,4,1
1529310081778358,0,0,4,4,-7,-2,4,2
1529310081778358,-2,-3,-4,-10,-10,-5,-1,-2
1529310081793324,-7,-4,-12,-14,-5,-22,-15,-9
1529310081793324,-2,-2,-2,0,-23,-2,-3,-2
1529310081793324,0,0,4,11,25,-3,1,1
1529310081793324,-1,1,-1,-4,9,25,5,0
1529310081815484,2,2,2,2,-9,-20,-3,3
1529310081815484,-2,-2,-3,-7,0,4,-4,-2
1529310081816341,-3,-3,-3,-4,-31,-31,-14,-6
1529310081816341,1,-2,-4,-8,4,-7,3,0
1529310081838284,-2,5,4,4,12,37,8,-1
1529310081838284,1,-5,-6,-8,-10,-24,-7,1
1529310081838284,0,2,1,2,-12,-3,-3,0
1529310081838284,1,0,2,3,30,17,7,4
1529310081853244,2,0,3,5,17,33,2,-1
1529310081853244,-1,-1,1,3,-17,-33,-3,3
1529310081853244,-1,0,-2,-1,11,10,3,-2
1529310081853244,-6,-1,-1,-4,-12,-10,-5,-5
1529310081875212,3,-2,-5,-4,5,-5,-6,0
1529310081875212,-3,-2,-3,-11,-37,-36,-12,-4
1529310081876183,-3,-2,-4,-8,-7,-14,-8,-8
1529310081876183,1,2,-1,6,9,10,1,7
1529310081898124,-4,-4,4,6,12,48,24,-1
1529310081898124,16,4,6,12,43,21,12,13
1529310081899121,-10,1,3,2,-9,15,-3,-5
1529310081899121,-2,-3,-2,-10,-19,-22,-6,-5
1529310081913084,-10,-6,-3,-8,-25,-45,-27,-11
1529310081913084,-3,-4,-10,-17,-22,-34,-12,-5
1529310081914082,6,-1,0,2,-18,-8,3,1
1529310081914082,-8,1,5,12,58,44,14,5
1529310081935026,7,4,6,8,4,37,17,4
1529310081935026,-2,-1,0,3,11,-3,-7,-7
1529310081936023,1,-4,-6,-3,2,-4,-9,3
1529310081936023,-7,-10,-7,-16,-44,-38,-14,-11
1529310081957965,-2,1,-4,-11,-11,-15,-2,-2
1529310081957965,11,12,1,0,-14,2,-4,1
1529310081958962,-12,-6,-1,5,10,-2,-1,-9
1529310081958962,9,11,9,15,33,30,14,10
1529310081971928,-9,-12,-9,-4,23,1,9,0
1529310081971928,0,-4,-1,-3,-32,23,0,-2
1529310081980904,-7,-5,-4,-4,3,-25,-4,-5
1529310081980904,-3,-4,-6,-8,-13,-9,-10,-6
1529310081994865,-1,-2,-1,-4,-7,-19,-9,0
1529310081994865,-12,-2,-1,-4,-14,-16,-8,-6
1529310081995862,4,-1,-4,4,9,5,6,6
1529310081995862,3,-3,-7,-6,12,24,10,1
1529310082017804,6,6,1,5,10,10,2,5
1529310082017804,2,-1,4,2,2,-1,0,-2
1529310082018802,-11,2,11,6,-5,5,3,-5
1529310082018802,-5,-6,-9,-9,-21,-28,-10,-6
1529310082031771,-3,0,1,-4,-8,-4,-5,-3
1529310082031771,-3,1,1,0,2,4,1,1
1529310082040782,5,1,-3,-7,-6,-6,-5,-1
1529310082040782,5,12,17,12,-10,-9,-2,1
1529310082055702,-5,-5,1,0,10,4,1,0
1529310082055702,-4,-2,3,8,15,15,5,-3
1529310082055702,7,1,-1,-2,2,6,1,4
1529310082055702,-4,-3,-1,-1,-10,-5,-2,-1
1529310082077644,3,3,3,-1,-8,-7,-2,0
1529310082077644,-3,-6,-7,-3,2,1,2,-3
1529310082085623,0,-5,-10,-6,0,2,0,4
1529310082085623,0,-7,-9,-8,-9,-7,-1,-2
1529310082092641,-1,2,2,2,-5,-4,-3,-3
1529310082092641,-1,2,1,-1,5,5,2,1
1529310082100582,-1,-5,-8,-4,-1,2,0,2
1529310082100582,4,5,6,3,1,-5,-1,0
1529310082115579,1,-12,-14,-2,3,5,0,1
1529310082115579,-8,-4,-2,1,-5,-2,-5,-5
1529310082116539,-12,-5,-2,-8,-5,-6,-5,-2
1529310082116539,1,8,7,3,1,-3,-2,-8
1529310082137561,3,1,-3,-4,-4,-4,-2,0
1529310082137561,-3,-2,2,-2,-4,-4,0,-1
1529310082138483,4,-2,-4,-4,7,8,3,-1
1529310082138483,-4,-3,0,-1,1,-2,-2,-1
1529310082152464,-7,-8,-6,-2,-5,-4,-4,-3
1529310082152464,0,1,1,1,0,-2,-2,-3
1529310082160444,-4,1,-2,3,-2,-4,-2,-6
1529310082160444,-3,-6,-9,-8,-3,0,-1,8
1529310082175420,12,8,6,2,1,-1,-1,-2
1529310082175420,6,-1,-4,3,2,-1,3,6
1529310082176412,2,-1,1,-2,-3,-2,-1,-2
1529310082176412,-3,0,1,2,0,1,0,6
1529310082198321,24,2,-7,-2,-1,-3,-4,4
1529310082198321,-27,-8,-11,-7,0,2,0,-9
1529310082198321,0,0,3,3,-1,-2,-5,-10
1529310082198321,14,3,1,-1,-2,-1,0,5
1529310082212339,-15,2,5,4,-2,-3,-3,-6
1529310082212339,4,-2,-6,-3,-1,2,0,0
1529310082220262,-1,2,1,2,0,0,-3,-2
1529310082220262,-4,-2,-3,-3,-2,1,1,1
1529310082235252,9,-11,1,-2,-3,-1,5,10
1529310082235252,0,2,4,6,3,-5,-6,-13
1529310082236229,-19,-7,-5,0,1,-1,-4,-4
1529310082236229,31,15,4,4,1,0,-2,4
1529310082258195,-1,4,0,-2,0,3,2,-6
1529310082258195,4,0,3,-1,3,4,10,18
1529310082258195,8,7,12,5,2,0,2,0
1529310082258195,-7,-8,-8,-8,-6,-6,-6,-11
1529310082272360,-5,-1,-6,-6,-1,0,0,1
1529310082272360,0,-1,1,-2,-4,-5,-1,6
1529310082280137,26,5,3,-2,-2,-1,2,12
1529310082280137,-27,-7,1,4,5,9,3,-11
1529310082295063,-5,-1,-2,3,1,0,-2,-3
1529310082295063,0,-7,-9,-7,-5,-5,-9,-13
1529310082296060,-56,-16,-7,-9,-5,-2,-7,-13
1529310082296060,4,2,-3,-1,-5,-6,1,12
1529310082318002,3,-3,-4,-2,0,-3,-3,-4
1529310082318002,0,5,0,2,-1,-3,-1,-2
1529310082319028,-14,-4,10,11,1,-1,-6,10
1529310082319028,11,0,-6,-10,-4,-1,7,-5
1529310082331984,-19,2,6,5,4,6,4,3
1529310082331984,9,-1,-5,-2,-4,-8,-11,-8
1529310082339977,16,6,4,2,0,-1,-8,7
1529310082339977,-7,-4,-1,1,1,5,7,2
1529310082354939,-14,-3,-2,-5,-5,-3,-4,-2
1529310082354939,-5,7,10,4,2,1,6,2
1529310082355931,3,-7,-20,-12,-6,-7,-5,-6
1529310082355931,-8,-1,-2,0,2,0,-8,-17
1529310082377896,-13,-13,-5,-2,0,2,0,1
1529310082377896,7,0,0,-1,-3,-1,0,-2
1529310082378839,6,21,6,1,-1,2,11,18
1529310082378839,15,-10,-4,-3,-6,-9,-6,-12
1529310082400781,10,-10,-14,-8,-3,-3,-4,-7
1529310082400781,-9,-10,-6,-3,-2,-2,-6,-5
1529310082401778,6,-1,-1,1,-2,0,3,-4
1529310082401778,-4,5,-3,2,-1,-2,-1,4
1529310082415743,-2,6,13,-1,2,1,-4,-3
1529310082415743,-5,-3,-9,-3,2,2,1,0
1529310082415743,2,4,1,-1,-1,-3,-4,-6
1529310082415743,-21,-4,-2,1,0,-3,-10,-5
1529310082437735,54,13,9,6,2,3,5,11
1529310082437735,-2,7,5,3,3,4,6,8
1529310082438679,11,1,2,0,0,1,-2,-3
1529310082438679,-13,-2,-1,-1,-1,2,1,-2
1529310082460674,5,2,-4,-1,-1,1,6,3
1529310082460674,-2,2,0,-1,-3,-6,-4,-1
1529310082461625,3,-6,-4,-2,-2,-3,-2,-3
1529310082461625,-10,-8,0,-3,-1,-1,-9,-6
1529310082475627,-3,2,-3,1,-2,-4,-4,0
1529310082475627,1,-4,-2,0,0,1,1,-9
1529310082476625,6,-2,2,0,3,4,9,6
1529310082476625,2,3,4,0,0,-3,4,16
1529310082497576,-7,1,0,1,1,3,-1,-15
1529310082497576,2,-1,4,0,-1,-1,-1,5
1529310082498539,4,-2,-4,-5,-3,-4,-3,-7
1529310082498539,2,0,-2,-3,-4,-1,2,-1
1529310082521457,-15,-4,-3,-1,-3,-3,-4,-1
1529310082521457,-5,-3,0,-2,-1,0,-3,-3
1529310082521457,-4,0,0,0,-4,-8,-7,-3
1529310082521457,9,0,0,5,1,-1,-1,4
1529310082535421,-39,-6,-3,-6,-1,7,4,-7
1529310082535421,5,1,-1,-5,-8,-2,-1,-2
1529310082536417,0,-3,-3,2,-1,-9,-1,4
1529310082536417,-1,-1,-2,3,14,21,7,1
1529310082557361,6,4,7,8,9,7,3,3
1529310082557361,1,4,5,3,2,4,0,2
1529310082566339,-4,-2,-5,-9,-9,-8,-5,-5
1529310082566339,0,-5,-10,-11,-12,-21,-13,-6
1529310082581343,3,1,0,-2,-3,-2,5,5
1529310082581343,-4,-6,-7,-2,-6,-4,-1,3
1529310082582348,2,-2,-2,2,-5,-5,-1,-4
1529310082582348,1,1,0,-2,0,0,-12,-4
1529310082603238,-8,-6,-8,-5,0,-6,-1,-3
1529310082603238,4,-6,0,4,9,6,1,4
1529310082605242,9,3,4,7,12,20,13,3
1529310082605242,1,-2,0,-1,-7,-8,-2,0
1529310082617202,-5,-1,-1,1,-6,-6,-7,-3
1529310082617202,-4,-1,-5,-1,0,-5,-6,-3
1529310082626482,-8,-3,-1,-3,3,12,1,-5
1529310082626482,1,-3,-5,-16,-6,1,8,0
1529310082640743,2,3,2,3,-7,-11,-5,-2
1529310082640743,-11,2,8,23,5,-4,-2,-6
1529310082647984,11,3,1,-12,0,5,4,3
1529310082647984,13,2,-3,-3,-7,-13,-5,2
1529310082663920,-18,-7,-7,-6,1,2,-1,-2
1529310082663920,-5,-2,1,-8,-4,-2,-5,-14
1529310082665869,-9,-3,-12,-9,-7,-5,-10,-6
1529310082665869,-1,-4,0,3,0,0,-4,-2
1529310082677943,4,3,0,2,1,1,3,5
1529310082677943,-2,-2,0,0,-2,5,4,3
1529310082686476,-2,-1,13,13,-1,-6,-1,-2
1529310082686476,-5,0,1,-1,8,13,2,-2
1529310082701435,3,-2,-2,1,1,1,-4,0
1529310082701435,5,-1,-6,-5,-1,-2,1,3
1529310082707446,-1,-2,-6,-2,-3,-2,-1,-1
1529310082707446,0,1,1,-6,-5,-7,-3,2
1529310082723380,-2,-3,-3,-4,-3,0,0,-1
1529310082723380,5,-1,-1,-4,-2,-1,4,1
1529310082725371,-2,-2,-4,1,-1,-6,-4,-4
1529310082725371,-5,-2,-5,4,3,3,4,-1
1529310082737342,-1,3,11,5,0,-2,-4,0
1529310082737342,8,0,-7,-8,-1,-1,-2,-4
1529310082746315,-19,-10,-8,-4,0,0,-3,0
1529310082746315,-2,-1,0,2,2,3,1,-3
1529310082761473,0,1,-1,-6,-6,-4,-4,-2
1529310082761473,-3,0,4,1,3,1,1,4
1529310082769292,0,0,3,1,0,0,0,2
1529310082769292,-1,1,-2,-2,-2,-1,0,-1
1529310082783604,-2,-2,0,0,-4,-5,-3,-3
1529310082783604,-4,-1,-5,-3,-3,-3,-4,-1
1529310082785904,0,-2,1,0,2,3,3,-2
1529310082785904,-2,-8,-5,-4,-4,0,0,-1
1529310082797511,6,1,1,3,3,0,1,4
1529310082797511,-3,-4,-5,-4,1,1,-1,0
1529310082806485,1,8,14,5,-2,-4,-3,0
1529310082806485,-3,3,7,6,-2,0,1,-1
1529310082820713,-4,-4,-1,0,-1,-3,-1,-3
1529310082820713,6,2,4,2,-2,-1,1,5
1529310082827673,7,2,-5,-10,-1,0,2,3
1529310082827673,-5,-1,2,4,0,-2,-1,-3
1529310082843655,6,1,-3,-4,-1,-1,0,1
1529310082843655,-8,-5,-6,-7,-5,-5,-4,-5
1529310082845380,4,-4,-1,3,-1,-2,-2,-5
1529310082845380,20,3,-3,0,0,0,0,4
1529310082857347,-10,-10,-13,-3,-3,-2,-2,-5
1529310082857347,-11,-2,-9,-7,-4,-1,0,4
1529310082865872,7,7,-8,-2,0,-1,-3,2
1529310082865872,3,5,5,5,0,-3,-15,-25
1529310082881101,5,-5,-1,-6,-1,1,5,17
1529310082881101,0,-3,1,2,-1,0,7,6
1529310082887387,2,3,-4,-3,-3,-7,-35,-9
1529310082887387,-1,5,6,2,2,2,28,19
1529310082904163,-5,-8,-12,-3,-4,-8,-14,-14
1529310082904163,-7,-7,-4,-1,-3,-3,-12,-21
1529310082906019,-7,-4,-4,0,-1,3,10,11
1529310082906019,-6,-5,-4,-10,-5,-2,-4,-11
1529310082926792,-3,2,5,6,0,-4,-4,-6
1529310082926792,5,5,7,-3,6,5,3,4
1529310082927762,3,-3,-12,-3,-1,4,12,-2
1529310082927762,-3,-3,-6,-2,-2,-4,-7,4
1529310082940023,-38,-5,5,-1,-1,1,5,-9
1529310082940023,20,6,-2,1,-4,-5,-9,-7
1529310082947256,4,2,10,7,4,2,6,6
1529310082947256,-5,-7,0,-3,-2,0,6,18
1529310082964285,4,4,2,-2,0,2,-9,-18
1529310082964285,-7,0,4,5,-1,-4,-11,-7
1529310082965268,-16,-2,1,0,1,4,27,0
1529310082965268,19,0,0,-2,-5,-4,-8,0
1529310082986473,6,-1,-4,8,-4,-3,-4,12
1529310082986473,-6,-2,1,-2,3,3,11,25
1529310082988438,23,-5,-6,-12,-3,-2,-19,-34
1529310082988438,-70,-19,-9,-5,-3,-3,5,-33
1529310083000507,34,26,17,11,8,11,15,23
1529310083000507,2,-2,3,5,0,0,18,9
1529310083007478,2,-3,-3,0,-4,-10,-9,19
1529310083007478,8,-2,0,1,1,-5,-9,-4
1529310083023435,-11,-3,0,-6,-5,-8,-8,-2
1529310083023435,-2,-1,-2,3,-1,0,-2,-4
1529310083025430,-9,-3,0,-11,-4,-3,-1,-8
1529310083025430,4,0,3,2,4,6,2,3
1529310083046880,-23,-14,-11,-5,-3,-3,0,-6
1529310083046880,6,6,3,0,1,-1,-12,-5
1529310083047656,-18,-4,-9,-7,-5,-3,-1,4
1529310083047656,15,3,-1,1,0,-1,2,10
1529310083060385,-15,-8,-7,-9,-7,-4,-18,-15
1529310083060385,4,1,5,4,1,4,35,3
1529310083069039,-9,5,7,8,3,-2,-19,-10
1529310083069039,24,1,-7,-5,-1,-3,-5,5
1529310083084000,13,1,-1,-5,-1,0,3,5
1529310083084000,-17,-8,-8,-6,-4,-5,-23,-19
1529310083084996,3,-3,-4,0,-2,-1,-1,2
1529310083084996,-13,-6,-7,-3,-1,-1,-5,-5
1529310083105979,10,-2,2,3,3,1,6,10
1529310083105979,-6,-6,-25,-10,-5,-1,-9,-3
1529310083107973,5,-2,1,-8,-4,-3,2,-4
1529310083107973,-2,-1,-5,-4,-2,-2,-11,-6
1529310083119905,1,1,1,0,2,1,7,1
1529310083119905,10,4,7,1,-1,-1,-1,7
1529310083128880,-8,-2,-1,4,1,0,1,-12
1529310083128880,-31,-8,-1,-2,-4,-4,-8,-4
1529310083143840,5,5,0,0,4,5,4,-16
1529310083143840,1,1,1,-1,-1,-4,-3,1
1529310083144838,4,0,2,4,2,6,9,9
1529310083144838,-8,5,8,0,-6,-7,-11,-4
1529310083166778,11,1,-5,-3,-4,-8,-6,8
1529310083166778,5,-3,-1,0,4,2,2,0
1529310083171791,-27,-6,0,2,1,2,8,-1
1529310083171791,17,2,-4,0,3,5,8,9
1529310083179743,2,-1,-3,-3,-6,-7,-14,-10
1529310083179743,-1,1,4,1,-3,-3,-1,-4
1529310083188720,6,-1,0,-1,2,-2,3,10
1529310083188720,6,3,0,3,1,4,2,-5
1529310083203680,-15,-9,-6,-3,-2,-1,3,-2
1529310083203680,-17,-6,-3,-5,-2,-2,-5,-3
1529310083205680,21,-1,1,2,-2,-1,-6,-12
1529310083205680,-2,-1,-2,-2,-3,-3,-3,-9
1529310083226918,4,-1,-4,-4,-4,-1,1,1
1529310083226918,2,1,-1,1,0,-7,-3,5
1529310083228613,0,-2,-2,-1,2,0,1,10
1529310083228613,10,1,-4,-3,-1,-1,0,-4
1529310083239839,-10,-3,-1,-2,-1,0,1,-9
1529310083239839,-6,-1,4,0,-3,-1,-4,-6
1529310083248566,-3,0,-3,-3,0,-1,3,5
1529310083248566,-2,0,0,2,0,-3,-10,-4
1529310083263865,0,-2,2,0,-2,-1,2,8
1529310083263865,5,0,-2,-3,-2,-2,-2,-1
1529310083265515,-8,-1,2,1,-1,0,0,-2
1529310083265515,2,-2,-2,-3,-1,0,4,4
1529310083286932,0,0,1,1,1,-1,-3,2
1529310083286932,-2,-1,-2,0,3,2,-1,-5
1529310083287782,-1,-2,-4,-1,-4,-2,-3,-1
1529310083287782,-8,-4,1,-2,-1,-2,2,-1
1529310083300041,25,4,0,-1,-2,-2,-1,2
1529310083300041,-3,-1,1,-3,-2,3,5,10
1529310083308745,-1,1,0,2,-1,-1,0,-7
1529310083308745,6,3,0,1,0,3,2,5
1529310083324066,-2,-2,-2,-2,-2,-1,-1,-5
1529310083324066,7,-4,-1,-3,-4,-2,-3,6
1529310083325216,5,2,0,-1,2,-1,1,-9
1529310083325216,-4,-2,-2,0,2,-1,0,-1
1529310083346524,-3,2,0,-1,-2,-3,-5,-1
1529310083346524,0,-2,-3,-2,-7,-1,-3,-3
1529310083347524,-3,-2,1,-2,-3,-3,-1,3
1529310083347524,5,0,0,0,2,0,2,3
1529310083359242,1,0,-2,0,1,0,2,-3
1529310083359242,3,-1,0,0,4,-2,-3,-10
1529310083368249,1,-1,0,0,2,6,4,5
1529310083368249,-3,5,-2,-3,-2,0,-3,-5
1529310083383453,-7,-2,-4,-4,-3,-2,-3,-2
1529310083383453,-6,7,-23,-4,-4,-3,0,-11
1529310083385769,14,-5,10,4,-3,-4,-1,10
1529310083385769,-7,-7,1,-3,-4,-4,-3,0
1529310083406391,-4,0,1,-1,3,2,3,7
1529310083406391,26,5,3,-1,0,1,4,13
1529310083407612,-6,-2,-5,-2,-2,1,-3,-4
1529310083407612,5,0,-2,0,-2,-2,-2,0
1529310083419988,1,-2,1,0,-1,-3,1,-1
1529310083419988,-16,-5,4,0,1,0,0,-5
1529310083428772,-4,0,-3,0,-2,0,-1,-1
1529310083428772,3,-2,3,0,-2,-1,2,3
1529310083443913,-11,-5,-4,-2,-2,-1,-1,-7
1529310083443913,3,-1,3,-2,-2,-2,-3,-1
1529310083445574,-5,-1,-4,-2,0,-1,1,0
1529310083445574,-7,-2,-6,0,-2,-2,-5,-6
1529310083466583,-3,1,-1,0,-1,-2,-1,-1
1529310083466583,-10,-4,1,-2,-1,0,-1,-6
1529310083467530,-5,-1,0,0,-4,-5,-3,-6
1529310083467530,-10,-3,-2,0,-1,0,2,-5
1529310083479747,3,1,2,1,-1,0,-1,-2
1529310083479747,-5,-3,3,-1,-3,-1,0,6
1529310083488636,-7,0,-2,-1,-1,-2,-2,-8
1529310083488636,-11,-8,-3,-3,-3,0,-2,-2
1529310083503684,18,4,-1,-1,-1,1,1,-3
1529310083503684,-7,-1,-2,-1,-1,-1,-3,-6
1529310083505413,0,0,-2,-2,0,-2,-4,3
1529310083505413,10,-2,-1,1,1,2,7,9
1529310083526619,-6,-4,0,0,1,0,-2,-3
1529310083526619,-3,-2,1,-1,-2,-2,1,-1
1529310083528449,3,-1,-2,-2,-3,-4,-1,1
1529310083528449,1,2,-2,-1,2,-1,0,-1
1529310083539323,-7,-2,-2,1,1,4,-2,-1
1529310083539323,3,-1,0,-1,-1,-1,-1,-3
1529310083548308,-5,-1,1,-2,-3,-2,-2,2
1529310083548308,-1,1,-1,-1,-1,1,0,-1
1529310083563298,1,-1,-3,0,1,1,1,-1
1529310083563298,-2,-3,-1,-2,0,-1,-3,-2
1529310083570239,1,0,0,-1,-2,-1,-2,-1
1529310083570239,-2,2,0,-3,-5,-5,-1,-2
1529310083586458,0,0,-1,-2,-1,0,0,2
1529310083586458,1,-2,-1,-1,-1,-1,2,0
1529310083588433,-3,-3,-5,-2,-2,-2,-2,-2
1529310083588433,3,0,0,-1,-1,-2,-1,4
1529310083600159,-4,-1,0,-2,0,0,1,4
1529310083600159,-3,-1,0,-1,-2,-2,-1,-2
1529310083609180,2,-2,0,0,1,2,3,-1
1529310083609180,-6,-1,0,-1,-2,-1,-5,-5
1529310083623100,-1,0,4,1,-4,-5,-2,2
1529310083623100,-5,-3,-5,-3,1,-1,-3,-1
1529310083630080,2,-2,-1,3,1,2,0,-1
1529310083630080,-1,-3,-6,-3,0,-2,0,-2
1529310083646039,-2,-2,-3,-1,-1,0,-1,-3
1529310083646039,2,0,2,0,-1,1,1,0
1529310083648032,-3,-1,0,-1,0,-2,-3,-1
1529310083648032,-2,-3,1,-1,-2,-2,-3,0
1529310083660052,-2,-4,-2,-4,-5,-7,-4,-3
1529310083660052,-4,-1,-1,0,0,0,-1,-2
1529310083668976,-2,-1,4,1,3,1,0,-2
1529310083668976,0,1,1,1,-3,-3,-2,-2
1529310083682991,-1,-3,-2,-4,-7,-9,-4,-3
1529310083682991,-1,-1,2,0,-1,-3,-1,0
1529310083689974,-3,1,0,0,6,12,3,-1
1529310083689974,9,2,-1,-3,-4,-8,-4,1
1529310083705931,-4,-1,-1,1,5,5,0,-1
1529310083705931,1,0,-2,-2,-6,-4,-1,0
1529310083707872,1,0,-3,-1,-2,-3,1,-2
1529310083707872,-3,0,1,1,8,10,4,1
1529310083719895,1,-1,-1,3,9,8,2,1
1529310083719895,-2,1,0,0,-2,-4,-3,-1
1529310083728816,-2,-3,-4,-3,-8,-10,-3,-1
1529310083728816,-4,-2,0,-4,-9,-9,-4,-1
1529310083742823,1,-1,-4,-2,-7,-9,-4,-2
1529310083742823,-1,10,-8,-2,0,2,-1,-2
1529310083749760,-3,-2,1,-1,-2,-6,-2,-1
1529310083749760,-3,-2,-1,0,-1,1,0,-2
1529310083765752,-4,-2,1,-1,1,2,-1,0
1529310083765752,3,-2,0,-1,0,1,0,-1
1529310083767727,1,-1,-2,-3,-4,-4,-2,-1
1529310083767727,1,1,1,3,1,0,0,-3
1529310083779724,0,0,-1,-1,1,-1,2,1
1529310083779724,-3,-4,0,-1,-3,-4,-3,-3
1529310083788656,-2,1,-3,0,0,0,-3,-4
1529310083788656,1,-1,-1,-2,-1,-1,2,0
1529310083802652,-2,-3,-1,-1,1,0,-1,-3
1529310083802652,-1,-2,0,1,2,3,4,2
1529310083809625,-1,-1,0,-1,1,1,-5,-3
1529310083809625,-1,0,-1,0,0,0,5,5
1529310083826607,-1,2,-3,-2,-5,-3,-2,-2
1529310083826607,-3,-6,-3,-3,-1,-2,-3,-2
1529310083827553,-1,1,0,0,-2,0,1,0
1529310083827553,1,0,-1,-3,-2,-1,-6,-3
1529310083848497,-1,-4,-2,-2,-3,-3,0,-1
1529310083848497,-4,-1,1,0,1,1,-2,-1
1529310083850491,1,-2,-3,-2,-2,-2,-2,-1
1529310083850491,-2,-3,0,-1,0,0,1,-1
1529310083862490,-1,0,-1,0,0,-1,-1,0
1529310083862490,-2,-2,1,1,0,-1,-2,-2
1529310083869474,0,-2,-3,-1,-2,0,0,1
1529310083869474,-1,0,-1,-1,0,0,-1,-1
1529310083886395,-2,-3,-1,-1,1,1,0,-2
1529310083886395,1,-1,-1,-1,-2,-2,-2,-2
1529310083887395,1,0,-3,0,-1,-2,-2,0
1529310083887395,-3,-2,0,1,0,1,0,-1
1529310083908389,1,1,2,-1,-2,-2,-1,-2
1529310083908389,-6,-6,-2,-1,1,2,2,-1
1529310083910381,-2,0,-1,-2,-2,-2,0,3
1529310083910381,-1,0,-1,-1,-1,-1,-3,-2
1529310083922347,0,0,-1,-1,-3,-4,-1,-1
1529310083922347,0,0,1,0,-1,-3,-1,-1
1529310083931275,-1,1,-2,-1,0,-2,1,-1
1529310083931275,-3,-4,-3,0,2,0,-1,-1
1529310083946523,1,0,-1,0,-2,-1,-1,0
1529310083946523,-1,-1,-2,0,-1,-1,0,0
1529310083947662,0,-1,2,-1,-2,-3,-1,1
1529310083947662,0,2,-1,-2,-1,-3,-2,-1
1529310083968762,0,-2,-1,0,0,0,1,-1
1529310083968762,-2,-3,-1,-1,-1,0,0,-1
1529310083970934,-2,-1,-2,-3,-2,0,-2,-2
1529310083970934,-2,0,-1,0,-1,-1,-1,0
1529310083982917,-1,0,-1,-2,-2,0,-2,-2
1529310083982917,0,0,-1,-2,-2,-3,-1,0
1529310083991873,-2,-1,-1,0,-1,1,0,-2
1529310083991873,0,-2,-1,0,-1,-1,-1,-1
1529310084005851,-3,-1,-1,-1,-2,-1,-1,0
1529310084005851,0,-2,-1,-1,-2,-1,-2,-1
1529310084007847,-1,-2,-2,-1,0,-2,-1,-1
1529310084007847,-2,-2,-3,-1,0,0,-1,-1
1529310084029036,-1,-1,-1,-1,-2,-1,-2,0
1529310084029036,-1,0,0,0,-1,-1,-1,0
1529310084031030,-1,-3,0,-1,-1,-1,0,-1
1529310084031030,1,1,-2,-1,-1,-2,-1,-1
1529310084041998,0,-1,-2,-1,-1,0,0,-2
1529310084041998,-7,-4,-1,-2,-2,-1,-2,-5
1529310084051975,4,2,1,0,1,-1,0,2
1529310084051975,-2,-2,-1,-3,-2,-2,-1,-1
1529310084066158,-1,-1,0,-1,0,-1,0,0
1529310084066158,0,1,-2,0,-1,-2,-2,0
1529310084067928,-1,-3,-1,0,-1,0,-1,-3
1529310084067928,-3,1,-2,0,-1,0,-2,-1
1529310084096093,0,0,0,-1,0,-1,-1,-1
1529310084096093,1,-1,-1,-1,-3,-2,0,-1
1529310084097849,-11,-4,-5,-1,0,0,1,1
1529310084097849,15,6,3,0,1,1,1,0
1529310084102890,-1,-1,-1,-1,0,-2,-2,-2
1529310084102890,-1,-1,0,-1,-1,0,0,-2
1529310084111155,0,0,-1,-1,-1,-2,0,-2
1529310084111155,-7,-4,-2,-2,-1,-2,-3,-3
1529310084126081,-1,-2,-1,-4,-1,-1,-2,-1
1529310084126081,2,1,-1,-2,-1,-2,-2,1
1529310084128062,-4,-5,-2,-1,-1,0,1,-1
1529310084128062,1,-1,-3,0,-3,0,-1,0
1529310084149274,1,-1,-1,-3,-2,-2,-2,-1
1529310084149274,-3,-1,-1,-1,-1,-1,-2,-1
1529310084149999,1,1,-1,-2,0,-1,-1,-1
1529310084149999,-4,-4,-2,-1,0,-2,0,0
1529310084162212,0,-2,-1,-1,0,0,0,0
1529310084162212,-1,-1,-1,-1,0,-2,-1,0
1529310084172055,0,1,-1,-2,-1,-1,-2,-1
1529310084172055,-1,-3,0,0,-1,1,0,-3
1529310084186910,-2,-3,-2,0,0,-2,-1,0
1529310084186910,-1,0,0,0,-1,-1,-1,-1
1529310084187898,1,-1,-1,-1,-1,-1,-1,-1
1529310084187898,-3,-4,0,-3,1,-1,0,-2
1529310084209087,-4,-1,0,-1,-1,0,1,-1
1529310084209087,0,-1,0,-2,0,-1,-1,-1
1529310084210093,0,0,0,-1,-1,0,-2,0
1529310084210093,-3,-2,-1,-2,-1,-2,0,-2
1529310084222347,-1,-1,-2,-1,-2,-2,-1,0
1529310084222347,-2,-2,-3,-1,0,1,1,-1
1529310084231320,0,0,-1,-1,1,-2,-2,-1
1529310084231320,-2,0,-1,-3,-1,-1,0,-1
1529310084245526,-1,1,-1,-1,-2,-1,-2,0
1529310084245526,-2,-2,-2,0,0,0,-1,-1
1529310084253577,-1,-2,-2,-1,-2,0,-2,-2
1529310084253577,-1,0,-2,0,-1,-1,-2,-1
1529310084269306,2,0,-1,-1,0,-1,-1,-1
1529310084269306,0,-1,0,1,-1,-1,-1,0
1529310084270215,-1,-2,1,0,-1,-2,0,-2
1529310084270215,-2,-2,-1,0,-2,-1,-3,0
1529310084282411,-1,-1,-2,0,-2,-1,-1,0
1529310084282411,0,-1,-1,-2,-1,-1,0,-1
1529310084291455,0,-1,0,-1,-3,-2,-1,-1
1529310084291455,-2,0,-1,-1,-1,-1,-2,0
1529310084306417,0,0,-1,-1,-1,-1,-1,-2
1529310084306417,-1,-2,0,-2,-2,-1,-1,-1
1529310084308460,-3,-1,0,0,0,-2,-1,-1
1529310084308460,-1,-1,-2,0,-2,-1,-1,-3
1529310084328660,-2,-2,-2,-1,-1,0,-1,0
1529310084328660,0,0,0,-2,-1,-2,-2,-1
1529310084330926,-2,-1,-1,-3,-3,1,-3,-1
1529310084330926,-1,-2,-1,-1,-1,0,1,0
1529310084342626,-2,-2,1,-1,0,0,0,-1
1529310084342626,-1,-2,-1,-1,-2,-2,0,0
1529310084351602,1,0,-1,-1,-1,-1,0,2
1529310084351602,-1,-1,-1,-1,-2,-1,-2,0
1529310084366571,1,0,-2,1,-1,-2,-4,-8
1529310084366571,-1,1,0,-2,-1,-1,1,6
1529310084367562,1,-1,-2,-1,-1,-3,-3,-2
1529310084367562,-1,-2,-2,0,-1,0,-1,2
1529310084388994,-2,-2,0,-1,0,-2,0,-1
1529310084388994,-4,-4,-3,-1,-3,-2,-3,-6
1529310084390929,2,1,1,-1,-2,-2,0,-2
1529310084390929,-2,-1,0,-1,-2,-2,-2,-2
1529310084402939,-1,-1,0,-1,-1,-3,-1,0
1529310084402939,0,0,-1,-1,-1,0,-1,-2
1529310084411873,-2,-2,-2,-1,-2,0,1,0
1529310084411873,-1,-1,-1,-2,-2,-1,-1,-2
1529310084426272,-2,-1,-1,0,-2,-1,1,0
1529310084426272,-1,-1,-2,-2,-1,0,-1,0
1529310084432380,-1,0,0,0,0,-1,-1,0
1529310084432380,-1,-2,-2,-2,0,-2,-1,0
1529310084449208,-2,-2,-1,-1,0,0,-1,0
1529310084449208,-2,-1,-1,0,-1,1,0,-2
1529310084449935,0,-2,-3,-1,-2,2,1,-1
1529310084449935,0,0,-1,0,-1,-2,-2,-1
1529310084463063,-1,-1,-1,0,-3,-2,0,2
1529310084463063,-1,0,-1,2,1,0,-2,-3
1529310084471054,-1,-2,-1,-1,-1,-1,-2,-2
1529310084471054,1,1,-2,0,0,-3,-2,0
1529310084486858,0,-4,-1,-1,-2,1,-2,0
1529310084486858,-1,-2,0,-2,-1,-2,-2,1
1529310084487699,-1,-1,-1,0,1,-1,-1,0
1529310084487699,-3,-2,0,-1,-2,1,0,-1
1529310084508976,-3,-1,-2,1,-1,1,0,-3
1529310084508976,2,0,0,-1,1,1,-1,-1
1529310084510638,0,0,-2,-1,0,-1,-2,0
1529310084510638,1,-1,-2,-1,-1,0,-1,-1
1529310084522858,-1,-1,-2,-2,-1,-1,-2,-2
1529310084522858,1,1,0,0,-3,-3,-2,-1
1529310084531834,-1,-1,-1,-1,-2,-2,-2,-1
1529310084531834,-2,-1,-1,-1,0,0,0,-2
