timestamp,emg1,emg2,emg3,emg4,emg5,emg6,emg7,emg8
1528884448580226,0,0,-3,-5,-3,-3,-3,-1
1528884448580226,1,-8,-9,1,-2,1,0,0
1528884448586208,-3,24,16,0,-7,-5,-4,-1
1528884448586208,1,-14,0,-3,5,0,-1,1
1528884448593189,-7,-10,19,-3,-3,-2,-2,-5
1528884448593189,-2,-19,-24,-3,1,1,-2,-1
1528884448601167,-2,-25,-8,-1,-7,-5,-1,-1
1528884448601167,0,22,7,-2,1,1,1,-2
1528884448619119,-2,-3,-6,0,1,-1,-1,0
1528884448619119,0,-6,14,-5,-13,-7,-2,-2
1528884448624121,1,12,7,0,4,-4,-1,-2
1528884448624121,-1,-19,-17,3,2,7,-1,-1
1528884448638079,2,8,-1,0,-2,-2,0,0
1528884448638079,-1,9,5,-3,0,-5,-3,-3
1528884448646048,-1,-19,-18,-6,0,3,0,0
1528884448646048,-7,7,17,-2,-4,-7,-4,-3
1528884448661008,0,-12,-34,-1,5,8,3,1
1528884448661008,0,16,4,9,7,2,0,-1
1528884448669984,-3,-15,-5,-1,-5,-7,-2,-4
1528884448669984,1,-3,-4,-5,-3,-5,-3,0
1528884448683946,-2,20,-11,-20,-10,1,-2,-1
1528884448683946,-3,-15,3,6,5,4,1,1
1528884448690927,4,8,-5,-6,-14,-2,1,2
1528884448690927,1,4,11,6,3,-8,-2,0
1528884448708881,0,-4,-16,-11,-1,13,0,-1
1528884448708881,1,5,5,24,11,6,4,2
1528884448720848,1,3,3,11,11,1,1,0
1528884448720848,-3,-7,-2,-4,-10,-7,-2,-3
1528884448728826,-2,-8,5,-22,-7,-6,-5,-3
1528884448728826,0,18,-8,-31,-21,-6,-1,-1
1528884448743787,0,-10,8,52,27,8,3,-1
1528884448743787,0,3,9,0,0,5,-1,-1
1528884448752762,-1,26,-7,-8,-17,-11,-4,-1
1528884448752762,-3,-9,5,-20,-7,-3,-5,-4
1528884448765729,-1,6,8,12,20,6,2,-2
1528884448765729,0,-7,-9,8,-21,-8,-1,0
1528884448780691,0,0,-12,-40,-7,5,-3,0
1528884448780691,-2,3,10,33,19,1,0,-2
1528884448788667,-2,-4,4,8,3,-5,2,1
1528884448788667,-1,-1,-4,-11,20,14,4,0
1528884448803628,-2,-10,-15,8,-3,11,1,-1
1528884448803628,3,9,-3,-17,-19,-6,-3,2
1528884448810608,-2,-8,2,15,6,-15,-5,-1
1528884448810608,-1,-4,2,8,0,-6,1,0
1528884448825569,-2,-9,7,-4,-24,-8,-2,-3
1528884448825569,-1,-4,-14,-9,10,7,1,0
1528884448841526,-2,-4,0,5,-10,-13,-3,-4
1528884448841526,-3,0,-6,-15,-10,-13,-6,-1
1528884448863467,1,5,-2,5,6,-7,0,1
1528884448863467,-2,-3,3,-26,-33,-16,-7,-4
1528884448870448,-3,-1,-3,40,23,-1,-2,-2
1528884448870448,0,-3,21,11,8,10,2,0
1528884448878428,0,-6,-23,-8,-5,1,2,1
1528884448878428,0,3,-9,-34,-14,0,0,-1
1528884448886450,0,6,9,3,3,-1,-3,-2
1528884448886450,-4,0,4,-10,-3,-7,-4,-4
1528884448901366,-2,-9,0,14,15,1,-3,-2
1528884448901366,0,-3,3,13,-3,-4,0,0
1528884448908398,1,-2,-2,-2,-13,-7,-4,1
1528884448908398,2,4,8,-15,7,13,2,1
1528884448923306,-1,-2,1,-4,3,0,2,1
1528884448923306,-1,1,-6,14,0,-3,0,-2
1528884448938267,-2,3,6,9,-4,2,-2,-2
1528884448938267,2,5,-15,9,6,-3,0,-1
1528884448946255,-3,-12,4,-19,-24,-9,-4,-5
1528884448946255,3,-1,8,-16,-6,-3,1,5
1528884448961206,-1,1,16,-4,-6,-2,-2,-2
1528884448961206,-3,-2,14,37,21,2,1,-2
1528884448968188,-1,2,-22,-32,-10,0,1,-1
1528884448968188,0,-1,-7,23,9,2,0,0
1528884448983146,-2,-4,-27,-15,-11,-4,-1,-4
1528884448983146,-2,2,31,3,-13,-8,-2,-3
1528884448998108,4,6,-6,-12,8,4,1,2
1528884448998108,1,-2,10,16,2,0,-3,-2
1528884449006086,-5,-7,-8,-14,-4,-2,-1,-5
1528884449006086,-3,2,27,7,-7,-4,-1,-2
1528884449021045,-4,-11,-64,-11,7,3,0,-4
1528884449021045,-1,-1,6,-8,-1,-2,-1,-2
1528884449028028,6,9,5,8,5,2,-1,4
1528884449028028,-4,-8,0,12,-2,-5,-5,-2
1528884449042988,-2,12,33,7,3,2,-1,1
1528884449042988,-1,6,-11,-15,-3,-5,-5,-3
1528884449058945,3,1,5,0,-3,-2,-1,-2
1528884449058945,-1,5,11,1,1,0,-2,-2
1528884449073904,3,12,15,9,4,1,1,5
1528884449073904,-12,-56,-28,-13,-7,-5,-3,-6
1528884449088865,3,10,-13,1,-6,-1,-1,-1
1528884449088865,-4,7,6,3,6,4,3,1
1528884449095846,-9,-34,-6,1,-2,0,-1,-7
1528884449095846,0,20,15,-5,3,0,1,4
1528884449110807,-11,-13,-5,-2,1,-1,1,-3
1528884449110807,7,24,-20,-13,-8,-5,-1,1
1528884449125768,6,-20,-2,-3,0,4,1,0
1528884449125768,-5,8,-6,8,8,1,-1,-2
1528884449140727,3,-3,1,-11,-12,-7,-6,-2
1528884449140727,-5,7,14,5,2,1,-1,-4
1528884449148705,-7,-11,7,4,-2,0,3,2
1528884449148705,-1,12,-28,-10,0,0,-2,1
1528884449163664,-9,-20,21,-4,-4,-2,0,-3
1528884449163664,5,-4,11,-1,-6,-6,-3,-2
1528884449170645,-5,17,-8,3,7,-5,-4,-7
1528884449170645,24,-3,-4,-10,-8,1,0,3
1528884449193586,8,27,10,-9,-6,-3,-2,-4
1528884449193586,-23,-36,-5,0,-15,-6,-2,4
1528884449208545,10,20,22,-4,-2,1,-1,-2
1528884449208545,-5,-9,-12,9,10,2,2,6
1528884449216524,3,4,5,10,6,0,-2,2
1528884449216524,-7,-16,-4,-12,-10,-3,-3,-2
1528884449230485,4,5,24,-18,-16,1,5,-3
1528884449230485,-2,3,-29,21,22,1,-3,-5
1528884449238466,-17,-42,-7,-4,-1,1,-1,-5
1528884449238466,4,10,-24,-1,4,-4,-1,-4
1528884449246453,5,8,-26,1,-5,0,-1,2
1528884449246453,-3,5,39,10,16,7,0,-6
1528884449261404,0,14,-22,-4,2,-2,-2,-2
1528884449261404,1,-4,-5,-20,-18,-7,-3,1
1528884449268401,3,7,4,11,-5,-5,-5,-3
1528884449268401,-8,0,43,5,1,-1,1,-2
1528884449283345,0,-15,-48,-17,-9,-4,-3,0
1528884449283345,0,-5,-12,9,5,-2,-3,-3
1528884449291324,10,23,8,11,15,3,1,3
1528884449291324,-2,-4,-19,-5,-6,-3,-2,-5
1528884449306298,8,5,-26,0,11,-3,-2,3
1528884449306298,1,-9,-18,3,2,2,1,0
1528884449321242,-2,-10,7,2,-1,-1,-3,-5
1528884449321242,-7,-6,-1,-5,-9,-7,-4,-2
1528884449328224,0,9,10,-3,-7,0,1,3
1528884449328224,11,5,-1,1,3,1,-1,1
1528884449351165,-7,0,2,6,1,-1,0,1
1528884449351165,1,3,33,-4,-5,1,-1,-1
1528884449358146,-4,-12,-33,-15,-10,-7,-4,-1
1528884449358146,-2,6,1,14,9,1,0,-4
1528884449373108,-7,-9,9,-7,4,1,1,-1
1528884449373108,4,30,6,3,-6,-3,1,3
1528884449388364,5,6,-6,0,1,-1,-1,-1
1528884449388364,-2,0,-20,2,7,2,0,1
1528884449396300,-1,1,15,5,-4,1,1,-2
1528884449396300,0,-7,-14,-39,-13,-6,-6,-4
1528884449403281,0,-9,4,26,7,-1,0,-2
1528884449403281,4,16,10,14,5,0,2,3
1528884449411301,1,-5,-1,-5,-3,-6,-3,-7
1528884449411301,0,-6,-28,0,3,4,0,-1
1528884449426221,-6,0,-9,-9,-6,-1,-2,-1
1528884449426221,-4,-9,-11,1,-9,-7,-1,-7
1528884449441180,-1,-4,19,-10,-3,-4,-4,-2
1528884449441180,0,2,12,3,-8,1,1,-1
1528884449448202,-7,-10,-24,-1,3,0,-1,-5
1528884449448202,3,-6,-22,-3,2,1,-2,3
1528884449463122,-1,-3,-5,-4,-3,-1,-1,0
1528884449463122,-1,1,17,-2,-13,-10,-5,-2
1528884449478235,-1,3,5,-6,-12,-2,-3,-2
1528884449478235,-1,-2,-30,6,10,0,-2,-1
1528884449493546,4,-3,10,-3,-6,-8,-3,0
1528884449493546,-1,8,8,8,5,6,1,1
1528884449508283,-1,-8,-11,3,-1,-5,-4,-1
1528884449508283,-1,3,-17,-5,1,2,0,-2
1528884449516262,-2,-3,18,7,1,8,1,0
1528884449516262,2,1,10,2,-2,-7,-1,0
1528884449531520,0,0,9,40,25,3,0,3
1528884449531520,1,-1,-14,4,-3,-2,-2,-1
1528884449545481,1,9,2,-6,2,2,-1,2
1528884449545481,-4,-10,18,-6,-8,0,-1,-2
1528884449561674,3,4,-18,0,5,0,1,2
1528884449561674,0,6,25,11,0,2,-1,-3
1528884449568421,4,2,20,3,10,6,5,7
1528884449568421,-6,-7,-22,-3,-9,-4,-3,-6
1528884449583379,3,1,-18,-10,-3,1,-1,4
1528884449583379,0,-10,-8,-8,-2,1,-2,-1
1528884449591358,3,12,33,-2,0,1,0,-2
1528884449591358,-1,-25,-41,0,-3,-6,-2,-2
1528884449606319,-5,-3,-20,1,-8,-5,-3,-4
1528884449606319,1,4,48,0,2,-2,-2,0
1528884449621781,-4,0,-38,3,-1,1,0,0
1528884449621781,3,-3,7,7,2,-1,0,3
1528884449628545,-1,6,-19,-30,-9,-5,-4,-3
1528884449628545,-5,-2,-9,6,-3,2,1,-2
1528884449643766,3,-10,-1,-1,3,-4,-5,-6
1528884449643766,-7,5,0,3,0,-4,-3,-4
1528884449650753,0,-30,4,-6,-6,-4,-3,1
1528884449650753,8,12,-24,1,-5,0,-1,0
1528884449666446,0,7,16,7,1,-2,-1,-2
1528884449666446,-2,-22,-48,-15,-4,-3,-3,-1
1528884449681409,3,4,50,16,7,-4,-2,-3
1528884449681409,-4,-24,-71,-5,-3,2,0,-1
1528884449688733,-8,3,4,-8,-12,0,0,-2
1528884449688733,6,24,27,7,15,6,3,0
1528884449703575,2,-23,15,1,-7,-4,-1,2
1528884449703575,6,9,45,-6,-9,-10,-6,-5
1528884449711325,0,-1,7,0,-3,-1,-1,-1
1528884449711325,-16,3,-5,-9,-12,-2,0,-5
1528884449726541,9,-7,-5,-6,-3,0,-2,-4
1528884449726541,-9,18,35,-5,0,-1,-2,-3
1528884449741247,2,7,-4,-22,-15,-6,-3,-1
1528884449741247,-1,1,-10,14,-7,-4,-2,-1
1528884449748225,-2,6,55,12,13,3,2,0
1528884449748225,1,-21,-27,1,8,3,0,1
1528884449763192,-5,-4,-12,-8,-5,0,-1,-3
1528884449763192,-8,-13,-59,-27,-3,-2,-2,-4
1528884449771176,2,-3,-6,-6,-15,-5,-2,-3
1528884449771176,1,-7,19,10,-1,-2,-2,2
1528884449786125,-9,3,18,1,-4,-1,1,5
1528884449786125,-1,-13,-34,-16,-11,-5,-2,3
1528884449801096,4,10,-15,11,10,-3,-1,-2
1528884449801096,7,42,16,5,4,0,1,-1
1528884449809285,10,-8,7,5,8,6,1,6
1528884449809285,4,27,8,3,5,3,1,1
1528884449823553,-23,-6,-5,-9,-10,-7,-3,-8
1528884449823553,11,-1,-13,2,6,2,2,7
1528884449831616,5,6,18,2,4,4,0,-1
1528884449831616,-10,-13,-30,5,5,-2,-1,-1
1528884449846486,-6,9,-1,-7,-5,-6,-3,2
1528884449846486,23,-10,-6,4,5,4,-1,2
1528884449861472,-3,9,6,-6,5,9,2,0
1528884449861472,3,-14,32,14,9,0,-1,-1
1528884449868509,-3,0,-94,1,-2,-6,-3,-2
1528884449868509,11,-2,14,-17,-3,-7,-5,-5
1528884449883690,-13,-3,-51,-9,-11,-2,-1,-5
1528884449883690,1,11,51,6,9,8,5,9
1528884449891669,13,-14,-18,-6,-4,-7,-3,-5
1528884449891669,-13,-3,-20,-3,2,-5,-5,-6
1528884449906723,-11,1,5,5,7,6,1,6
1528884449906723,-14,-31,35,-4,-10,-3,-2,-7
1528884449913950,4,5,-13,5,-4,-11,-7,1
1528884449913950,-2,10,64,6,1,3,1,0
1528884449928305,6,-23,-41,-2,4,11,5,1
1528884449928305,-15,-4,-13,9,10,5,8,-7
1528884449936153,-8,8,65,0,-5,6,-1,-9
1528884449936153,-8,-23,-27,-18,-16,-12,-5,2
1528884449951202,-27,-16,-12,18,14,8,1,-9
1528884449951202,9,18,-25,7,6,5,5,5
1528884449966497,2,11,-8,-6,-14,-21,-19,16
1528884449966497,-18,-4,48,-1,-23,-39,-11,-21
1528884449974342,-3,-6,-17,-13,12,49,21,-1
1528884449974342,-8,-1,19,10,17,15,6,-4
1528884449989342,8,-13,-16,-1,-4,-1,-5,-2
1528884449989342,-6,-15,17,5,-1,9,6,36
1528884449996325,1,-15,-24,-15,-18,-29,-17,-19
1528884449996325,-16,13,33,6,2,-9,6,-6
1528884450011641,2,-2,-7,11,13,46,25,10
1528884450011641,10,17,24,3,-4,19,4,12
1528884450026727,-3,7,11,-6,-6,3,2,1
1528884450026727,10,-5,-5,-9,3,-21,-18,-2
1528884450033851,6,16,-11,1,-10,-24,-7,9
1528884450033851,4,0,-13,-13,-14,-20,-10,-10
1528884450048770,-6,7,0,21,7,-2,-1,-11
1528884450048770,4,-22,0,-4,9,20,5,8
1528884450056709,0,19,-23,-7,-4,-9,-6,-4
1528884450056709,13,7,41,13,-3,-7,-4,3
1528884450071713,2,-7,-48,-9,0,-11,-2,2
1528884450071713,-1,2,52,6,-6,-5,-3,5
1528884450086873,3,-11,-48,-18,-14,7,6,-1
1528884450086873,2,7,-8,4,-6,-10,-6,-6
1528884450093950,-11,1,1,-10,-4,-13,-10,2
1528884450093950,-4,-19,-5,0,-1,3,-7,-2
1528884450108939,2,6,24,5,9,27,19,-1
1528884450108939,3,3,-23,-3,-5,-7,-7,-1
1528884450115913,5,3,13,9,1,-3,2,6
1528884450115913,-3,-9,-8,-12,-5,-1,0,-7
1528884450131778,-7,-13,-27,-2,5,3,2,-2
1528884450131778,-4,6,6,11,7,0,0,-2
1528884450146776,3,-11,-4,-5,-5,-6,-4,-10
1528884450146776,1,10,9,0,-2,-1,-1,10
1528884450153553,-1,-5,7,1,-6,-8,-6,-4
1528884450153553,-2,-15,-37,-6,-1,-2,1,0
1528884450168514,5,16,31,11,1,1,2,4
1528884450168514,-3,-2,-21,-5,2,-1,-2,-6
1528884450176840,-10,0,41,10,5,2,2,-6
1528884450176840,-5,-9,17,-3,-4,-6,-6,2
1528884450190993,-1,0,18,-3,0,-3,-4,3
1528884450190993,2,3,-10,0,-1,0,-2,-2
1528884450206199,1,-1,2,-2,-1,-5,-1,0
1528884450206199,-3,6,9,-2,-17,-7,-2,1
1528884450214194,5,-11,-17,-7,11,-5,-5,-3
1528884450214194,-4,-2,-26,7,2,4,6,-2
1528884450228906,5,3,3,-1,2,-2,0,8
1528884450228906,-3,2,-22,4,10,11,1,-4
1528884450236135,0,4,-11,-1,-10,-6,0,2
1528884450236135,-1,-1,-8,-9,-1,-4,-2,-1
1528884450250834,-1,-1,39,-6,-19,-8,-4,0
1528884450250834,-1,5,26,6,16,7,4,1
1528884450265808,-3,-11,-6,6,2,1,-2,-1
1528884450265808,8,17,2,-4,6,3,1,1
1528884450273806,-2,1,11,-7,-10,-4,-3,-1
1528884450273806,-2,5,16,-8,-13,-10,-4,-2
1528884450288743,-4,-4,6,2,-4,-2,0,-2
1528884450288743,0,-8,-14,-1,10,3,0,0
1528884450295746,0,2,-7,0,2,1,0,-1
1528884450295746,-2,-10,-32,-11,-10,-5,0,-1
1528884450310673,-1,8,-7,2,0,1,1,-1
1528884450310673,-3,-4,-7,-9,-3,1,-3,-1
1528884450325691,0,1,-13,-8,2,-2,-1,0
1528884450325691,-2,-5,4,2,0,-2,-2,-1
1528884450333670,-1,-4,-8,5,2,-1,-2,-1
1528884450333670,-1,4,6,-15,-20,-11,-4,-3
1528884450348627,-1,2,-7,-3,1,-1,-3,-1
1528884450348627,-2,-6,33,32,10,6,2,-1
1528884450355555,-1,-5,-23,-34,2,-1,0,-1
1528884450355555,-3,0,14,11,-4,-3,-3,-2
1528884450371512,1,-26,-5,12,3,0,-1,-2
1528884450371512,0,-10,-5,2,6,4,2,0
1528884450386471,-1,-6,7,2,5,3,1,0
1528884450386471,0,16,-29,3,-4,-1,-2,-1
1528884450393452,-3,-12,30,4,-2,-3,-1,-3
1528884450393452,-4,-8,-23,3,6,1,1,-3
1528884450408412,-4,-8,-4,-3,-6,-3,0,-3
1528884450408412,1,-2,8,-1,-5,-4,-1,2
1528884450416391,1,15,-12,-14,-5,-3,-1,2
1528884450416391,3,2,10,15,4,0,-2,0
1528884450431351,-1,3,-8,2,-1,-2,0,0
1528884450431351,-1,0,7,4,3,3,-2,-2
1528884450446311,5,7,-5,-9,-4,-3,0,1
1528884450446311,-3,-8,6,4,1,-1,-1,-1
1528884450453292,-3,-4,-3,9,2,5,0,1
1528884450453292,0,3,3,-9,-2,-1,-2,0
1528884450468253,-4,3,-3,4,-1,-3,-2,-3
1528884450468253,2,-7,-14,-7,-1,-2,-1,0
1528884450476231,-4,1,-13,3,-2,-2,-1,-4
1528884450476231,-4,-13,7,-8,-2,-2,0,0
1528884450491191,-5,-3,-10,8,-2,0,-1,-1
1528884450491191,-1,12,-12,-8,2,-2,-2,-2
1528884450506151,-3,-9,10,-3,-1,0,0,0
1528884450506151,-1,-4,-9,-8,-5,0,-2,0
1528884450513132,2,8,22,15,1,-3,-3,0
1528884450513132,-1,-7,-19,-10,3,1,0,-1
1528884450528092,1,-4,-12,-8,-3,0,-1,-5
1528884450528092,-1,1,-6,5,1,0,-1,3
1528884450536071,-1,0,8,-8,-7,-5,-3,-1
1528884450536071,1,3,-4,8,1,0,-1,-1
1528884450551031,0,0,-3,1,-1,-2,-2,-2
1528884450551031,-7,-6,-1,1,-1,1,0,0
1528884450565991,2,3,-3,-2,-6,-4,-1,-1
1528884450565991,-2,-2,7,8,6,0,1,-4
1528884450573980,1,2,-2,-7,1,-1,-1,2
1528884450573980,0,-4,-3,-2,-4,-2,-2,-1
1528884450588932,3,3,-7,-4,-5,-3,-1,0
1528884450588932,-6,-1,1,2,1,-1,0,-2
1528884450595912,3,-2,-8,-6,1,-3,-1,-2
1528884450595912,-1,5,10,1,-7,-3,0,-2
1528884450610913,3,-2,-17,-2,-4,-2,-3,3
1528884450610913,-3,-4,5,-3,3,2,1,-1
1528884450618851,-1,-3,-21,-6,-10,-1,-3,-1
1528884450618851,1,0,5,1,5,-3,-1,1
1528884450633811,-1,0,-8,0,4,9,1,1
1528884450633811,0,-2,18,12,-4,-2,-2,-1
1528884450649061,2,-1,-17,-15,0,0,-1,0
1528884450649061,-3,1,-2,-6,-15,-7,-3,-6
1528884450656835,-5,-7,14,-1,-4,-3,-1,-2
1528884450656835,-3,4,-5,-2,0,2,0,-1
1528884450671709,-1,1,10,7,1,-3,-3,-2
1528884450671709,5,-3,-5,1,5,4,1,7
1528884450678701,2,2,-5,-2,8,5,0,1
1528884450678701,-4,0,15,5,-2,-3,0,-2
1528884450693911,0,-1,-5,-3,-4,-7,-1,-4
1528884450693911,2,3,1,-4,2,2,3,3
1528884450716720,3,0,-14,-2,1,3,0,-2
1528884450716720,-7,-5,8,2,4,-2,-1,-4
1528884450723922,-3,-1,8,3,-1,0,-1,-2
1528884450723922,0,-5,-7,-2,-7,-3,-1,-3
1528884450738882,0,1,3,-3,5,-1,1,1
1528884450738882,3,0,-11,1,5,1,-2,1
1528884450746549,-2,0,5,3,5,1,0,-3
1528884450746549,1,0,-6,-3,-4,-1,-3,-1
1528884450761470,-1,1,-3,-2,-1,0,-4,0
1528884450761470,1,0,-3,0,5,1,1,0
1528884450776458,-2,-5,-16,-4,-6,-4,-1,-2
1528884450776458,0,-1,-4,-1,-1,-1,-2,1
1528884450791404,0,3,6,5,8,2,0,4
1528884450791404,-3,-1,2,0,-3,-1,-1,-4
1528884450798634,0,-1,-6,-4,-3,-1,-2,0
1528884450798634,-5,-5,3,-4,-2,-3,-3,-3
1528884450813631,1,3,6,4,5,-1,3,5
1528884450813631,3,-1,-5,0,0,-2,1,1
1528884450828341,-1,1,3,-2,0,1,1,1
1528884450828341,-1,-5,-2,0,-4,0,-2,-2
1528884450836631,-2,0,5,0,-4,-4,0,-3
1528884450836631,-1,-3,-7,-4,-1,-3,-5,0
1528884450851289,-3,5,-8,-1,0,0,-1,-1
1528884450851289,2,3,4,-1,-3,1,1,-4
1528884450859293,-2,-3,-3,-1,1,0,-2,3
1528884450859293,0,3,1,1,1,1,0,-1
1528884450874010,-8,-5,4,0,-2,-1,-1,-8
1528884450874010,0,2,-4,2,3,3,2,1
1528884450888977,-3,3,0,-1,-2,-2,0,1
1528884450888977,0,0,0,2,0,1,0,-2
1528884450896804,7,5,3,1,-1,-3,-4,2
1528884450896804,-21,-13,-3,-2,-5,0,1,-6
1528884450910917,0,6,-13,-2,-1,-2,-1,-1
1528884450910917,-2,1,4,1,2,0,-1,3
1528884450918895,3,-3,-2,-2,-4,-2,-2,0
1528884450918895,0,7,2,1,-1,1,1,-3
1528884450934175,8,-3,-3,-4,1,3,3,8
1528884450934175,-3,-3,2,0,1,0,0,0
1528884450949379,-3,-1,-2,0,-1,-1,0,0
1528884450949379,3,-2,-2,-4,-4,-3,-2,-1
1528884450956791,-10,-1,-3,-4,-4,-3,-2,-6
1528884450956791,18,2,3,-2,0,0,-1,10
1528884450971945,-17,1,-3,-1,-1,3,0,-8
1528884450971945,-3,5,1,2,1,2,1,-1
1528884450978881,-3,-8,-3,-4,-3,-2,-4,-3
1528884450978881,2,0,-5,-5,-2,-4,0,5
1528884450993895,-8,2,2,0,0,0,1,-9
1528884450993895,-4,-4,0,-1,-3,-1,-1,0
1528884451008842,3,-2,3,0,-1,-1,-3,1
1528884451008842,0,-1,-2,0,-2,0,0,-1
1528884451016856,-20,-3,-2,-3,-4,-2,-4,-18
1528884451016856,6,1,-2,0,0,0,-1,0
1528884451031173,-3,-6,-2,-2,-1,-4,-2,-5
1528884451031173,0,-4,0,0,-1,-1,0,11
1528884451046809,12,2,2,1,-1,-4,2,13
1528884451046809,1,1,-2,-3,1,-2,-5,-14
1528884451060924,5,2,-1,1,-2,1,1,2
1528884451060924,-5,0,4,0,-2,-1,0,-1
1528884451068898,0,-3,-1,-2,-1,-1,-4,-5
1528884451068898,5,0,3,-1,-2,-2,0,0
1528884451083864,1,-6,-8,-4,-1,-1,-2,3
1528884451083864,1,3,-3,0,-1,0,-2,-5
1528884451091796,-10,-2,-1,-4,-3,-2,-2,-6
1528884451091796,8,-1,-9,-3,-2,0,0,3
1528884451106539,-14,1,17,2,-1,-3,-1,-5
1528884451106539,1,-3,-6,-1,-1,0,-4,-30
1528884451121500,5,-1,-5,-1,1,-1,-2,-3
1528884451121500,-10,1,1,-2,0,2,4,9
1528884451128481,10,0,1,1,0,0,0,9
1528884451128481,6,-3,4,-2,-4,-5,-4,-1
1528884451143480,4,1,-11,-1,-1,3,1,3
1528884451143480,-12,-2,1,1,0,-1,2,1
1528884451151452,-8,4,-4,-1,0,0,0,1
1528884451151452,4,-3,3,-1,-2,-3,-3,-5
1528884451158438,5,5,1,0,-1,-3,-1,-5
1528884451158438,2,-4,-4,1,-1,-1,0,7
1528884451166379,0,9,4,1,-1,-3,0,-2
1528884451166379,-5,-7,-9,-2,-1,0,-1,0
1528884451181340,1,4,0,0,-1,0,-1,-3
1528884451181340,-1,-5,-2,0,-2,0,-2,-1
1528884451188347,1,3,2,2,0,-1,0,-2
1528884451188347,-1,3,-2,0,-1,1,-1,-1
1528884451203322,10,-1,9,-1,-1,-1,2,6
1528884451203322,-2,-4,-4,-5,-2,-2,-2,3
1528884451211400,-14,-6,-4,-2,-2,-1,1,-9
1528884451211400,-4,0,0,-2,-2,-2,0,5
1528884451218241,-1,-4,-3,-1,0,-1,-1,3
1528884451218241,-1,3,3,-2,0,-2,-2,2
1528884451226473,4,-3,0,0,-1,-1,-3,-2
1528884451226473,-3,-4,-3,-1,1,3,4,-2
1528884451241424,-6,1,3,0,-1,-2,-1,-1
1528884451241424,4,0,-8,-2,-2,-1,0,0
1528884451249274,-1,-4,-5,0,-3,-1,-3,-3
1528884451249274,-8,3,3,1,0,-1,-2,-1
1528884451263684,0,-5,-4,-2,-3,-1,-1,-2
1528884451263684,-4,-2,3,-2,-1,-2,0,-5
1528884451271230,-1,-3,-15,-4,0,-1,-2,0
1528884451271230,3,2,1,4,1,-1,0,0
1528884451278934,-5,1,-2,-1,-2,-1,-1,-2
1528884451278934,0,-1,0,0,-2,-1,-3,2
1528884451286173,1,-2,1,-2,-2,0,-1,2
1528884451286173,-5,-5,4,1,-1,-2,1,-7
1528884451301138,-7,-3,-6,-2,0,-1,-2,-3
1528884451301138,-1,-1,-2,-1,0,-1,0,-2
1528884451309116,-1,1,-2,-1,1,-1,0,-5
1528884451309116,-6,-1,9,-2,-2,-2,-5,-2
1528884451324054,0,-2,-3,-2,-1,-1,0,0
1528884451324054,3,-2,3,-2,-1,-1,-3,3
1528884451331035,-17,-1,6,0,-1,0,0,-8
1528884451331035,3,-1,-6,-2,1,0,-1,-2
1528884451339096,-4,-2,3,-1,-2,-1,-2,-2
1528884451339096,1,1,-2,1,-1,-3,-2,2
1528884451346286,6,0,0,1,-2,0,-1,3
1528884451346286,-5,-5,-2,-1,0,-2,-1,-5
1528884451361237,-1,4,-4,-2,0,0,-1,-2
1528884451361237,-1,0,0,-1,0,-3,0,-2
1528884451369163,0,0,2,1,0,1,0,-1
1528884451369163,3,-1,-1,-1,1,1,1,0
1528884451383956,0,-2,-6,-2,0,0,0,-1
1528884451383956,0,-1,0,-1,-2,0,0,-2
1528884451391177,4,-3,-3,-1,-2,-1,1,2
1528884451391177,1,0,1,0,-3,-1,-2,-1
1528884451398206,-4,-2,0,-1,1,0,2,-2
1528884451398206,0,2,-1,1,0,0,0,-3
1528884451406431,-1,-1,5,0,0,-1,-2,0
1528884451406431,2,-1,-5,-2,-1,-2,-1,-2
1528884451421173,-1,0,-2,0,-1,-1,0,-2
1528884451421173,-5,-1,-3,-2,-3,-1,-5,6
1528884451428449,3,2,6,1,1,-1,0,-1
1528884451428449,-1,-4,3,-4,-2,-1,-1,-2
1528884451443639,-2,-6,-16,-3,-3,-2,-2,-2
1528884451443639,-1,-2,0,0,-2,-1,0,0
1528884451451618,3,-2,-2,-3,-1,-2,-1,1
1528884451451618,-1,3,4,-1,0,-2,1,-2
1528884451458638,-6,-2,2,0,0,-3,-1,0
1528884451458638,-1,-1,-4,-1,0,0,-2,-3
1528884451466799,2,0,-5,0,-1,0,-1,-2
1528884451466799,6,1,-2,-1,-1,-2,-3,0
1528884451481346,-26,-4,4,0,0,0,-2,-8
1528884451481346,2,-1,-8,0,1,1,-1,-1
1528884451489177,-2,-2,-1,-2,-3,0,-1,0
1528884451489177,-2,2,3,1,-1,0,0,0
1528884451504229,5,-4,-4,-3,-2,-2,-2,-1
1528884451504229,-6,-3,-10,-2,0,0,0,-4
1528884451511266,3,1,-2,0,-1,-1,-1,4
1528884451511266,-6,-10,-6,-1,-3,1,-2,-4
1528884451519250,6,4,-1,0,2,0,-2,1
1528884451519250,-5,-4,9,-4,-3,-1,1,-1
1528884451526230,-1,-7,-3,-2,0,-2,-2,-2
1528884451526230,-1,3,-2,0,0,-1,-1,1
1528884451541187,4,3,1,0,-2,-2,-4,4
1528884451541187,-2,-3,-1,-1,-2,-1,0,-3
1528884451549179,-3,-1,-4,-1,-2,-1,-1,-2
1528884451549179,0,-2,2,-1,0,0,-2,0
1528884451564252,3,1,2,-1,-2,1,0,-2
1528884451564252,2,2,2,1,-1,-2,-4,-3
1528884451571485,-2,-1,-11,-5,-3,-2,-1,-1
1528884451571485,-3,2,1,-2,-2,0,-2,-2
1528884451578133,-1,-3,-3,0,-2,1,0,0
1528884451578133,-2,-2,1,0,0,0,-2,-3
1528884451586449,1,0,3,1,1,0,-1,0
1528884451586449,7,0,2,-2,-1,-2,0,7
1528884451601070,-3,-8,-6,-2,-2,0,-4,-16
1528884451601070,-6,1,0,0,-2,-1,2,6
1528884451609211,-8,-2,-2,-2,-3,-1,0,-4
1528884451609211,8,3,-5,-2,-2,-3,0,-1
1528884451624243,3,0,4,-1,-2,0,1,3
1528884451624243,0,-6,-4,0,0,-2,-1,-2
1528884451631443,-1,1,-2,0,-1,-3,-1,0
1528884451631443,-5,-3,-1,-1,0,-2,-1,0
1528884451639312,3,1,1,0,-1,-1,0,-1
1528884451639312,0,-1,-3,-2,0,0,-2,-3
1528884451645990,-1,-1,0,-2,0,0,-2,1
1528884451645990,-3,1,4,2,-1,-1,-2,-5
1528884451661164,-4,-2,-11,-2,0,-1,-1,-1
1528884451661164,2,1,7,0,0,0,1,3
1528884451668106,2,-1,-7,-2,-2,-2,-1,-2
1528884451668106,-3,0,-4,-1,1,1,1,-3
1528884451683066,-2,2,4,0,-1,-1,-1,2
1528884451683066,0,-1,-3,-3,-2,-1,-2,-2
1528884451691268,0,-4,8,0,0,0,-1,-1
1528884451691268,-4,-3,-6,-2,-2,-1,-2,0
1528884451699249,2,4,2,-1,-1,-1,0,8
1528884451699249,1,-3,-5,1,0,0,-3,-2
1528884451706264,1,1,0,0,0,-1,-2,0
1528884451706264,-4,-6,-5,-1,0,-1,0,-1
1528884451721682,4,1,4,1,0,-2,-1,-2
1528884451721682,-2,4,3,0,-1,-1,-2,-1
1528884451728284,9,-3,0,-2,-1,-1,-2,-1
