timestamp,emg1,emg2,emg3,emg4,emg5,emg6,emg7,emg8
1529292926917029,-1,-3,-2,-4,0,0,-1,-3
1529292926917029,-2,0,-1,-2,-2,0,-1,0
1529292926921017,-2,0,-1,-2,-2,1,-1,0
1529292926921017,3,0,-1,-1,-1,0,0,2
1529292926927999,-2,-1,-1,-2,-2,-1,-1,0
1529292926927999,-3,-1,-1,0,-1,1,-1,-2
1529292926935977,-5,-3,-2,-3,-2,-1,0,-2
1529292926935977,5,0,-1,3,-4,-2,-1,0
1529292926950937,-2,-1,-2,-1,-2,-2,0,0
1529292926950937,0,-1,0,0,3,0,0,-1
1529292926958916,-8,-3,0,-3,3,0,-1,-3
1529292926958916,8,1,1,1,0,-1,-1,0
1529292926980858,-1,-1,-1,-2,-2,0,-1,-3
1529292926980858,0,-2,-1,-2,-2,-2,-1,-1
1529292926988836,-1,0,-2,-1,-2,-1,0,-1
1529292926988836,-8,-2,1,-4,0,0,-2,-4
1529292927006788,2,1,0,-1,-1,1,-1,1
1529292927006788,-6,-2,-1,1,-2,-2,-3,-8
1529292927018757,2,0,0,1,-2,-2,1,3
1529292927018757,-4,-2,1,-3,1,-1,-2,2
1529292927033717,4,-1,-2,0,-2,1,-2,-2
1529292927033717,2,1,-3,0,-3,-2,-1,-1
1529292927052666,0,-2,-2,1,-3,-4,-1,-2
1529292927052666,-5,-3,-1,-4,0,-1,-1,-2
1529292927063635,0,-1,-2,-1,0,-2,-1,-2
1529292927063635,-4,1,-1,-1,-1,0,-2,-6
1529292927070617,4,1,-2,0,0,-1,2,10
1529292927070617,-8,-4,-2,-3,-2,-1,-3,-4
1529292927085578,-1,-1,-1,-1,0,-1,-3,-4
1529292927085578,-3,-2,-2,-1,0,1,0,1
1529292927111543,-4,-2,-1,-2,3,-1,-1,-2
1529292927111543,3,-1,-2,0,0,0,-1,-1
1529292927123476,3,-1,0,-2,-2,-3,1,4
1529292927123476,-2,-1,0,-3,-5,0,-1,-1
1529292927131455,-2,-3,-2,-2,-3,0,-3,-5
1529292927131455,-6,-4,-1,-1,-2,-1,-2,-5
1529292927146414,3,0,-1,0,-2,1,0,2
1529292927146414,0,-2,-1,-2,-4,-3,-3,-4
1529292927153396,-1,-2,-1,-2,-2,-3,-1,7
1529292927153396,4,1,-1,-3,-1,-1,-2,0
1529292927168358,-5,-2,-1,0,-1,0,-3,-6
1529292927168358,3,1,-3,1,-1,-1,-2,3
1529292927183316,-4,-3,-2,-1,1,0,-3,0
1529292927183316,5,0,-1,-1,-1,-1,0,1
1529292927191295,-3,0,-1,-1,-2,-2,-2,-5
1529292927191295,-9,-3,-2,-1,0,0,1,-2
1529292927206289,13,-1,-1,-3,-2,-1,0,4
1529292927206289,-3,-1,0,-1,0,-1,-2,-2
1529292927213236,0,-3,-1,0,-2,1,-2,-1
1529292927213236,1,1,0,-1,-1,-3,-2,-2
1529292927229229,-3,-1,-2,-1,-1,0,0,-1
1529292927229229,-4,-4,-1,-1,-1,0,0,1
1529292927251178,-1,-1,-2,-1,-3,0,-2,0
1529292927251178,-1,0,-2,1,-3,-2,1,-2
1529292927258166,0,-1,-2,1,-1,-2,0,-1
1529292927258166,0,0,-2,0,-1,-2,0,0
1529292927266095,0,-2,-1,-2,-2,-1,1,-2
1529292927266095,-1,-2,-1,-2,-2,-1,-2,-1
1529292927273109,2,0,-1,-1,1,-1,-1,-1
1529292927273109,-1,-1,-1,-3,0,-1,-1,-1
1529292927281102,1,-1,-1,-1,-1,-1,0,-1
1529292927281102,-4,0,0,-1,-2,-2,-1,-1
1529292927296014,-2,0,-1,-2,-2,-2,-2,-2
1529292927296014,1,0,0,0,-1,0,0,-1
1529292927310976,0,0,-2,-1,-2,0,-2,3
1529292927310976,-4,-1,-2,0,-1,0,-1,-1
1529292927317957,0,1,-1,0,-2,-3,0,-2
1529292927317957,-3,-2,-2,-1,-1,-1,0,0
1529292927332916,3,1,0,0,-3,-1,0,2
1529292927332916,-21,-5,-1,-2,-2,-1,0,-8
1529292927340897,14,0,2,-1,-2,1,-1,6
1529292927340897,4,0,-1,-1,-1,0,-2,-2
1529292927355854,-2,1,-1,-1,0,-1,1,-2
1529292927355854,-1,-3,0,-1,0,-1,-2,0
1529292927370815,3,0,-2,1,-3,-1,0,0
1529292927370815,4,1,-1,-1,-1,-1,-2,1
1529292927378793,-9,-4,-1,-3,-1,-2,-1,-6
1529292927378793,1,-3,-1,-1,-1,0,0,2
1529292927393754,-2,0,-2,-1,-3,-3,-2,-2
1529292927393754,1,-1,0,-2,0,-2,-1,-1
1529292927400735,0,1,0,-1,0,-1,0,-1
1529292927400735,0,-1,-2,-1,-1,0,-2,-2
1529292927415695,-2,-5,-2,0,0,-1,-3,0
1529292927415695,0,-2,0,0,0,1,0,1
1529292927438633,-1,-2,0,0,0,-1,-2,-1
1529292927438633,4,-2,0,0,-2,-2,-2,0
1529292927445615,-3,0,-3,-2,-1,0,-1,0
1529292927445615,1,-2,-1,-1,-1,-3,-2,1
1529292927460575,-9,-1,0,-2,0,-1,-1,-5
1529292927460575,1,1,-2,-2,0,0,-1,0
1529292927468553,-4,-1,-1,0,-2,-3,0,-2
1529292927468553,0,1,-1,-2,-2,-1,-1,0
1529292927475534,0,1,0,-1,-1,-1,-1,-1
1529292927475534,-6,-1,-1,0,-1,-2,1,-3
1529292927490494,2,3,-1,-1,0,-1,0,0
1529292927490494,0,-2,-1,-1,-3,-2,-1,0
1529292927498473,-6,-4,-1,-2,-1,0,-1,-1
1529292927498473,1,1,-1,-2,-2,0,-1,-2
1529292927513434,15,2,-1,1,-2,-1,-1,2
1529292927513434,-16,-6,-3,-3,-1,-2,-2,-1
1529292927521411,-4,-2,-3,-1,-2,0,0,-3
1529292927521411,-3,-3,-2,-1,-2,-2,0,-2
1529292927536372,-6,-2,-1,0,-1,1,-1,-3
1529292927536372,-4,-2,-2,-1,0,-1,0,-1
1529292927551332,2,-1,0,-2,-2,-1,-1,2
1529292927551332,1,-2,-1,-1,0,0,-2,0
1529292927558314,2,3,-2,-1,-2,-2,-1,-1
1529292927558314,-1,1,-1,1,1,1,-1,-1
1529292927573273,-3,-2,-3,-3,-1,-2,-2,0
1529292927573273,2,0,-1,-1,-2,-1,0,0
1529292927581252,0,-2,0,-1,-1,0,0,0
1529292927581252,0,-1,0,-1,1,-1,-1,0
1529292927596212,-3,1,-1,-1,0,0,-2,-3
1529292927596212,-2,-1,-1,-1,0,0,-1,-3
1529292927603194,0,-2,-1,-1,-1,-1,-1,0
1529292927603194,0,-1,-3,-1,-4,-2,-1,-1
1529292927618153,0,-2,-1,-1,0,-1,-1,1
1529292927618153,0,0,0,-2,-1,1,-2,0
1529292927633115,-7,-3,0,-1,-1,-1,0,-3
1529292927633115,5,0,-1,0,0,-2,0,-4
1529292927641092,2,-1,0,2,-1,-3,-2,2
1529292927641092,-3,0,-2,-1,-2,1,-1,-2
1529292927656052,1,0,-1,-1,-3,0,0,2
1529292927656052,-12,-1,0,-2,1,1,-1,-8
1529292927671011,-1,-1,-1,-3,-1,-2,-2,0
1529292927671011,-1,-2,0,-1,-1,-1,-1,0
1529292927685971,-1,-1,-2,-1,-1,0,0,-1
1529292927685971,-2,-1,0,-1,-2,-1,-1,-1
1529292927700932,-1,-1,-2,-2,-1,-1,-1,-2
1529292927700932,1,-1,-3,-1,0,-1,-1,0
1529292927707914,-2,-3,-2,0,-1,-1,-2,-1
1529292927707914,-1,-2,-2,-1,-2,-2,-1,0
1529292927715891,-1,-1,0,0,0,-2,-1,-2
1529292927715891,-3,0,-1,0,-1,-1,0,1
1529292927723870,4,-2,-2,-1,0,-2,-3,1
1529292927723870,-2,-1,-2,-2,-1,-2,0,-1
1529292927738831,-10,0,-3,-2,-2,0,2,-2
1529292927738831,10,0,0,-1,-1,-2,1,1
1529292927753790,-2,-1,-2,-1,-1,-1,0,-2
1529292927753790,-2,-1,1,-1,-1,-1,-1,-2
1529292927760771,-3,-1,-1,-2,0,-1,-1,-1
1529292927760771,-2,-1,1,-1,-1,0,-3,-2
1529292927783710,1,-1,-2,-1,0,0,-1,1
1529292927783710,-4,2,-2,-1,-1,-1,-1,-3
1529292927790692,1,-1,0,0,-2,-1,1,-2
1529292927790692,-1,-1,-2,0,-4,-1,-1,-1
1529292927805651,1,-2,0,-1,-1,-2,-1,-1
1529292927805651,-3,-1,-1,-1,0,-1,-1,-1
1529292927820611,-1,0,-1,0,-4,0,0,0
1529292927820611,-1,-2,-2,-1,0,0,0,-1
1529292927835571,-1,-1,-1,-3,1,0,1,-3
1529292927835571,0,-1,-2,-2,1,-1,-1,-1
1529292927843550,2,-1,0,-1,2,-1,-2,0
1529292927843550,-3,-1,0,-2,-1,-1,-1,-1
1529292927858510,-5,-3,-1,-1,-1,-2,0,-1
1529292927858510,2,-1,-1,0,-1,-2,-1,0
1529292927873470,2,-1,-4,0,-1,-2,0,2
1529292927873470,1,2,3,4,0,-2,1,0
1529292927880452,-5,-6,-19,-7,-2,-1,-2,0
1529292927880452,-4,1,0,1,0,-2,-1,-1
1529292927895411,0,-1,-3,-3,-1,0,-1,-2
1529292927895411,-1,-1,0,0,-2,0,-1,-1
1529292927903390,0,1,-4,-3,0,2,-1,-1
1529292927903390,2,2,8,6,0,-3,-1,0
1529292927918350,-1,2,26,10,-5,11,-3,-6
1529292927918350,2,4,-1,-11,-7,-29,-1,-1
1529292927933312,-9,-8,10,-3,-10,-12,-11,-6
1529292927933312,4,5,3,20,1,-10,-2,3
1529292927941291,1,-6,-10,-3,34,50,3,2
1529292927941291,5,5,-1,21,-11,-16,8,7
1529292927956249,-3,-3,-11,-55,-26,-21,-6,-1
1529292927956249,5,0,3,20,37,38,11,4
1529292927971209,3,4,-1,-8,0,12,8,4
1529292927971209,-8,-5,-6,21,21,48,0,-5
1529292927986172,-21,-12,4,-25,9,-1,0,-1
1529292927986172,-7,-10,-4,15,31,0,-5,-2
1529292928001475,3,8,5,53,27,1,1,2
1529292928001475,-11,-5,-4,-57,-32,37,-1,-5
1529292928008745,-4,-12,-2,19,-5,-9,-3,-5
1529292928008745,4,4,9,3,18,-23,-4,2
1529292928023544,-1,7,-8,-11,-21,-60,-28,-16
1529292928023544,-12,-14,-17,-40,-14,25,17,6
1529292928038663,-3,-2,7,12,18,43,2,-9
1529292928038663,18,7,11,-2,-60,-73,-15,7
1529292928061100,5,1,-3,13,-1,18,14,8
1529292928061100,-3,8,-20,-1,-9,38,7,0
1529292928069217,9,10,6,0,-20,29,-7,2
1529292928069217,-4,-3,1,-16,-41,-71,-4,-6
1529292928084155,-9,-10,14,-5,-6,23,4,7
1529292928084155,-8,-4,21,7,7,37,-28,-36
1529292928091025,-8,4,16,-5,-8,-9,13,7
1529292928091025,-3,-5,13,8,22,47,0,7
1529292928106581,-5,0,7,9,2,-20,-4,1
1529292928106581,24,-3,-7,-12,4,-10,18,42
1529292928120451,-11,-3,-19,-36,-16,-60,-14,-32
1529292928120451,1,-16,-14,-25,-6,40,21,26
1529292928136407,-26,-1,-7,10,28,35,17,4
1529292928136407,11,-2,-8,-25,-7,-12,-5,-1
1529292928143390,23,15,-10,-18,-25,-20,-1,-1
1529292928143390,-11,1,-5,-3,3,-20,-11,-20
1529292928158525,12,15,-3,3,-1,-4,-2,23
1529292928158525,-5,-17,-6,0,-14,-50,-17,-7
1529292928166510,-27,-30,-8,22,10,27,0,-19
1529292928166510,-6,-9,-10,29,24,12,2,18
1529292928181464,19,10,-4,21,9,8,21,59
1529292928181464,11,11,-7,-7,9,52,14,15
1529292928196422,-16,-19,-9,2,1,-29,-25,-22
1529292928196422,26,15,0,3,0,-35,29,58
1529292928203392,19,7,-2,1,18,39,19,27
1529292928203392,-13,-7,-3,7,-11,-16,-36,-60
1529292928218370,5,-17,-4,-4,2,18,26,83
1529292928218370,-18,1,-5,-9,-9,-25,-27,-61
1529292928226357,10,-1,3,14,4,6,6,20
1529292928226357,-6,10,4,-1,5,21,11,-19
1529292928241129,-4,5,1,-2,-5,-25,-16,-50
1529292928241129,19,-14,-3,0,12,28,29,57
1529292928249115,0,9,2,5,0,-13,-8,-3
1529292928249115,-20,-4,-4,-15,-16,-2,-31,-29
1529292928263070,8,-3,2,6,-7,-8,-3,-6
1529292928263070,-6,-8,-4,-36,-2,8,1,-13
1529292928279053,-15,-10,5,9,8,6,-15,-57
1529292928279053,6,-4,3,6,-2,-2,14,84
1529292928286007,-30,-13,-12,-31,-23,-14,-18,-48
1529292928286007,7,-2,3,9,5,0,-5,-12
1529292928300967,-6,-5,-8,-8,-4,0,14,41
1529292928300967,19,19,9,6,11,12,1,0
1529292928307951,26,16,1,5,11,6,6,11
1529292928307951,-15,3,6,7,-2,-7,-5,-8
1529292928322908,-6,-7,-1,-4,-9,-16,-3,13
1529292928322908,4,17,-2,3,-2,-4,-2,-16
1529292928339121,13,6,-5,4,1,12,7,-2
1529292928339121,-5,-25,-1,10,1,0,3,17
1529292928345847,-19,-42,-5,-19,-13,-11,-3,-16
1529292928345847,11,10,1,-15,0,3,4,18
1529292928361173,-11,-20,10,5,5,16,-3,-23
1529292928361173,-7,8,-6,-13,-11,-5,-11,-31
1529292928369218,9,6,-6,10,1,-4,16,43
1529292928369218,-9,-9,7,15,-2,-8,-10,-12
1529292928383359,-5,3,-37,-6,2,-12,-13,-18
1529292928383359,-13,-1,4,14,21,18,3,-1
1529292928398324,1,-15,-50,-87,-79,-25,-11,0
1529292928398324,-6,0,18,14,16,0,-2,-6
1529292928406302,-1,8,25,6,-6,-8,-11,-8
1529292928406302,-3,-11,-16,16,22,6,4,9
1529292928421492,13,29,-11,9,19,8,8,-3
1529292928421492,-16,1,3,-19,-10,10,0,-21
1529292928428621,9,-16,9,-2,-1,-5,4,7
1529292928428621,2,-3,-11,2,0,-8,-5,1
1529292928443647,3,11,6,14,13,10,1,-10
1529292928443647,4,-2,10,9,8,-6,2,11
1529292928458609,-7,-5,15,32,18,3,-6,-15
1529292928458609,5,-3,11,16,38,-7,-6,6
1529292928465637,-10,-5,-18,-24,-53,6,-2,-13
1529292928465637,-3,-4,6,-8,-31,12,10,6
1529292928481620,7,25,-3,-8,10,-4,-4,1
1529292928481620,0,-11,22,21,31,3,-1,4
1529292928488739,-9,-20,8,42,23,1,2,3
1529292928488739,3,10,-12,-31,-10,-12,-1,-4
1529292928504261,-1,2,-17,-24,-1,-7,-9,-7
1529292928504261,-5,6,2,-7,-21,-8,-2,0
1529292928518361,6,-5,-1,2,9,0,-8,6
1529292928518361,-1,-10,-26,-19,-25,-17,-7,-4
1529292928533138,-12,-4,9,3,13,2,-5,-18
1529292928533138,7,5,-7,8,12,-1,-4,6
1529292928548096,-8,-1,2,-3,-20,-17,-10,-7
1529292928548096,-4,-10,-5,17,10,9,8,3
1529292928556259,6,8,3,-9,24,24,8,8
1529292928556259,-1,-8,7,10,-11,10,5,-1
1529292928571312,-1,6,7,8,-12,-11,-13,-8
1529292928571312,1,0,-15,-16,11,-29,-2,1
1529292928586178,6,8,4,-6,-11,4,5,6
1529292928586178,-7,-11,-2,-4,-18,9,-15,-11
1529292928601134,1,15,-15,-11,-27,-61,-12,-4
1529292928601134,-6,-15,-17,-5,17,-7,-4,-10
1529292928608333,5,-1,3,10,12,42,20,12
1529292928608333,4,5,17,-4,-18,-19,-9,-3
1529292928623533,6,9,-12,8,28,8,15,10
1529292928623533,7,5,33,6,6,38,11,3
1529292928638648,1,3,-7,-7,1,27,-3,-2
1529292928638648,-10,-10,-10,-15,-24,-29,-10,-7
1529292928646444,-4,-3,0,-12,-5,-33,-30,-14
1529292928646444,4,16,43,37,24,-43,-7,1
1529292928661479,8,0,-25,-28,-20,42,25,13
1529292928661479,8,1,-11,-11,-1,40,19,9
1529292928668572,6,6,20,-16,3,4,15,7
1529292928668572,-5,-12,-27,12,13,18,-2,-2
1529292928683348,-7,7,5,9,2,-22,-16,-10
1529292928683348,2,5,-17,2,-6,-7,-4,-1
1529292928691360,3,7,12,23,25,-6,1,3
1529292928691360,-4,-3,15,-18,-9,-14,-7,-4
1529292928705832,-10,-7,-10,-17,-14,-11,-4,-7
1529292928705832,2,-5,-19,31,24,15,8,7
1529292928720830,7,0,-1,36,21,0,-3,-1
1529292928720830,6,5,22,-46,-20,1,-3,8
1529292928735784,12,4,-7,-11,-13,-25,-10,0
1529292928735784,-14,-7,-16,-11,-4,2,-6,-5
1529292928744098,14,12,4,73,17,-2,5,3
1529292928744098,-13,-9,-6,8,8,-6,-6,-4
1529292928750969,-2,-13,-2,-29,-3,5,1,0
1529292928750969,-7,-6,-23,0,-12,-8,-3,-6
1529292928759216,-1,11,29,3,9,4,2,1
1529292928759216,3,-9,-37,-66,-11,2,0,-1
1529292928773091,-5,4,18,80,22,9,-1,-7
1529292928773091,-6,-12,-10,5,-22,-8,-2,-2
1529292928781070,-18,-4,4,32,16,-3,-1,-8
1529292928781070,18,19,22,-58,-15,12,8,4
1529292928796025,-6,-8,-43,-43,-17,-5,2,14
1529292928796025,27,20,-32,-21,-21,-18,-31,-26
1529292928804009,4,4,-4,70,30,14,17,13
1529292928804009,6,3,-16,-71,-14,-2,-6,8
1529292928810984,-21,0,14,-5,-9,-2,-8,-14
1529292928810984,11,-14,-33,-50,-9,3,9,21
1529292928818958,-10,2,-4,-6,2,-1,-7,-12
1529292928818958,-3,-2,-18,-12,-8,-8,-12,-7
1529292928834209,7,9,9,59,5,-5,-1,3
1529292928834209,-1,-15,22,-13,4,12,6,0
1529292928840952,-15,11,-47,-68,-10,-1,-10,-17
1529292928840952,-13,-3,22,59,7,5,5,-3
1529292928856608,-11,2,-14,18,-4,-20,-16,-16
1529292928856608,-28,-19,-7,-53,-9,7,11,3
1529292928871294,15,6,-41,-71,-11,5,4,8
1529292928871294,1,-10,-22,51,34,21,18,1
1529292928878572,20,41,26,-1,7,10,3,7
1529292928878572,-35,-51,-2,72,-12,-26,-29,-39
1529292928893639,-27,-1,53,13,-3,3,5,-7
1529292928893639,-18,-24,13,28,1,-11,1,1
1529292928901569,-44,4,19,-12,23,22,10,-11
1529292928901569,26,-20,9,-18,-21,-9,-8,3
1529292928916573,16,-6,-26,-1,-20,-15,-12,-15
1529292928916573,0,31,58,38,15,14,11,9
1529292928931725,-1,0,-5,-79,-11,0,9,15
1529292928931725,2,-2,-8,-6,4,-7,-6,1
1529292928938801,16,-17,-75,-116,-64,-13,-2,0
1529292928938801,-16,-23,34,111,25,-6,-5,2
1529292928953432,16,-24,-15,-63,-12,-16,-13,-6
1529292928953432,61,12,6,8,0,8,21,34
1529292928968396,15,13,55,1,5,-5,-9,-17
1529292928968396,-65,-23,12,-15,-10,6,4,-24
1529292928983353,-6,2,2,10,-4,-12,-5,0
1529292928983353,5,7,-31,54,-5,-11,-10,-1
1529292928998356,-24,-11,46,45,-9,-8,-8,-7
1529292928998356,-29,41,21,4,-4,-11,-12,-23
1529292929006292,11,-30,14,-31,-44,-37,-20,-7
1529292929006292,-1,-2,-30,-13,18,14,12,13
1529292929013320,31,15,21,-19,5,15,6,11
1529292929013320,-8,-2,-26,-63,-12,1,2,-1
1529292929021252,-13,-2,30,27,9,-11,-5,1
1529292929021252,-3,-10,-15,-86,-28,-3,15,14
1529292929036211,-33,2,-57,-50,-21,-4,-17,-35
1529292929036211,-4,-6,11,-18,-5,-1,-1,-2
1529292929051171,24,25,30,47,11,-2,2,10
1529292929051171,22,17,24,18,17,4,0,-5
1529292929058153,-63,-22,-21,8,2,-1,-11,-15
1529292929058153,12,9,-29,-16,-14,-12,-9,-2
1529292929073112,22,35,-7,50,23,18,33,40
1529292929073112,-52,-65,45,-35,-24,1,-5,-24
1529292929081091,-39,-10,-45,-31,-23,-26,-44,-70
1529292929081091,-3,-5,-64,-19,-12,-9,0,34
1529292929096051,-7,-28,-21,11,-2,2,0,3
1529292929096051,22,-6,-36,5,4,-7,-6,16
1529292929111011,8,21,11,4,13,8,3,-5
1529292929111011,3,12,3,-13,-5,1,5,7
1529292929117992,19,8,-15,-3,-1,-2,-1,5
1529292929117992,21,-1,17,0,6,8,7,7
1529292929133950,19,-18,0,50,27,13,23,23
1529292929133950,45,8,-12,-72,-16,-9,-10,7
1529292929140931,-10,-12,29,35,11,-2,-1,-12
1529292929140931,8,18,11,-10,-6,-1,1,8
1529292929155891,-34,-14,3,-1,-14,1,15,0
1529292929155891,28,-4,-3,24,2,-4,-16,-2
1529292929178830,-12,8,0,-18,-10,-8,-21,-18
1529292929178830,50,3,-2,26,11,11,25,29
1529292929185812,30,11,-18,-23,-7,-2,-16,-24
1529292929185812,-15,-23,-12,37,7,-1,2,6
1529292929200772,-4,-10,13,2,-5,-3,-11,-9
1529292929200772,-16,6,-7,1,-2,-6,-13,-16
1529292929208750,22,-1,-11,-7,1,4,17,32
1529292929208750,-1,10,0,-8,3,6,-4,-15
1529292929215731,-6,-15,1,-12,-4,-6,-11,-9
1529292929215731,-27,-1,15,9,-1,4,13,2
1529292929223713,14,12,-23,-20,-4,2,9,21
1529292929223713,-1,6,15,-17,-1,-2,0,-8
1529292929230724,16,-46,55,-3,-5,1,7,13
1529292929230724,-39,7,5,35,11,2,-4,-16
1529292929238718,13,-2,-12,-22,-4,9,24,35
1529292929238718,0,-9,12,5,-8,-20,-53,-49
1529292929253669,6,8,-11,20,2,-1,9,18
1529292929253669,-21,0,-14,-23,-4,2,-2,-11
1529292929260658,14,-10,4,3,0,-1,10,16
1529292929260658,-5,11,-3,13,5,5,4,2
1529292929275618,-25,2,-14,-8,1,-2,0,-9
1529292929275618,-7,-6,-4,-1,0,-4,-6,-5
1529292929290534,-1,11,12,62,9,1,-10,-12
1529292929290534,6,-27,-12,-21,-8,-11,-1,0
1529292929298557,-5,-25,24,36,1,0,5,7
1529292929298557,-17,-4,-20,-31,-3,-9,-16,-22
1529292929313471,3,4,2,5,5,3,1,2
1529292929313471,-2,8,-1,-11,-4,3,2,-2
1529292929320498,0,5,3,30,6,0,-2,-5
1529292929320498,7,4,9,4,-5,0,22,21
1529292929336434,-11,-2,-21,-40,-8,-13,-28,-28
1529292929336434,0,1,0,-3,-1,-4,-9,-6
1529292929350372,6,-2,-12,-14,-5,1,0,-3
1529292929350372,-17,4,3,6,-3,-9,-5,-5
1529292929358350,-9,0,9,5,12,10,-1,-2
1529292929358350,8,2,-2,17,5,4,5,2
1529292929373311,2,0,-4,-3,0,3,2,-3
1529292929373311,1,1,3,4,-2,-6,-4,0
1529292929381292,0,-3,-9,14,-7,-4,0,1
1529292929381292,-12,-6,-11,-36,-9,-13,-8,-9
1529292929396250,10,0,-3,-22,-1,10,7,9
1529292929396250,-19,-5,11,33,17,13,3,-4
1529292929403703,32,7,-25,-32,-6,-1,-3,6
1529292929403703,-6,1,7,26,7,3,0,-3
1529292929410877,-3,-1,-1,-16,-9,-3,2,-3
1529292929410877,1,2,-7,6,6,-5,0,2
1529292929418849,-11,-4,4,4,-6,-6,-6,-5
1529292929418849,3,2,0,-13,-15,-10,-6,-2
1529292929434108,3,-2,-14,-11,2,-3,2,2
1529292929434108,-1,0,-1,11,16,14,3,-1
1529292929441051,-3,3,7,-5,5,2,0,-2
1529292929441051,4,1,-1,2,-8,0,0,2
1529292929456494,-3,0,-3,-1,-3,3,1,-2
1529292929456494,-3,2,-3,-2,-6,-8,-6,-5
1529292929463396,-7,0,7,-4,-1,-2,-1,0
1529292929463396,2,1,-1,7,0,1,0,-1
1529292929471515,-3,-3,0,8,1,-5,-5,-3
1529292929471515,2,7,1,-3,-4,-1,-1,2
1529292929478530,-6,-4,5,2,4,-4,-1,-2
1529292929478530,-5,-12,11,10,4,4,-1,-2
1529292929493491,2,17,-5,2,0,-3,-3,-1
1529292929493491,-5,-13,-34,-24,-23,-6,-2,-2
1529292929501289,-4,-2,-3,-11,-6,-7,-4,-2
1529292929501289,2,3,0,-9,-3,0,-2,-2
1529292929516418,0,-2,-4,0,5,-1,-2,-1
1529292929516418,-1,2,-7,-3,-3,-3,-2,-1
1529292929523231,-1,1,2,-1,1,3,1,0
1529292929523231,2,2,-6,3,5,5,1,0
1529292929531378,-1,-8,-1,-7,-3,0,0,-1
1529292929531378,3,2,9,4,0,-3,-1,0
1529292929538570,-2,-5,-1,2,0,1,1,1
1529292929538570,1,2,-1,1,3,-1,0,1
1529292929554191,-3,-5,0,4,-4,-3,-3,-2
1529292929554191,-2,-2,2,-7,-2,-2,-1,-1
1529292929561320,0,0,-2,-4,0,-2,-1,-2
1529292929561320,-1,-3,-4,2,1,-3,-1,-3
1529292929578094,0,-5,-4,-2,-2,-1,-4,-1
1529292929578094,0,-1,1,-6,-3,-1,0,-2
1529292929583458,0,0,3,1,-1,0,0,-1
1529292929583458,-2,0,-14,0,-3,-4,-2,-2
1529292929591264,-1,-5,0,3,4,3,-1,-2
1529292929591264,0,0,4,-3,0,3,2,2
1529292929599242,-2,1,0,4,3,3,2,-1
1529292929599242,1,0,2,3,1,-1,-1,-1
1529292929613640,-1,-1,3,-2,-5,-5,-2,-1
1529292929613640,0,-4,-11,-7,-2,-2,-1,0
1529292929628776,-1,-4,-11,-5,-4,-7,-4,-3
1529292929628776,2,6,18,4,-1,0,-2,-2
1529292929644132,-5,-12,-14,-5,-1,4,3,1
1529292929644132,1,8,22,4,1,-4,0,1
1529292929659219,-3,-7,-26,-7,-3,-1,-3,-2
1529292929659219,-6,-6,4,7,7,5,2,-1
1529292929666686,3,4,6,7,4,6,-1,0
1529292929666686,-1,-1,-6,-3,-3,-3,-1,-2
1529292929712392,0,1,-4,-5,-2,1,3,2
1529292929712392,3,4,-8,-6,-6,-5,-1,2
1529292929734791,1,1,4,0,4,7,2,1
1529292929734791,4,13,-10,0,6,14,9,3
1529292929748563,-4,3,11,-12,-16,-14,-6,-3
1529292929748563,-4,-6,-22,-11,-12,-17,-10,-3
1529292929756471,1,0,-9,-7,-5,-10,-4,-4
1529292929756471,1,7,28,11,10,13,5,1
1529292929764156,-3,-1,-1,-1,-4,-4,-4,-2
1529292929764156,3,3,0,6,-4,10,1,2
1529292929771472,1,4,27,9,-1,7,2,2
1529292929771472,-2,-5,-11,-2,-10,3,0,-3
1529292929778119,-3,-2,-4,-1,-8,-1,1,-2
1529292929778119,-1,-3,-1,-3,-3,3,2,-3
1529292929794094,-3,0,-8,-6,-6,2,-1,0
1529292929794094,-10,-30,12,-4,-7,4,-3,-2
1529292929808040,0,1,-5,-3,-31,6,-2,0
1529292929808040,1,3,3,-3,-24,-1,-4,0
1529292929816374,-2,-4,-9,-4,18,-5,-4,-1
1529292929816374,-1,-4,-3,1,59,-8,-4,-1
1529292929830978,-2,-2,-3,-3,52,0,0,-1
1529292929830978,0,5,2,-2,37,0,-1,0
1529292929839221,0,2,4,-4,-6,0,-1,0
1529292929839221,-1,1,-5,-8,3,4,1,0
1529292929854174,-3,-1,-1,-2,6,0,-2,-2
1529292929854174,1,3,0,-3,-3,-5,-2,-1
1529292929869057,-2,-3,-2,-2,-9,-1,0,-1
1529292929869057,0,1,3,2,-3,-6,1,1
1529292929876073,0,-5,-1,-2,2,0,-1,0
1529292929876073,-2,-1,-5,-2,-11,-3,-1,0
1529292929890882,0,1,3,1,-6,-3,-1,-1
1529292929890882,0,3,0,0,5,0,0,-1
1529292929899010,-1,0,2,-5,-1,-1,-1,0
1529292929899010,-3,-2,-1,-3,-11,-4,0,0
1529292929914186,-1,-4,-3,2,-2,-4,-1,-1
1529292929914186,-2,-2,-11,-7,-2,-2,-1,-2
1529292929921107,0,1,-3,-2,-5,-2,0,0
1529292929921107,-1,-3,0,-2,-6,-4,-2,-1
1529292929928751,0,2,12,9,1,0,-1,-2
1529292929928751,-2,-2,-10,-1,-2,0,1,-1
1529292929936749,-1,-3,1,1,-3,-2,-2,-2
1529292929936749,-1,-1,-5,0,-5,-2,-1,-3
1529292929951479,0,-3,1,0,-2,-2,1,2
1529292929951479,-1,-2,6,1,-1,-1,-2,-1
1529292929959264,-1,0,0,0,2,0,-2,-3
1529292929959264,0,-3,3,1,-3,2,0,1
1529292929975320,0,-4,-7,-5,1,-1,-2,-2
1529292929975320,1,0,3,2,0,-1,-1,-2
1529292929981305,-1,-4,-8,-6,-6,-2,1,-1
1529292929981305,-1,-1,-3,-2,-5,-4,-1,-1
1529292929988456,-1,-2,-4,1,-6,0,-1,-2
1529292929988456,-2,-2,-3,-1,-5,1,0,0
1529292929996445,-1,-2,-4,2,0,1,-2,0
1529292929996445,-3,-2,2,-3,-4,-3,-3,-1
1529292930011571,-3,-2,-8,-7,0,-2,-1,-1
1529292930011571,0,3,4,2,1,-2,-1,-1
1529292930018603,-1,-4,-2,-2,-2,-3,-1,0
1529292930018603,0,2,9,3,1,-1,-1,1
1529292930033565,-2,-2,-3,-3,1,-3,0,-1
1529292930033565,-2,0,-2,-7,0,-2,0,-1
1529292930041356,-2,-1,0,0,0,-1,-2,0
1529292930041356,0,-3,-3,0,1,1,-1,-2
1529292930048533,-1,-2,5,2,-1,-2,-3,0
1529292930048533,0,-1,-2,1,0,0,1,-1
1529292930055673,-3,-2,-7,-3,1,-1,0,-1
1529292930055673,-1,-2,-6,-2,-2,1,-1,-2
1529292930078456,-1,-2,-5,0,-2,-1,-1,-1
1529292930078456,-2,-3,-3,-3,-2,0,-2,-1
1529292930085617,0,0,-2,-1,0,0,-2,-2
1529292930085617,-2,-2,-2,-2,-2,-1,-2,0
1529292930101554,-1,1,-2,0,-3,-1,0,-2
1529292930101554,0,0,0,-2,-2,-1,-1,1
1529292930108926,-2,-1,2,1,0,-1,0,-2
1529292930108926,-3,-3,-4,-6,-1,-1,-3,-1
1529292930115907,-1,0,0,2,-1,0,-1,0
1529292930115907,0,2,6,4,-1,-1,-1,0
1529292930131082,-1,3,7,4,2,2,-1,0
1529292930131082,-2,-2,-7,-4,-2,-3,-1,-2
1529292930139128,0,1,3,1,-3,-2,-1,-1
1529292930139128,0,3,6,5,2,-2,0,-1
1529292930153692,1,0,13,0,2,0,0,-2
1529292930153692,0,-2,-2,-1,1,1,-1,0
1529292930161508,1,2,10,-1,-4,1,0,1
1529292930161508,0,2,5,3,0,1,2,1
1529292930168473,0,2,-1,-2,1,-2,0,0
1529292930168473,1,2,8,0,0,-1,-1,-1
1529292930176071,-1,1,-6,-4,0,-1,-1,0
1529292930176071,0,-1,4,0,0,1,0,1
1529292930191076,1,-2,0,-3,1,-1,-1,0
1529292930191076,0,1,1,-1,-1,0,1,-1
1529292930199046,2,1,3,1,-1,1,-1,-1
1529292930199046,1,2,5,0,-4,0,0,-1
1529292930221335,-2,0,-11,-7,-1,0,1,0
1529292930221335,-1,-2,0,0,1,0,-2,0
1529292930229206,-1,-2,-2,-3,0,0,1,-1
1529292930229206,-1,-1,2,0,-2,-2,-3,-1
1529292930236729,1,-2,-1,-2,-4,-2,-3,-2
1529292930236729,2,-1,-2,-1,-3,-2,-2,-3
1529292930243945,-3,-4,-5,-2,0,-3,-1,0
1529292930243945,-1,-10,-2,0,0,0,-2,-1
1529292930259304,-2,-2,-5,-1,-2,-2,-2,0
1529292930259304,-4,-3,-1,-1,-1,0,-2,-1
1529292930266071,-1,-2,-2,1,-2,0,-3,-1
1529292930266071,-3,1,0,0,-2,-2,0,-1
1529292930273867,0,0,2,1,-2,-1,-3,-1
1529292930273867,-4,-6,-3,0,-1,0,0,-1
1529292930281234,1,-1,-1,-1,-2,-1,0,-2
1529292930281234,0,2,4,1,-1,-2,1,-1
1529292930289176,-2,-4,-8,-15,-4,-2,-3,-2
1529292930289176,-1,-1,-9,-4,-2,-4,-2,-1
1529292930295983,0,3,20,7,0,-2,0,-1
1529292930295983,-1,-2,-25,-10,-3,-1,0,-1
1529292930311154,0,3,1,0,-1,-1,0,0
1529292930311154,0,-2,-7,-3,0,-1,0,-1
1529292930317949,-2,-2,-4,-2,-1,-2,-3,-2
1529292930317949,1,2,0,1,1,0,-1,-1
1529292930334235,-4,-4,-2,4,-2,1,0,-1
1529292930334235,-2,-6,1,-2,-2,-2,-1,0
1529292930340889,-1,-2,-7,0,0,-1,0,-1
1529292930340889,-1,0,2,1,-3,-2,-1,-2
1529292930348879,1,-2,-6,0,0,0,-1,1
1529292930348879,0,3,7,2,-2,-1,0,0
1529292930356206,0,1,-6,-3,0,0,0,0
1529292930356206,-3,-2,4,1,-1,-2,-1,-2
1529292930378403,0,-1,-3,0,-3,1,-1,-3
1529292930378403,-1,2,3,1,-1,0,-1,0
1529292930386285,0,0,-1,-4,-2,-2,-2,-1
1529292930386285,-1,-2,-6,-4,0,-1,-1,0
1529292930401123,-3,-1,0,1,-1,-2,-1,1
1529292930401123,1,1,1,2,-1,-1,0,-1
1529292930408067,-3,-6,-8,-4,-2,0,-2,-1
1529292930408067,1,3,21,6,1,-2,-1,-1
1529292930416091,-2,-1,-12,-7,-2,-2,-1,-1
1529292930416091,0,2,3,2,-2,1,-1,-2
1529292930431004,-1,1,3,0,1,-3,0,-1
1529292930431004,0,3,-3,-1,0,-1,-1,0
1529292930439009,-3,-1,-4,-4,-1,-1,-2,-1
1529292930439009,-2,-3,-13,-3,0,1,-1,1
1529292930453982,-2,-3,2,1,0,1,0,-1
1529292930453982,1,-3,-10,-4,2,-1,0,-2
1529292930461104,-1,1,3,2,0,-1,-1,-1
1529292930461104,1,-1,-1,-1,0,0,-1,1
1529292930469067,-1,-1,-3,-4,-1,0,0,-1
1529292930469067,-1,-1,2,0,-4,-1,-1,0
1529292930483398,-1,-2,-2,0,0,-2,-1,-2
1529292930483398,0,-1,0,-1,-3,-2,1,-1
1529292930491266,1,5,-3,0,-2,-1,-2,1
1529292930491266,-1,0,0,-1,-2,1,-1,0
1529292930506268,0,-2,-3,1,-2,1,0,1
1529292930506268,-1,-1,-1,0,-1,-2,-4,-2
1529292930513340,0,1,3,1,0,-2,-1,0
1529292930513340,-3,-2,-9,-4,0,-2,-1,-1
1529292930528145,0,-1,1,0,-1,2,-1,-2
1529292930528145,-2,-2,2,1,-1,-1,-1,1
1529292930543864,0,-1,-1,1,1,-1,0,0
1529292930543864,-2,-2,-4,0,1,-1,-1,1
1529292930551592,0,1,2,1,0,-3,-1,-2
1529292930551592,0,1,4,-1,-1,-1,0,-1
1529292930565480,-1,-3,-4,-1,-2,-2,-2,-1
1529292930565480,0,0,0,-1,0,1,0,-1
1529292930573413,-1,-1,0,0,-1,-2,2,1
1529292930573413,-1,-2,0,-1,-1,1,-1,-1
1529292930596351,-5,-4,-5,-4,-2,-3,-2,-2
1529292930596351,0,-1,-2,-1,0,-1,0,-2
1529292930611485,0,0,1,-2,-1,0,-1,0
1529292930611485,0,-2,2,2,-3,-2,-1,-1
1529292930618296,1,-3,-2,-2,-1,-3,0,1
1529292930618296,0,-3,-3,-1,0,-2,0,-2
1529292930633662,-2,1,0,-1,0,0,1,-2
1529292930633662,0,-1,-1,-2,0,-1,0,-1
1529292930641451,-2,-1,-2,-1,0,0,-2,-1
1529292930641451,-2,-1,2,0,0,-1,-2,-1
1529292930648600,0,-2,-4,-2,-1,0,0,1
1529292930648600,-2,-2,-4,-2,-2,-2,-1,1
1529292930663791,0,0,5,-1,-3,0,-1,-1
1529292930663791,-1,-1,-2,-1,-1,0,-2,0
1529292930670590,-2,-1,1,0,-1,-2,-1,-4
1529292930670590,-1,-2,0,0,-1,-3,0,0
1529292930685966,-1,-2,-4,-1,0,-1,-1,-1
1529292930685966,-6,-11,-9,-3,-1,-1,-1,-2
1529292930694070,-1,-3,2,-2,-1,0,-1,1
1529292930694070,-1,-1,-1,-1,-2,0,-1,-1
1529292930708950,-3,-4,-15,-7,-2,0,-1,-2
1529292930708950,0,0,4,2,-2,-1,1,-2
1529292930723779,-1,0,-5,-2,-1,-2,-1,-1
1529292930723779,-3,2,1,-4,-2,-2,-1,-2
1529292930730914,-2,-6,-6,-4,0,-2,-1,-2
1529292930730914,1,2,8,1,0,0,-1,-1
1529292930745837,0,-4,-8,-2,0,-2,-1,0
1529292930745837,0,3,-4,1,-1,0,-1,-2
1529292930754020,1,4,5,4,-1,-1,-1,-3
1529292930754020,-2,-4,-1,-4,-1,-1,0,0
1529292930768371,2,0,2,11,5,0,1,0
1529292930768371,-4,-1,21,1,-8,-4,-3,-2
1529292930783324,-1,-3,17,-5,-8,-1,2,2
1529292930783324,-1,1,-2,5,5,0,0,0
1529292930791173,0,-2,-6,-7,-9,-2,0,0
1529292930791173,-1,2,1,0,-1,-3,-2,-2
1529292930806304,-1,0,-1,0,1,0,-1,1
1529292930806304,0,-2,1,-4,-4,-3,0,-1
1529292930814075,-2,2,6,3,5,2,-1,0
1529292930814075,-1,-4,-16,-3,1,1,-1,-1
1529292930829071,-1,-2,-4,-2,-1,-3,0,0
1529292930829071,0,-1,-2,-2,0,-1,-1,-1
1529292930843651,-1,-1,-3,3,3,0,-1,0
1529292930843651,0,-7,17,5,0,1,0,1
1529292930851542,-1,-4,-21,-9,-1,0,-1,-2
1529292930851542,-3,-9,-11,-2,4,-3,-4,-4
1529292930866388,-2,-1,24,14,-4,0,0,0
1529292930866388,-5,-7,-32,-37,-16,-6,-3,-2
1529292930873813,2,4,10,5,0,1,-1,0
1529292930873813,-3,-5,-23,-7,-2,2,1,0
1529292930889088,-1,0,-1,-17,-18,-2,-2,0
1529292930889088,-2,-1,-6,3,1,-4,-3,-2
1529292930911494,1,-1,-4,4,-2,-3,-1,-1
1529292930911494,0,3,1,-4,-3,0,-1,-1
1529292930919173,-4,-1,7,10,7,0,-2,-2
1529292930919173,3,5,12,1,2,2,0,1
