timestamp,emg1,emg2,emg3,emg4,emg5,emg6,emg7,emg8
1528448172871362,-1,1,-1,0,0,0,0,-2
1528448172871362,0,-3,-1,-2,-1,-2,-2,1
1528448172878342,-1,0,0,-1,0,0,0,0
1528448172878342,1,0,-1,-1,1,0,-1,0
1528448172885323,1,-1,0,-3,-1,-2,0,-1
1528448172885323,0,0,-1,1,0,0,-1,-2
1528448172900284,0,0,-2,0,0,-1,-2,-2
1528448172900284,-3,-2,-1,0,0,-1,-1,0
1528448172909259,0,0,2,-1,-2,-1,0,-1
1528448172909259,1,0,-2,1,-2,-1,1,-1
1528448172915271,1,0,-3,-2,1,-1,0,-2
1528448172915271,-2,-1,-1,0,-2,-1,-1,0
1528448172931229,1,-2,0,-1,-1,0,-1,0
1528448172931229,-1,-1,1,-1,-2,-2,-1,-1
1528448172946161,-2,-2,0,1,-2,0,-1,-1
1528448172946161,1,0,-1,-2,-1,0,-2,-1
1528448172947159,0,-1,-1,0,0,-1,-1,-1
1528448172947159,-1,-2,-1,-1,-1,-1,-1,-2
1528448172961120,0,-2,0,1,-1,-2,-1,-1
1528448172961120,0,-2,0,0,0,-1,0,-2
1528448172969099,-2,-1,-2,-1,-2,0,-1,0
1528448172969099,0,-1,-1,0,-1,-2,1,-1
1528448172976081,0,-1,-1,-1,-1,-1,0,0
1528448172976081,-3,-1,0,-1,-2,1,-1,1
1528448172991041,-2,1,-2,-1,-1,-1,-1,0
1528448172991041,-1,-1,-1,-2,-1,0,-1,0
1528448172998022,0,-1,-1,-2,-1,-1,-1,-1
1528448172998022,0,0,0,1,0,-3,-1,0
1528448173006000,-1,-1,0,-2,0,-1,-2,0
1528448173006000,0,0,0,1,0,1,0,0
1528448173020960,-1,0,-1,0,-1,1,0,-1
1528448173020960,1,0,-1,-2,0,0,0,0
1528448173036919,1,-1,-2,-1,-1,-1,1,-1
1528448173036919,1,1,0,-1,0,-1,-2,2
1528448173038912,-1,1,-1,0,0,0,-2,-3
1528448173038912,-1,-1,-1,0,-2,1,-4,-2
1528448173050880,-1,-2,0,-1,-2,-1,0,0
1528448173050880,-1,-2,0,-1,-3,0,-1,-1
1528448173059857,0,-2,0,-1,0,-1,1,1
1528448173059857,-1,0,-1,0,2,-2,0,0
1528448173073821,-1,-2,1,0,0,0,0,0
1528448173073821,-1,-2,-1,0,-1,-1,-2,0
1528448173080803,0,0,-1,0,-1,-2,-1,-1
1528448173080803,0,-2,0,1,-3,-1,0,-1
1528448173088779,-2,0,-2,0,-2,-1,-1,-1
1528448173088779,0,1,0,-1,2,-2,0,0
1528448173095760,0,0,0,-1,-1,0,-1,0
1528448173095760,-1,0,-1,-1,1,2,1,0
1528448173111718,-1,0,0,2,0,-2,-1,0
1528448173111718,-3,-1,-1,-2,-2,0,1,0
1528448173117702,0,1,0,1,0,0,-1,0
1528448173117702,0,-1,-1,0,0,-1,0,-1
1528448173133659,0,-2,-1,0,0,0,0,-1
1528448173133659,0,-2,-1,-1,0,-1,-2,-3
1528448173140642,-3,-1,0,0,0,-1,-2,-1
1528448173140642,-1,0,0,-2,-2,-1,-1,-1
1528448173148621,-1,-1,0,-1,-1,-1,-1,0
1528448173148621,0,0,-1,0,-1,1,1,-2
1528448173155600,-1,-1,-2,-2,0,1,1,0
1528448173155600,-1,-1,0,0,0,-1,-1,-1
1528448173179545,-2,0,-2,0,0,-1,-2,-1
1528448173179545,-2,2,0,0,-1,-1,-1,0
1528448173181531,0,-1,0,-1,0,0,0,1
1528448173181531,-1,0,-2,0,0,-1,-4,-2
1528448173201478,-1,0,1,-2,-1,0,-2,-2
1528448173201478,0,-1,0,-1,-1,1,5,0
1528448173203473,0,-1,0,-1,-2,-3,-4,1
1528448173203473,-1,1,0,-2,-2,0,1,1
1528448173208460,0,-1,-1,-1,-1,-1,-2,-1
1528448173208460,0,-2,0,-1,1,0,0,-1
1528448173223420,1,0,0,-2,-1,-3,1,-2
1528448173223420,1,-2,0,-2,0,2,2,-1
1528448173231398,0,-2,-2,-2,-1,-1,-2,-1
1528448173231398,-1,-1,-1,-1,0,0,-2,-2
1528448173238380,-3,-1,1,-1,0,0,0,1
1528448173238380,0,-2,-1,-1,1,-1,-1,0
1528448173254337,-1,-1,-2,0,1,-1,0,0
1528448173254337,0,-1,-1,-1,-1,0,-1,0
1528448173269297,-1,-1,0,1,-1,-1,-2,-2
1528448173269297,-1,-1,-2,1,-2,-1,1,1
1528448173270294,-2,0,1,0,-2,0,1,-1
1528448173270294,-1,0,0,-1,-3,0,-2,0
1528448173275281,-1,0,-1,1,-2,1,0,-1
1528448173275281,-1,0,1,-1,-1,-1,-1,-1
1528448173291238,1,-1,0,1,-2,-2,0,-1
1528448173291238,-1,-1,-1,0,-1,-2,-2,-2
1528448173298219,-2,-1,-1,-1,0,1,-1,-1
1528448173298219,0,-2,-2,-2,0,-3,-1,1
1528448173314177,1,0,0,-1,-1,0,-1,-4
1528448173314177,1,2,-1,-1,1,0,-2,-1
1528448173321293,1,-2,0,-1,-2,-1,1,-1
1528448173321293,-1,0,0,-1,1,0,-3,0
1528448173337253,1,0,-1,-1,0,-2,0,1
1528448173337253,-2,-2,1,0,0,-1,0,-3
1528448173338250,0,-2,-2,-1,0,1,-1,0
1528448173338250,-1,-1,-1,0,-1,-1,-1,-2
1528448173359194,-1,0,-1,-2,-1,1,3,0
1528448173359194,0,-1,-1,0,0,-1,-9,0
1528448173361189,-1,0,-1,0,-2,0,0,1
1528448173361189,0,0,0,0,-1,0,-1,-1
1528448173374156,-2,0,0,0,-1,1,0,0
1528448173374156,-1,0,0,0,0,-2,1,0
1528448173381135,-1,-1,-1,0,-1,0,0,0
1528448173381135,0,0,-1,0,-1,0,-1,-1
1528448173388117,0,-2,-1,0,1,-1,1,-1
1528448173388117,1,-2,-1,-1,0,0,3,1
1528448173403077,-1,-1,-1,1,0,-1,-1,-1
1528448173403077,-1,-1,0,0,-2,-2,2,-1
1528448173411055,-1,0,0,0,0,0,-3,1
1528448173411055,0,0,-1,-1,-2,-2,1,0
1528448173418037,0,0,0,0,0,-1,-2,-1
1528448173418037,0,-1,-3,-1,-1,0,0,-1
1528448173434035,0,-1,-3,-1,-1,0,-2,0
1528448173434035,0,0,-1,0,0,-1,1,0
1528448173440976,1,-1,0,0,-1,-1,-1,-1
1528448173440976,-2,0,-2,-1,0,0,-1,1
1528448173447988,-3,0,0,1,0,0,0,0
1528448173447988,0,-1,1,0,-1,-1,-1,-2
1528448173462917,0,-1,-1,-1,0,0,-1,-1
1528448173462917,0,0,0,-2,-1,-1,-1,0
1528448173471928,-1,0,1,-1,-1,-2,-3,-1
1528448173471928,-2,0,0,-2,-1,-1,0,0
1528448173478035,-1,1,-1,-2,-1,0,1,1
1528448173478035,0,-2,0,-2,-1,-1,-1,-1
1528448173493873,-1,-2,-2,-1,-1,-2,0,1
1528448173493873,-1,1,-1,-1,1,1,0,-1
1528448173500861,-1,0,-1,0,0,-2,0,-1
1528448173500861,-2,-1,-2,1,-3,0,0,-1
1528448173507798,0,-1,-2,-1,1,0,1,0
1528448173507798,0,-2,1,0,-2,0,-2,-1
1528448173522880,-1,0,-2,-1,0,0,-1,0
1528448173522880,-1,0,0,-1,-1,0,1,-1
1528448173531733,-1,0,0,-2,-1,0,-1,-1
1528448173531733,0,-1,-2,0,0,-1,-1,0
1528448173537750,0,-1,0,-2,-2,0,-1,-1
1528448173537750,1,-1,1,0,1,-1,1,0
1528448173553674,1,-1,0,-1,-1,-2,-1,-1
1528448173553674,0,-2,-2,0,-2,-1,-1,0
1528448173568761,0,0,0,0,-1,-1,1,-2
1528448173568761,-2,0,-1,0,0,-1,-1,0
1528448173575617,-1,0,0,-3,0,1,-2,0
1528448173575617,-1,0,0,-1,0,0,0,1
1528448173591601,0,-1,0,-1,-1,-1,1,1
1528448173591601,1,-1,-1,0,1,-2,-2,0
1528448173593569,-1,0,1,0,-1,0,1,2
1528448173593569,-1,0,0,0,-1,0,0,-3
1528448173598595,0,-1,1,-1,0,0,-1,-1
1528448173598595,1,0,-2,-2,-2,1,-1,0
1528448173614512,0,0,-2,1,0,-1,-1,0
1528448173614512,0,0,-1,-1,-1,0,0,-1
1528448173620639,0,-1,2,1,0,0,1,1
1528448173620639,-1,-1,-2,-1,-2,-1,-1,0
1528448173635924,-1,-1,-1,0,-1,0,-3,-2
1528448173635924,-2,-1,0,-1,0,-2,-1,-1
1528448173642767,0,-2,0,2,0,-2,-1,-2
1528448173642767,0,-1,-1,1,-1,-1,-2,0
1528448173652751,0,-1,0,0,-1,-1,-1,-2
1528448173652751,0,0,-1,-1,-1,-1,0,0
1528448173658757,0,0,-2,-1,-1,0,-1,0
1528448173658757,-1,0,0,0,-1,0,1,-2
1528448173674738,0,0,0,0,-1,-1,-1,-2
1528448173674738,-1,-1,1,-1,-1,-2,-2,1
1528448173680879,-1,-1,-1,-3,-2,-1,-1,-2
1528448173680879,-3,-1,1,0,-2,0,0,0
1528448173695840,0,1,0,-1,0,0,2,-1
1528448173695840,0,-1,-1,-1,-2,-2,0,0
1528448173703025,0,0,-1,-2,-2,0,-2,-1
1528448173703025,-1,-1,1,-1,0,-1,0,-2
1528448173719275,-2,0,1,0,1,0,1,0
1528448173719275,-1,0,-3,0,0,-1,-1,-1
1528448173720117,-2,1,-1,-1,-1,1,-1,0
1528448173720117,-1,-2,-1,-1,0,-2,1,-1
1528448173734246,0,-1,-1,0,-1,-1,0,-1
1528448173734246,-1,-1,-2,0,0,1,-1,0
1528448173740241,-1,-1,0,-2,-2,-1,0,0
1528448173740241,1,-1,-3,-1,0,0,-1,-1
1528448173756221,-2,-1,-2,-1,-2,-2,1,0
1528448173756221,-1,-1,0,-1,-1,-1,-2,-1
1528448173763505,0,0,0,0,0,-2,-1,1
1528448173763505,0,-1,0,-1,-2,-1,-1,-1
1528448173778525,0,0,-3,-1,1,-1,-1,-1
1528448173778525,-2,-1,-3,0,1,0,-2,-2
1528448173779521,-1,-2,-1,-1,-1,0,0,-2
1528448173779521,0,-1,0,0,-1,-1,-2,0
1528448173794649,1,-3,-1,-2,-2,-2,-1,0
1528448173794649,-1,0,0,0,-1,0,0,0
1528448173800773,0,0,-1,0,0,-1,-1,-2
1528448173800773,-1,1,1,0,1,-1,0,-1
1528448173815935,0,-1,0,-1,-1,0,-1,0
1528448173815935,0,0,1,1,-1,-1,0,1
1528448173831906,1,-1,-2,0,-1,-1,-1,-2
1528448173831906,2,0,-1,0,0,1,0,-1
1528448173838884,-1,-1,0,0,-1,1,-1,0
1528448173838884,-1,-1,-1,0,0,0,0,-2
1528448173839724,-3,0,-1,0,-1,-2,1,1
1528448173839724,-1,-2,-1,-2,0,-1,-1,0
1528448173854683,0,-1,1,-2,-1,-2,-1,-1
1528448173854683,1,-1,1,-2,-1,1,-3,1
1528448173860668,0,-2,-2,0,-1,0,1,-1
1528448173860668,-1,1,-2,-1,-1,0,-1,0
1528448173875791,-1,-2,-1,0,-2,0,2,-1
1528448173875791,-1,-1,0,-1,0,0,-1,-3
1528448173891586,-1,-1,0,-2,-1,-2,-1,-1
1528448173891586,-1,0,0,-1,0,-2,1,-1
1528448173898567,1,1,0,-1,-2,-1,-3,0
1528448173898567,0,1,-1,0,-2,-3,0,2
1528448173899577,-1,0,-1,0,0,1,-1,-2
1528448173899577,-2,0,-2,-1,-1,0,0,0
1528448173914524,1,0,0,-1,0,0,-1,-1
1528448173914524,1,-1,1,-1,-1,-2,-1,-1
1528448173920548,-1,0,0,-1,-1,0,-2,-1
1528448173920548,-1,0,0,0,0,0,-1,-2
1528448173935467,-1,1,0,0,0,0,1,0
1528448173935467,-2,-1,-2,-1,0,0,1,-3
1528448173943446,0,-1,0,-2,0,-1,0,0
1528448173943446,-1,0,-1,-1,-1,0,-2,-1
1528448173958406,-2,-2,-3,-1,1,0,-1,-1
1528448173958406,0,0,-1,1,-1,0,1,-1
1528448173959421,0,-1,-1,1,0,-1,0,1
1528448173959421,0,1,-1,-1,-1,-1,0,1
1528448173974366,-2,-1,0,-1,-1,-1,-2,-1
1528448173974366,0,-1,0,-3,0,-4,0,0
1528448173980347,-1,0,-2,-1,-2,-1,-2,-1
1528448173980347,-1,-1,-2,0,-1,0,1,-2
1528448173995307,-1,0,1,-1,0,-2,0,0
1528448173995307,0,-1,-1,-1,0,-1,-1,0
1528448174003286,0,2,0,0,0,-1,-1,0
1528448174003286,0,-1,-1,-1,0,-1,-1,1
1528448174019243,1,-1,-1,0,1,0,-2,-3
1528448174019243,-2,0,0,-1,0,1,-1,-1
1528448174019243,0,0,0,-1,1,-2,0,-1
1528448174019243,0,-2,0,1,-1,-1,-2,0
1528448174034203,-2,-1,0,-1,0,1,0,0
1528448174034203,0,-1,-1,-1,0,0,-1,0
1528448174040202,0,-2,0,-1,0,-2,-2,-1
1528448174040202,0,-2,0,-1,0,0,0,0
1528448174056145,-1,0,-1,-2,0,-1,-1,-1
1528448174056145,-2,0,0,-1,-2,0,-1,0
1528448174063126,0,-2,0,-1,-2,-1,-1,-1
1528448174063126,-1,-3,-1,0,-2,-1,-1,-2
1528448174079083,0,-1,-1,-2,-1,-1,-1,0
1528448174079083,-1,-1,-2,-1,-1,-1,-1,0
1528448174080081,-2,1,-1,0,0,-1,-1,0
1528448174080081,-2,0,0,-2,-2,0,-1,-1
1528448174101025,0,0,0,-2,-1,-1,-1,-1
1528448174101025,0,-1,-1,1,-2,-1,-1,0
1528448174102022,0,0,-1,-1,-1,0,0,0
1528448174102022,-1,0,0,0,0,0,-1,-2
1528448174123969,-1,-1,-1,1,-1,-1,-1,1
1528448174123969,0,-1,-1,-1,0,-2,-2,0
1528448174124961,-1,0,1,-2,-1,-1,-1,-2
1528448174124961,-1,1,-1,-1,0,1,0,1
1528448174147899,-1,0,-1,-1,-1,0,-1,-4
1528448174147899,-1,-2,-2,0,-2,0,0,-1
1528448174148897,0,0,-1,-1,-1,0,1,1
1528448174148897,-1,-2,-1,-1,-1,-1,1,0
1528448174154881,-1,0,0,0,-1,-3,1,0
1528448174154881,0,-1,-1,-1,-1,0,0,0
1528448174160865,0,-1,-2,-2,-2,-1,-2,-1
1528448174160865,0,0,1,1,0,-1,0,-2
1528448174175825,0,0,-1,-2,-1,-1,-2,-1
1528448174175825,-1,-1,0,-2,-2,0,2,-3
1528448174182824,-1,-1,1,0,1,0,-2,-2
1528448174182824,-1,-1,-2,-1,-1,0,0,1
1528448174198764,-1,0,0,0,0,0,-1,0
1528448174198764,-1,-2,0,0,1,-2,-1,1
1528448174199798,-1,0,-1,-1,0,-1,2,-1
1528448174199798,0,0,-2,-1,0,-3,-2,-3
1528448174214722,-1,0,0,-1,-1,-1,-2,1
1528448174214722,-2,0,0,-1,0,-1,-3,-1
1528448174220852,-2,-2,0,0,-2,0,1,1
1528448174220852,0,-1,1,-3,0,1,0,-1
1528448174235723,-1,0,0,0,-1,-1,-1,1
1528448174235723,0,-1,0,-2,1,-2,0,2
1528448174243736,0,-2,-1,1,0,0,-2,-4
1528448174243736,0,0,0,-1,-1,-1,-1,0
1528448174258762,-2,-1,-1,0,1,-1,0,-1
1528448174258762,-2,-1,0,-2,-1,-2,-1,-1
1528448174259602,-2,0,-3,-3,-1,-1,-1,0
1528448174259602,-1,-1,0,-1,0,-1,-1,-1
1528448174274562,0,0,-2,-2,-1,0,0,0
1528448174274562,1,0,-1,-2,0,-1,-3,0
1528448174280702,0,0,0,1,0,-1,-1,1
1528448174280702,-1,0,-1,0,-2,-2,0,-1
1528448174295988,0,0,1,0,0,0,2,0
1528448174295988,1,-1,-2,1,0,0,1,0
1528448174302974,1,-1,0,-2,-1,-2,0,1
1528448174302974,-2,-1,-1,-1,-1,0,-1,0
1528448174318790,0,-1,-1,-2,-1,1,0,-1
1528448174318790,-1,1,-1,-1,1,0,0,-2
1528448174334954,0,0,-1,-1,0,-2,-1,0
1528448174334954,-1,-1,0,-2,0,-2,0,1
1528448174335955,-1,-1,0,-1,0,-1,0,3
1528448174335955,0,0,0,0,1,0,-4,-5
1528448174340949,0,0,0,1,0,0,-2,1
1528448174340949,-1,1,1,0,-2,-2,-1,-2
1528448174356037,0,-2,0,-1,-2,-1,-1,-1
1528448174356037,-1,-1,-1,1,-3,0,0,0
1528448174363038,-2,-1,0,0,-1,-2,1,-1
1528448174363038,1,0,-1,0,-1,1,-1,1
1528448174377836,-1,-2,-1,0,-1,0,-1,-2
1528448174377836,-1,0,0,0,0,0,-1,0
1528448174385823,0,0,-1,-1,-1,-1,-2,-1
1528448174385823,0,-1,-2,1,0,0,1,-2
1528448174402975,0,-2,-1,-1,-2,-1,-6,-1
1528448174402975,0,-1,0,-1,-1,0,-1,0
1528448174403972,-2,-1,-2,1,0,-1,-1,-1
1528448174403972,0,-2,-1,-2,0,-2,-1,0
1528448174424967,0,0,-2,-1,-1,-1,2,0
1528448174424967,-1,1,0,-1,-1,-1,0,0
1528448174425913,-1,-3,1,0,-2,0,-2,-2
1528448174425913,-1,-1,-1,-1,0,0,0,-2
1528448174438243,0,0,0,1,0,-1,0,0
1528448174438243,0,1,-2,-1,0,-1,1,1
1528448174446180,1,-1,-1,0,0,0,1,0
1528448174446180,-1,0,-2,1,0,2,-2,0
1528448174455224,-1,-1,0,-1,-2,-1,1,1
1528448174455224,0,0,-1,0,0,-2,0,-1
1528448174461209,0,1,-2,-1,0,0,-1,1
1528448174461209,-1,0,-1,-1,-1,-2,-1,-1
1528448174476180,0,0,0,-2,-1,0,-1,-1
1528448174476180,-1,-2,-1,0,0,1,0,0
1528448174483307,0,-2,1,0,0,-2,-1,-1
1528448174483307,0,-1,-1,0,-2,-2,0,0
1528448174498758,-1,-1,0,0,0,-2,1,-1
1528448174498758,0,-1,-2,0,-2,-1,-2,-1
1528448174506130,0,0,1,-1,-1,1,-1,0
1528448174506130,0,-1,0,1,-2,-1,-1,-1
1528448174521295,-1,1,0,0,-1,0,-2,-1
1528448174521295,0,-3,-1,-1,1,-1,1,0
1528448174522132,0,-1,-2,-2,-1,-1,-2,-1
1528448174522132,0,0,-1,-2,-2,1,-1,-2
1528448174536222,0,0,-2,-1,-1,-1,1,-2
1528448174536222,-1,-1,0,-1,-1,-1,-2,0
1528448174543233,-1,0,-3,0,0,-2,-1,-1
1528448174543233,1,-1,1,-1,0,1,1,1
1528448174558445,0,-1,1,1,-1,-1,-3,-5
1528448174558445,-1,1,0,-1,-2,-1,-1,0
1528448174565588,-1,0,-2,-1,-2,-1,1,-1
1528448174565588,-1,-2,-2,1,0,1,-2,0
1528448174581773,0,-1,-1,-2,1,1,0,2
1528448174581773,-2,-2,-1,1,0,1,-1,-3
1528448174581773,-2,0,-2,-2,0,1,0,-2
1528448174581773,0,1,1,-1,2,-1,0,0
1528448174595877,-1,-1,-2,0,0,-1,0,-1
1528448174595877,0,0,1,0,-1,-1,0,-2
1528448174611929,-1,-1,1,0,-2,1,0,-1
1528448174611929,0,-1,0,-1,0,0,1,-2
1528448174618650,-2,-1,-2,-1,-1,0,-2,0
1528448174618650,-1,-1,0,-3,0,-2,1,0
1528448174626863,0,-1,1,0,-1,0,-2,-1
1528448174626863,0,0,-2,-2,1,0,0,-2
1528448174641450,-1,-2,1,0,-1,-3,-1,2
1528448174641450,0,-2,-1,0,0,0,-1,0
1528448174642602,-1,-1,1,1,-1,-1,0,1
1528448174642602,-1,0,-2,0,-2,-1,-2,1
1528448174656765,0,1,-1,-2,0,0,-2,-1
1528448174656765,-1,1,-2,0,-2,1,-2,0
1528448174662915,0,-1,-1,-1,0,-3,0,-1
1528448174662915,0,-2,-2,0,-1,-1,-1,-1
1528448174678033,-1,-1,-1,-1,-1,-2,0,-1
1528448174678033,0,-1,1,-1,-1,0,-1,-1
1528448174686012,0,-2,1,-1,0,2,-3,-1
1528448174686012,-1,0,-1,-1,0,-2,-1,0
1528448174702810,-1,-1,0,-1,0,0,0,-1
1528448174702810,0,0,-1,-1,-1,-2,-1,-1
1528448174703808,-1,1,-1,0,-1,-1,-1,1
1528448174703808,-1,-1,1,-3,-2,-1,-1,-2
1528448174715933,0,-1,0,1,0,1,-1,0
1528448174715933,-1,0,0,0,-1,-1,-1,0
1528448174722760,-1,0,-2,-1,0,-2,0,-1
1528448174722760,0,-2,-1,0,-1,0,-2,0
1528448174738081,0,1,-2,-1,-1,-1,-1,0
1528448174738081,-1,-1,-2,-1,-1,0,0,-1
1528448174746056,-2,0,-1,-1,-3,-1,0,-1
1528448174746056,-1,-1,1,0,-1,-1,0,1
1528448174761345,-2,-1,0,-1,-2,-2,1,0
1528448174761345,-1,0,-2,-1,-1,0,-2,-1
1528448174762195,2,-1,-1,-1,-2,0,1,-1
1528448174762195,-1,0,-1,-1,0,-1,-2,2
1528448174776248,-1,-1,0,-1,-2,-1,2,-1
1528448174776248,0,-1,-1,1,-2,-2,2,-1
1528448174783286,-1,0,-1,-1,-1,0,0,-2
1528448174783286,-3,-1,-2,0,0,0,-2,-1
1528448174798290,-1,1,-3,0,-1,0,-2,-1
1528448174798290,-1,0,-1,-1,-1,-1,-1,-1
1528448174805435,-2,-1,0,0,0,-2,-1,-1
1528448174805435,0,-1,-1,0,0,0,1,-1
1528448174821286,-1,-1,-1,1,0,-1,-3,1
1528448174821286,-1,-2,-1,0,0,0,-1,-1
1528448174822229,1,-1,-3,-1,0,0,1,0
1528448174822229,0,0,1,0,-1,0,-1,0
1528448174835248,0,-3,0,0,-1,-1,1,0
1528448174835248,0,0,1,-2,-1,-1,-2,0
1528448174851316,0,-2,-1,0,0,-2,1,1
1528448174851316,-2,-2,-1,-1,-1,1,-1,-2
1528448174858133,0,0,-1,-1,-1,0,-1,-3
1528448174858133,0,0,-1,0,1,-1,0,1
1528448174866223,-2,-1,0,0,0,-2,-1,-3
1528448174866223,-1,1,-1,-2,-1,-1,-2,0
1528448174881233,-2,0,-2,-1,-1,-1,-1,0
1528448174881233,-1,-1,-1,-1,1,-2,-1,-1
1528448174882069,1,0,0,0,-2,1,0,-1
1528448174882069,-1,-1,-1,-1,-1,-1,1,-1
1528448174896187,-1,-1,-1,-1,1,1,0,-1
1528448174896187,0,-1,-1,-2,-1,-1,0,-1
1528448174903372,0,-1,1,0,0,1,0,-1
1528448174903372,0,0,-1,0,0,-1,0,0
1528448174926725,-1,0,-1,-2,-1,0,-1,-1
1528448174926725,-2,-1,0,0,-1,-1,-1,0
1528448174927693,-1,-3,-1,-2,0,-1,-2,-2
1528448174927693,-1,-1,0,-1,-3,-1,-2,-2
1528448174941862,0,-1,-1,-1,1,-2,-2,-1
1528448174941862,-2,-1,-2,-1,0,1,-1,-1
1528448174942759,0,1,-1,-1,-1,0,-1,0
1528448174942759,-1,-1,0,0,0,-2,0,0
1528448174955823,-1,0,2,0,0,0,0,-1
1528448174955823,-1,-2,-1,-1,-1,-1,1,0
1528448174963717,-1,1,-1,0,0,0,-2,0
1528448174963717,0,0,0,-2,-1,0,0,-1
1528448174979619,-1,-1,0,-1,0,-1,0,-1
1528448174979619,1,-2,0,0,1,1,0,-1
1528448174985765,-1,0,-1,-1,-2,-1,0,-1
1528448174985765,-2,-2,-1,-2,0,-1,-1,-3
1528448175001787,0,0,-1,-2,-1,0,-1,-2
1528448175001787,-2,0,0,-1,1,-1,-2,1
1528448175001787,-2,-1,-2,1,-1,-2,0,0
1528448175001787,-2,-1,-3,0,0,-1,0,0
1528448175015755,-1,0,-1,-1,-1,1,2,-2
1528448175015755,0,-1,-1,-1,-1,0,0,-1
1528448175022849,1,-1,0,-4,-2,-1,1,1
1528448175022849,0,-1,-2,-1,0,-1,-1,-1
1528448175037867,-1,-2,0,0,0,-1,-1,-2
1528448175037867,0,-1,0,2,0,0,-1,-1
1528448175046011,-3,-1,0,1,0,-1,-2,-1
1528448175046011,-1,0,-1,-1,-2,0,-1,-2
1528448175061898,0,-2,-1,-1,-1,-1,0,0
1528448175061898,1,-1,0,-1,-3,-2,-1,-2
1528448175061898,-1,-1,0,-2,-1,0,0,-1
1528448175061898,-2,0,-1,-1,-2,-1,1,0
1528448175076221,0,0,-2,1,-2,0,-1,0
1528448175076221,-1,2,-2,-1,0,2,1,0
1528448175091588,-1,-2,1,0,-1,0,-2,-1
1528448175091588,0,-2,0,0,0,-1,-1,-1
1528448175098693,0,-1,-2,0,0,-2,-2,-1
1528448175098693,0,-2,-3,0,-3,0,-1,-2
1528448175105755,0,-1,0,0,-1,-1,-1,-1
1528448175105755,-1,0,0,1,0,1,-1,-1
1528448175121897,-2,-3,-1,-2,-1,-1,1,0
1528448175121897,-2,-1,-1,0,0,0,-1,0
1528448175121897,0,1,-2,-1,1,-2,0,-1
1528448175121897,1,0,0,-1,-1,-1,0,0
1528448175135894,0,1,0,-1,-1,-1,-1,-1
1528448175135894,-2,0,0,-1,-1,-2,1,-1
1528448175143777,-2,0,-2,2,0,1,0,-2
1528448175143777,0,-1,-1,0,1,-2,-2,-2
1528448175160773,-1,0,-2,-1,0,-2,-2,0
1528448175160773,-2,0,0,-1,0,-2,0,-1
1528448175165877,-1,-1,0,-2,-2,-2,0,0
1528448175165877,-1,-1,-1,0,-1,0,-1,0
1528448175181061,0,0,-3,-1,-2,-1,1,0
