timestamp,emg1,emg2,emg3,emg4,emg5,emg6,emg7,emg8
1528451765604795,1,0,-2,1,-1,1,-2,-2
1528451765604795,0,1,1,-2,2,-2,-1,0
1528451765612810,-2,-1,1,0,-2,0,-1,0
1528451765612810,0,0,0,-2,-1,0,-2,-1
1528451765627734,-2,0,-1,-2,-1,-1,-1,1
1528451765627734,-1,0,-2,-1,-3,-1,-1,-1
1528451765634742,0,0,-1,-1,2,-2,0,-1
1528451765634742,0,-2,1,10,3,0,1,-2
1528451765643693,0,0,1,0,0,-1,-1,3
1528451765643693,-1,0,-1,-3,-2,1,-2,-7
1528451765657653,-1,-1,-1,-3,-3,1,-1,-1
1528451765657653,-2,-1,-3,-2,-2,1,-1,-1
1528451765664635,-2,0,-1,-1,-1,-2,-1,1
1528451765664635,-1,0,-1,0,-2,1,-1,1
1528451765672613,0,1,-2,0,0,0,-2,-1
1528451765672613,-1,0,-1,-3,-1,-1,-1,0
1528451765687601,1,-2,-1,-2,1,0,1,-2
1528451765687601,0,-1,-1,-1,-1,0,-1,1
1528451765694589,-1,-1,-1,7,0,-2,-1,-2
1528451765694589,0,-1,-1,-1,1,0,-2,1
1528451765703532,-1,1,0,-2,-2,0,-2,-1
1528451765703532,-1,-2,-1,-4,1,-2,2,1
1528451765717496,0,0,-2,-5,-1,-2,-2,1
1528451765717496,1,0,1,6,1,-1,-1,-2
1528451765726472,-1,-2,-3,-2,-2,1,-2,-2
1528451765726472,1,-2,-1,2,0,3,0,-1
1528451765732472,0,0,1,-3,-2,-7,-2,1
1528451765732472,-1,-2,-2,-2,-3,0,-1,0
1528451765755399,0,0,-1,-1,1,-1,1,-3
1528451765755399,-2,-1,0,0,0,-1,-1,6
1528451765756392,-1,-1,0,1,-1,2,-1,-1
1528451765756392,0,1,-2,-5,-2,-2,-1,0
1528451765764371,-1,0,-1,3,2,-2,-1,0
1528451765764371,0,-1,-1,-3,-2,-1,-1,-1
1528451765778358,1,0,-2,4,2,0,1,0
1528451765778358,-1,2,-1,-1,-1,-2,0,-3
1528451765793292,0,-1,0,1,-2,1,-3,0
1528451765793292,-3,1,-1,0,0,-2,-1,-1
1528451765794291,0,-1,-1,-2,-2,-1,0,0
1528451765794291,-1,-2,0,-1,0,0,-1,-2
1528451765807256,-1,-1,0,-4,-1,-1,0,-1
1528451765807256,0,-1,-1,0,-1,-1,0,-1
1528451765815235,0,-1,-1,-2,-1,-1,-1,-2
1528451765815235,0,0,-3,-11,-2,-1,0,2
1528451765824210,0,0,3,17,1,-1,0,-2
1528451765824210,0,2,0,1,1,-1,-1,-1
1528451765838172,-1,0,-1,-6,-1,2,1,1
1528451765838172,0,1,-1,2,0,-1,-2,-2
1528451765845152,-2,-2,-1,-8,-1,-1,0,0
1528451765845152,0,0,-1,1,-1,-1,-1,-2
1528451765852162,-1,0,-1,0,0,0,-1,-1
1528451765852162,0,-1,1,-2,0,-1,-1,-2
1528451765867122,0,-1,-2,-1,-1,0,1,-1
1528451765867122,-2,-3,0,-1,-1,-1,-2,1
1528451765875100,-2,-1,1,-2,0,0,0,2
1528451765875100,-1,-3,-1,2,0,1,0,-7
1528451765884060,-1,-1,0,6,2,-1,0,0
1528451765884060,0,0,-3,-2,0,-1,-3,-2
1528451765898038,1,-1,-1,-2,-1,1,-1,0
1528451765898038,-2,-1,-1,0,-2,-1,0,2
1528451765904993,1,2,0,-5,-3,-2,-1,1
1528451765904993,0,-1,-1,-3,1,0,-1,-2
1528451765912974,0,-1,-1,-6,-3,-1,0,-2
1528451765912974,0,0,0,8,0,-1,0,2
1528451765927931,-1,-2,1,-3,1,0,-1,-2
1528451765927931,0,-1,0,5,-1,0,0,-1
1528451765934949,1,-1,-1,3,1,-1,0,-1
1528451765934949,-1,-2,-2,-9,-3,-3,0,3
1528451765943889,-2,1,-1,-2,-1,-2,-3,-8
1528451765943889,0,-3,0,-2,-1,0,0,-1
1528451765957851,-1,-1,1,1,0,0,-2,0
1528451765957851,1,0,-2,-2,0,1,2,2
1528451765964836,1,-2,-1,-5,0,-1,3,4
1528451765964836,0,-1,-1,0,0,-2,-5,-6
1528451765972813,-3,0,-1,1,-1,-1,-3,-2
1528451765972813,-1,0,0,3,1,0,-4,-4
1528451765987806,0,-1,-1,2,0,1,0,2
1528451765987806,-1,1,-1,-3,-1,0,3,2
1528451765994755,1,-1,-1,3,0,-1,0,2
1528451765994755,-1,0,0,-3,-1,-1,-1,-1
1528451766003729,0,0,-1,-5,-2,-1,-1,0
1528451766003729,-1,-1,-1,-2,-2,0,-1,1
1528451766017693,-1,-1,1,7,2,0,-2,-2
1528451766017693,-1,-1,-2,-4,-1,-2,1,0
1528451766024674,-1,0,0,0,0,0,-2,-2
1528451766024674,-1,0,-2,-1,0,-1,0,-1
1528451766032690,0,0,-1,-4,-1,0,0,1
1528451766032690,-1,-1,-3,3,1,-1,-1,-2
1528451766047612,-1,0,-1,1,-2,0,-3,1
1528451766047612,0,1,-1,-10,-2,1,1,0
1528451766054594,-1,-1,0,12,0,1,-1,-6
1528451766054594,-1,-2,1,5,0,-1,0,1
1528451766063570,0,0,0,2,1,1,-2,-1
1528451766063570,0,0,-2,-3,0,-1,0,-1
1528451766077537,-1,0,-1,-8,-3,-2,0,0
1528451766077537,2,-1,0,-7,-2,0,-2,-1
1528451766086508,-1,0,2,5,1,-2,2,2
1528451766086508,0,1,2,9,0,-1,0,-1
1528451766100471,0,0,-3,-4,-1,-1,-3,-2
1528451766100471,0,1,-1,0,0,-1,0,-1
1528451766107451,1,-2,-2,-7,-1,0,0,-1
1528451766107451,-1,1,0,2,-1,-1,0,-1
1528451766115470,0,-1,0,1,-1,0,0,0
1528451766115470,-2,-2,-3,-5,-1,1,-3,-2
1528451766124630,1,-1,-2,2,-1,-1,0,1
1528451766124630,0,-3,-1,0,0,-1,0,-8
1528451766137386,-1,-1,0,2,0,-1,-1,-1
1528451766137386,0,-1,2,-2,-1,-1,-1,2
1528451766146348,-1,0,-2,-7,-3,0,2,1
1528451766146348,1,-1,2,15,1,0,-1,1
1528451766160323,1,1,-4,-9,-2,-2,-4,-9
1528451766160323,1,0,2,4,2,0,-1,-1
1528451766167292,-1,0,0,-1,0,0,-2,-2
1528451766167292,0,-1,-1,-10,-3,-1,0,3
1528451766175496,-1,-1,1,3,1,-1,2,1
1528451766175496,0,0,-2,-3,-3,-1,-1,0
1528451766184247,0,0,0,-1,0,-1,-3,-3
1528451766184247,-2,-1,-1,-4,-1,-3,0,2
1528451766197214,0,0,0,1,1,0,1,1
1528451766197214,-2,-1,-2,-1,0,0,-1,-1
1528451766206188,-1,0,-1,1,0,-2,-1,0
1528451766206188,2,-1,-2,-1,1,0,-1,-2
1528451766221148,-1,-2,-2,-4,0,-1,-1,2
1528451766221148,-1,1,1,3,0,-1,0,4
1528451766227132,0,0,-1,0,-1,1,-1,-2
1528451766227132,-2,2,1,1,0,-1,-1,-1
1528451766235142,-2,-3,0,-4,-1,-1,1,2
1528451766235142,0,-1,-1,4,0,0,-1,0
1528451766244086,-1,-1,-1,0,-2,-1,-3,-2
1528451766244086,0,0,0,-1,-1,1,0,-1
1528451766258096,0,0,-1,-3,-3,1,-1,2
1528451766258096,0,-2,0,-1,-1,-1,-1,-2
1528451766265030,1,-1,0,1,0,-1,-1,1
1528451766265030,-3,0,-2,-2,0,-1,-2,-2
1528451766281307,0,-1,-2,1,1,0,0,0
1528451766281307,-1,1,1,-2,-2,0,0,-1
1528451766287990,0,-1,-1,4,1,0,-1,-2
1528451766287990,-1,-2,0,-1,0,-1,-2,1
1528451766304233,-3,1,0,-2,0,-1,0,-2
1528451766304233,0,0,-2,-4,-1,1,-2,-2
1528451766306139,0,-1,-1,-2,0,0,0,0
1528451766306139,1,0,2,8,2,1,0,0
1528451766318481,-1,-1,1,0,-1,0,0,0
1528451766318481,-1,1,-3,-1,0,-1,0,0
1528451766325529,0,-1,1,-6,-1,1,-2,-3
1528451766325529,0,0,-1,-2,-3,-1,-1,-1
1528451766341519,1,1,-2,-12,-1,-2,1,2
1528451766341519,-2,0,3,20,3,1,-1,-7
1528451766356463,-1,-2,-1,-4,0,0,-1,0
1528451766356463,0,1,0,6,0,0,-1,0
1528451766356463,0,-1,-1,-2,-1,-1,0,0
1528451766356463,0,-1,-2,-8,-1,-2,0,0
1528451766364296,-2,0,-1,-1,0,-1,1,0
1528451766364296,0,-2,-1,-2,-1,-2,-2,-1
1528451766378469,0,-1,-1,3,-2,0,-1,-1
1528451766378469,-1,0,-1,-5,-1,-2,1,1
1528451766385058,0,-2,1,6,0,0,1,-1
1528451766385058,-1,-2,-3,-7,-2,-2,0,1
1528451766401183,-1,2,1,7,2,1,-1,-2
1528451766401183,-1,1,-1,-3,-1,0,0,1
1528451766408226,0,0,-2,-4,-3,-1,0,0
1528451766408226,-1,-1,-2,-2,-1,0,1,-1
1528451766415555,0,0,0,0,-1,-2,0,-1
1528451766415555,-2,-1,-2,2,1,-1,-1,-1
1528451766430244,1,0,0,-2,-1,-1,-2,0
1528451766430244,-2,0,-1,0,0,1,2,-2
1528451766438474,0,0,-2,-2,-2,-1,-1,-1
1528451766438474,0,-2,-1,-2,-1,0,0,1
1528451766445216,0,-1,-1,1,0,-2,-3,-1
1528451766445216,0,2,1,-2,-1,-1,-1,-2
1528451766460163,0,-1,-1,0,0,1,-1,0
1528451766460163,-2,-1,-1,-3,-1,-1,1,1
1528451766467145,1,0,0,2,-1,-1,1,0
1528451766467145,0,-1,-1,0,0,0,0,-1
1528451766483103,-1,0,-2,-1,-2,-2,0,-1
1528451766483103,0,-1,-1,-2,-2,-1,-1,-2
1528451766490083,-1,-1,-1,3,1,-2,-1,-1
1528451766490083,0,0,-2,-2,0,-2,-2,-1
1528451766497064,-3,-2,-1,2,0,-2,-1,4
1528451766497064,0,-1,-1,-3,-2,0,-2,-1
1528451766506351,1,-1,-1,-3,-1,2,-1,-1
1528451766506351,0,-1,-1,-2,-1,1,-1,-1
1528451766521240,-1,0,0,-3,-2,-1,-1,0
1528451766521240,-1,-2,1,6,3,-2,-1,0
1528451766528117,-1,-1,-2,-1,0,-1,1,-1
1528451766528117,0,-1,1,-2,-2,0,-1,1
1528451766543223,-1,-1,0,-1,-1,1,1,-3
1528451766543223,0,-1,-1,-5,-1,-1,0,-1
1528451766550301,-1,0,0,5,1,0,0,-2
1528451766550301,-1,-1,-1,-1,1,-2,-1,-1
1528451766557646,0,-1,-1,-3,0,0,0,-3
1528451766557646,-2,0,0,-3,0,0,-2,-3
1528451766566629,-1,0,-1,-3,-1,-2,-1,0
1528451766566629,-1,0,-1,1,0,-1,0,-2
1528451766580588,-1,-1,0,2,0,0,-1,-1
1528451766580588,1,-1,-2,-1,0,0,-2,1
1528451766587570,-2,-2,-2,-5,-2,-1,0,0
1528451766587570,-1,-1,-1,-6,-2,-1,-2,-1
1528451766603845,0,-1,1,7,2,0,-1,-2
1528451766603845,0,0,-1,0,0,-1,-1,-1
1528451766609918,-1,-2,-2,-2,-2,-2,-3,-1
1528451766609918,0,0,0,-3,-1,-1,-2,1
1528451766626066,-1,-1,-2,-4,0,-1,-1,-1
1528451766626066,0,1,-1,0,-2,-1,0,1
1528451766634040,-2,1,-1,-1,0,0,-1,0
1528451766634040,1,-1,1,2,-1,1,0,1
1528451766641187,-1,-1,0,-1,1,-1,-1,-2
1528451766641187,-1,0,0,3,-1,1,0,-4
1528451766648252,0,-1,-1,-1,1,0,0,0
1528451766648252,0,-1,-3,1,-2,-2,-2,-1
1528451766663242,0,0,-2,0,-1,-1,-1,-1
1528451766663242,0,0,-1,-5,-2,-3,0,0
1528451766670432,-1,-2,1,6,1,0,-2,-1
1528451766670432,-2,-1,-3,0,0,0,-1,-1
1528451766686143,-1,-2,-1,-2,-1,-1,0,-1
1528451766686143,-2,-2,-1,-1,-1,0,-2,-1
1528451766688138,1,-1,-2,-3,-1,-1,0,0
1528451766688138,-2,-1,0,2,0,-1,-2,-7
1528451766701357,0,-1,-1,-1,-2,0,-1,1
1528451766701357,0,1,0,1,0,0,0,0
1528451766707393,-2,-1,0,-2,-2,-2,0,-2
1528451766707393,0,0,1,-2,-1,-2,-1,1
1528451766723682,1,-1,-1,-2,-1,0,-1,0
1528451766723682,-1,-2,0,3,2,1,-1,-3
1528451766730597,1,0,0,-1,-1,0,-1,0
1528451766730597,0,-1,-1,3,0,0,0,1
1528451766746763,1,-1,-1,-1,-1,-2,-1,-2
1528451766746763,-1,-1,1,-3,-9,-2,0,4
1528451766748550,-2,-1,0,1,3,0,-2,-12
1528451766748550,-3,-2,-3,-2,-2,-1,1,-1
1528451766760503,-1,-1,0,2,4,0,0,-1
1528451766760503,-1,-1,-1,-2,-14,-4,0,-1
1528451766767508,0,0,-1,-4,14,0,0,4
1528451766767508,0,-2,0,-2,-3,0,0,0
1528451766783480,0,1,0,0,-3,5,0,-2
1528451766783480,-2,-1,-1,0,-1,-18,-3,-3
1528451766790408,-1,0,0,-2,-5,-1,0,1
1528451766790408,0,1,-1,0,3,0,1,1
1528451766806365,0,-3,0,-1,1,3,2,1
1528451766806365,1,1,0,0,3,6,0,0
1528451766808371,-1,-1,-1,1,-4,-1,-1,2
1528451766808371,0,-3,0,-1,1,-2,-1,0
1528451766820327,-1,1,-1,-2,-3,-3,-2,0
1528451766820327,0,-1,-2,-1,4,4,1,-1
1528451766827361,-1,0,-1,-1,-5,-2,-1,1
1528451766827361,-1,0,-2,-3,-2,0,0,0
1528451766843268,-1,0,2,4,1,-3,1,-2
1528451766843268,2,0,-3,1,3,1,0,1
1528451766850297,0,0,-1,-2,-3,1,1,6
1528451766850297,1,0,-1,0,0,-2,-1,-5
1528451766867254,0,-1,-2,-2,-1,-3,-2,-2
1528451766867254,-1,-2,0,0,0,2,-1,-1
1528451766868254,-1,-1,-1,0,-4,-1,0,1
1528451766868254,-2,0,-2,-2,-1,-3,0,0
1528451766881177,-1,-2,-2,-2,0,0,0,0
1528451766881177,-1,-2,-1,0,1,1,-1,0
1528451766887204,0,0,-3,-2,-1,-1,-1,-1
1528451766887204,-1,1,-1,-1,0,-1,-1,-1
1528451766903160,-1,0,-2,-2,-2,1,-2,-1
1528451766903160,0,-2,-1,-3,0,1,0,0
1528451766910088,0,0,1,1,-1,-1,-2,-3
1528451766910088,-1,0,-1,0,0,-1,-2,0
1528451766926045,-2,-1,-1,0,-2,-2,0,2
1528451766926045,1,-2,-1,2,0,-1,0,-1
1528451766928051,0,-1,-2,-2,-2,-2,-1,-3
1528451766928051,0,-1,0,0,-2,1,0,1
1528451766941059,0,-1,0,-2,-2,-1,-1,-1
1528451766941059,-1,-1,-1,-1,0,1,-2,0
1528451766947043,0,-2,0,0,-2,0,0,-2
1528451766947043,-1,-2,-1,-2,0,-1,-1,-2
1528451766962994,1,0,0,-1,-1,-2,-1,-1
1528451766962994,0,1,-1,-1,-1,0,-1,-1
1528451766969970,0,-1,0,0,-1,0,1,-1
1528451766969970,-1,-1,-2,0,0,0,0,1
1528451766985939,-2,-2,-2,-1,0,-2,1,-1
1528451766985939,0,-1,-1,0,0,0,-1,-1
1528451766987885,-1,-1,-1,-2,0,0,-1,0
1528451766987885,0,-2,-2,-1,-3,-1,-1,1
1528451767000899,0,0,0,1,-1,-1,0,0
1528451767000899,-1,1,0,-1,-1,1,0,-1
1528451767007881,-1,-1,-1,0,-2,-3,-1,-1
1528451767007881,-1,-2,1,0,0,0,1,-2
1528451767022843,0,-1,-1,0,0,0,-1,-1
1528451767022843,0,0,-2,-1,-1,-3,0,-1
1528451767029826,-1,0,-1,-1,-2,0,0,-2
1528451767029826,-2,1,0,0,-1,0,-1,-1
1528451767046802,0,-1,-1,-2,-1,0,-1,1
1528451767046802,0,-1,0,-1,-1,0,-1,-2
1528451767047720,-1,-3,-2,1,0,-2,-3,1
1528451767047720,-1,0,0,-1,0,1,-1,-1
1528451767059706,-1,-2,-1,-2,-1,-1,-2,-2
1528451767059706,0,-1,-2,-1,-1,1,0,-1
1528451767068899,1,-1,-1,-2,-1,0,-2,-1
1528451767068899,0,-2,-1,0,0,1,0,-2
1528451767083639,-1,1,0,1,-1,-3,-1,-1
1528451767083639,0,-2,-1,0,2,-1,-1,1
1528451767090619,-1,-1,0,1,-1,1,0,-1
1528451767090619,2,0,0,0,-1,-4,-1,-2
1528451767106577,-2,0,-1,0,0,0,0,0
1528451767106577,-2,1,0,1,-12,-1,-2,0
1528451767107574,-1,-1,-1,-1,1,0,1,0
1528451767107574,0,-1,-2,-1,1,1,-1,0
1528451767120647,0,-2,-2,1,-2,-1,0,-1
1528451767120647,-2,-1,-1,1,1,2,-1,0
1528451767128912,0,0,-2,-2,-3,0,0,-2
1528451767128912,-2,-1,0,-2,-2,0,1,-2
1528451767143588,-1,-1,-2,0,2,0,-1,0
1528451767143588,0,-1,0,-1,0,-2,0,-1
1528451767149835,0,1,0,0,-1,0,-1,-2
