timestamp,emg1,emg2,emg3,emg4,emg5,emg6,emg7,emg8
1528453213515933,1,-3,-3,0,0,-2,-1,-2
1528453213515933,0,0,0,-1,-1,0,-1,-2
1528453213517927,-1,1,-1,0,0,0,-2,0
1528453213517927,-2,-2,0,-1,1,-1,1,0
1528453213519921,-3,0,1,-1,0,-1,-2,1
1528453213519921,1,-1,0,0,0,-1,0,0
1528453213529894,0,-2,-1,0,-1,0,2,0
1528453213529894,-2,-1,-1,-1,-2,-3,0,0
1528453213533885,1,-1,1,0,0,0,0,0
1528453213533885,-2,0,-2,-1,0,0,-2,-1
1528453213535879,-1,-1,-1,-1,-1,0,-3,-3
1528453213535879,0,0,-1,1,-3,0,-1,-1
1528453213536878,-2,-1,0,-1,-1,0,-1,-2
1528453213536878,-2,-1,-1,-1,-1,-1,-1,0
1528453213551836,-1,-1,-1,0,0,-1,-1,1
1528453213551836,-1,0,0,0,-1,1,-1,-3
1528453213559815,0,-1,0,-1,0,-2,-1,0
1528453213559815,-1,-2,1,0,-1,0,1,-2
1528453213572782,-1,-1,-1,0,0,0,-1,1
1528453213572782,0,0,-1,-1,0,-1,0,0
1528453213588739,0,-1,-3,-3,-2,0,-1,-3
1528453213588739,-1,-1,-2,0,0,-1,0,-1
1528453213590733,1,0,0,0,-1,-1,-1,-1
1528453213590733,-1,-2,-1,-1,-1,0,-2,-2
1528453213597714,0,-2,-1,-1,1,-1,0,0
1528453213597714,0,-3,-1,-1,-1,0,0,0
1528453213612675,0,0,-1,-1,-3,-1,-2,0
1528453213612675,0,0,0,-2,-1,-1,0,2
1528453213641597,0,-1,0,-1,-1,0,1,0
1528453213641597,-1,-1,-1,-1,-1,1,1,0
1528453213665532,-1,-3,-1,-3,-1,-2,-1,0
1528453213665532,1,1,-1,0,-1,-1,0,-1
1528453213665532,0,0,0,0,-1,-2,-2,-1
1528453213665532,-1,-1,-3,-1,0,-1,-1,-1
1528453213668527,2,-1,-1,-1,-1,-1,0,1
1528453213668527,-1,-2,-1,-1,-3,-2,0,-1
1528453213671517,-1,-1,-1,-1,-1,-1,0,-1
1528453213671517,0,0,0,0,0,-1,0,-1
1528453213672514,-1,1,0,-1,-1,0,-1,-2
1528453213672514,-2,0,-1,0,0,-2,-1,-1
1528453213677501,-1,0,-2,0,-1,-1,-2,-1
1528453213677501,-1,0,2,-1,-2,-1,-2,0
1528453213692463,0,0,-2,1,-2,-1,0,-2
1528453213692463,-2,-2,-1,-1,0,0,-2,-1
1528453213699443,0,0,-1,-1,-1,-1,0,1
1528453213699443,0,0,-1,-1,-1,0,1,-1
1528453213717394,-1,-1,0,0,0,0,-1,-2
1528453213717394,0,1,-1,-1,0,-2,-1,-2
1528453213731358,-1,0,0,-1,0,-1,-2,-1
1528453213731358,1,-1,-3,-1,0,1,-1,-2
1528453213733352,-2,-1,-2,-2,0,0,-1,0
1528453213733352,0,-1,0,-1,-1,2,0,-1
1528453213737341,0,-1,-1,-2,0,0,0,-1
1528453213737341,0,-1,-2,-2,-1,-1,-1,-2
1528453213752303,-2,0,0,0,0,0,-1,0
1528453213752303,0,-1,-2,-1,-1,0,-1,0
1528453213760282,0,-2,0,-1,0,0,-2,0
1528453213760282,-1,0,0,0,0,-1,-1,-2
1528453213769257,0,0,-1,-2,1,-1,-1,0
1528453213769257,-2,-1,-1,0,0,-1,-1,1
1528453213782222,0,-1,0,1,-1,-1,0,-2
1528453213782222,1,-1,-1,-1,-1,-2,1,-1
1528453213791198,1,1,-1,-1,0,-2,-2,-1
1528453213791198,-1,0,0,-1,-1,-1,1,-2
1528453213805160,0,-1,-1,-1,0,-1,0,0
1528453213805160,-1,-1,0,-1,-1,0,0,0
1528453213812142,0,-2,0,-1,-1,0,-1,0
1528453213812142,1,-1,1,-1,0,-1,-1,1
1528453213820120,-2,0,-1,-1,-1,0,-2,0
1528453213820120,0,-2,0,0,-1,0,-1,-1
1528453213829097,-2,1,-1,1,-1,1,0,-2
1528453213829097,-1,-1,-2,-1,0,-1,-2,-2
1528453213842060,-1,-1,-3,0,0,-1,0,0
1528453213842060,1,0,-1,-1,-2,-1,-1,1
1528453213860015,0,-2,-1,1,-2,-1,-1,-1
1528453213860015,-1,-1,0,-1,-1,0,-2,-1
1528453213860015,1,-1,-1,0,0,-2,-1,-1
1528453213860015,0,-1,-1,1,-3,-1,-1,0
1528453213871994,0,-2,-1,-1,-2,-2,0,-1
1528453213871994,1,0,1,-1,-2,-1,-1,0
1528453213879960,-2,1,1,-1,-1,-1,0,-1
1528453213879960,-1,0,-1,-2,0,0,-2,0
1528453213888936,-2,0,0,0,0,0,0,-1
1528453213888936,0,-1,-1,0,-1,-1,1,-1
1528453213902925,0,0,0,-2,-2,1,-2,-1
1528453213902925,-1,0,0,0,-1,1,1,-1
1528453213917857,-1,1,-2,-1,0,0,-1,1
1528453213917857,-1,0,0,1,0,-1,0,1
1528453213918857,0,-2,-1,-2,0,1,1,-1
1528453213918857,0,-1,-1,0,0,-2,0,0
1528453213933816,0,0,-1,0,0,-1,-2,1
1528453213933816,-1,-1,0,0,0,0,-1,0
1528453213939799,0,-1,0,-1,-2,0,-2,0
1528453213939799,-1,-1,0,0,0,0,-2,0
1528453213948776,-1,-1,-2,0,-2,-1,0,0
1528453213948776,-1,0,-1,0,-1,0,-1,-2
1528453213962738,-2,-1,0,0,-2,-1,-1,-2
1528453213962738,1,-3,-1,0,-2,-1,0,-1
1528453213971714,0,-1,-1,-1,-1,0,-1,-1
1528453213971714,-1,-1,-1,-1,0,1,-1,-1
1528453213977712,0,0,0,-1,-1,0,0,0
1528453213977712,-2,1,-1,0,0,-1,-1,-2
1528453213993657,-2,-1,0,-1,-1,-2,-1,-2
1528453213993657,0,-1,-1,-2,-1,-1,-1,-1
1528453214008682,-1,-2,0,1,1,-2,-1,1
1528453214008682,-1,-1,-2,-1,-1,1,-2,0
1528453214010612,-1,0,1,0,0,0,0,0
1528453214010612,0,-1,0,-1,0,-1,-2,0
1528453214022580,-2,-1,-2,-1,-1,-1,0,-2
1528453214022580,0,-3,-1,-2,0,-1,-1,1
1528453214031554,-1,-2,-3,0,0,1,-1,-1
1528453214031554,-1,-2,-1,1,0,0,1,-1
1528453214037541,-1,-2,-1,-1,-2,1,-1,1
1528453214037541,-1,0,0,0,0,0,-1,0
1528453214052526,0,0,-1,-1,0,-3,0,-1
1528453214052526,-2,0,0,1,-1,-2,0,-2
1528453214068457,-1,0,-1,-2,0,0,-1,-2
1528453214068457,0,-1,-1,-1,0,-1,-1,0
1528453214070451,0,-1,-2,-1,-1,-1,-1,1
1528453214070451,1,0,-1,0,-2,-2,1,0
1528453214083431,-1,0,0,-2,0,-2,0,-1
1528453214083431,-1,0,-1,0,1,-1,1,0
1528453214090399,0,0,1,1,-1,1,1,0
1528453214090399,1,0,-2,-1,0,0,-2,2
1528453214097406,-1,-1,-1,0,0,0,-1,0
1528453214097406,-1,0,0,-1,-1,-1,1,-2
1528453214120328,0,-4,0,0,-1,-1,-2,1
1528453214120328,-2,0,0,-3,0,-1,-1,0
1528453214121314,0,0,-1,2,0,-1,0,-1
1528453214121314,-1,0,-2,0,0,0,0,-1
1528453214129295,0,0,-1,-1,1,-2,0,-1
1528453214129295,0,0,-2,-1,0,-1,-1,-2
1528453214143262,0,-1,0,1,-1,-1,-2,0
1528453214143262,0,0,0,0,-1,-1,0,-2
1528453214150249,0,-1,-1,0,-1,-2,-1,-1
1528453214150249,-1,1,1,-1,-1,0,0,0
1528453214157219,0,-1,0,-1,0,-2,1,0
1528453214157219,-1,0,1,-1,-1,-1,-1,0
1528453214172249,-1,-1,0,-2,0,-1,0,-1
1528453214172249,-2,-1,-2,0,-1,3,0,-1
1528453214180225,1,-2,0,-1,-1,-1,-1,0
1528453214180225,0,0,1,-1,-1,-1,0,0
1528453214195206,-2,0,-2,-1,0,-3,0,-2
1528453214195206,1,-1,0,-1,1,-3,-2,0
1528453214211226,-1,0,-3,-1,-2,0,-1,-1
1528453214211226,-1,0,0,-2,-1,0,1,-1
1528453214213221,0,0,-1,1,-1,0,-1,1
1528453214213221,1,0,-1,0,-2,-2,-1,-1
1528453214217253,-1,-1,-2,-2,0,-1,-1,-1
1528453214217253,1,-1,-2,-3,0,-1,-1,0
1528453214232174,-1,0,-1,-1,0,3,0,-1
1528453214232174,-1,-2,-1,0,-2,-1,1,-1
1528453214240591,-1,0,-1,0,-2,-2,-1,-1
1528453214240591,0,-1,0,0,-1,-1,0,1
1528453214255762,0,2,-1,0,-2,-1,-1,1
1528453214255762,0,0,-2,0,1,-1,-1,-1
1528453214262746,-1,-1,0,-1,1,0,-1,-1
1528453214262746,-1,-1,-1,-1,-2,-1,-1,0
1528453214269728,-2,-3,2,0,1,0,-1,-1
1528453214269728,-2,-1,-1,0,-1,0,-2,0
1528453214285739,-1,0,-1,-2,-1,-2,0,1
1528453214285739,-2,-1,0,-1,1,0,-1,-1
1528453214292667,-1,-1,-1,-2,-1,-2,0,-1
1528453214292667,0,-2,0,0,-1,1,-1,-1
1528453214299648,0,-1,0,0,0,-1,-1,0
1528453214299648,-1,-1,-2,1,0,0,-3,-1
1528453214314655,-2,0,-2,-1,-1,-1,-1,-1
1528453214314655,0,-1,0,-1,-1,-1,1,0
1528453214322907,1,-1,0,2,-1,0,2,0
1528453214322907,1,-1,-2,-1,0,0,0,0
1528453214331562,1,-1,0,-1,0,-3,1,-1
1528453214331562,1,-1,-2,-1,-2,-1,0,0
1528453214345545,0,1,-1,0,0,-1,0,1
1528453214345545,-1,0,0,-1,-2,-1,-1,-1
1528453214360486,1,0,0,-1,2,-1,-2,-1
1528453214360486,-1,0,-1,-1,-2,-2,-2,-2
1528453214361483,0,0,1,0,-2,1,0,-2
1528453214361483,-1,-1,0,-1,0,-2,0,0
1528453214374447,0,-1,0,0,-3,-2,0,0
1528453214374447,0,-1,-1,-2,-1,0,1,0
1528453214383424,0,-1,-2,-1,2,-1,0,-1
1528453214383424,-1,1,-3,-3,-1,1,1,0
1528453214390594,0,0,-1,1,0,-2,-2,0
1528453214390594,0,0,0,-2,-1,-1,0,-1
1528453214397583,-1,-1,1,0,-1,-2,1,-2
1528453214397583,0,-1,0,-1,0,-2,0,0
1528453214413850,-2,-1,-3,-2,-2,-1,-1,0
1528453214413850,-1,-1,-1,1,1,3,1,0
1528453214419825,0,-1,-1,-2,-1,0,-1,0
1528453214419825,0,-1,0,-1,-1,-1,1,0
1528453214434782,-2,0,0,-1,0,0,-1,0
1528453214434782,-1,-1,-2,-1,1,-3,-1,0
1528453214442769,-1,-1,-1,1,-1,-1,-1,-1
1528453214442769,-2,-1,0,0,-1,1,0,0
1528453214449744,2,0,0,0,-3,0,0,0
1528453214449744,-1,0,-2,-2,2,-1,-3,0
1528453214457944,-1,-1,-2,-1,-2,-1,-2,-2
1528453214457944,0,-2,-1,0,-2,0,0,1
1528453214472684,0,0,-1,-3,0,1,-1,-1
1528453214472684,-1,-2,-1,1,-1,-1,-2,0
1528453214479669,0,0,0,-1,-1,0,-1,0
1528453214479669,-1,-2,-1,-1,0,0,-2,-2
1528453214494622,0,-1,0,1,1,-1,-1,-1
1528453214494622,0,-1,1,-1,0,1,0,-1
1528453214503774,0,-1,0,-1,1,0,-2,-1
1528453214503774,1,-1,1,1,-2,0,-2,0
1528453214509588,-1,-1,-3,1,0,0,0,0
1528453214509588,-2,-1,0,-1,-1,-1,-1,0
1528453214525581,-2,0,-1,0,0,-1,0,0
1528453214525581,-2,1,-1,1,1,-1,-1,0
1528453214532784,0,0,0,-2,-1,-1,0,-1
1528453214532784,-1,0,1,0,-2,0,1,-3
1528453214540652,-1,0,0,0,-1,-1,-1,-1
1528453214540652,-1,1,-1,-1,0,-1,0,-1
1528453214555677,-1,-2,0,-1,-1,1,-1,0
1528453214555677,-1,-1,-1,-1,-1,-1,-1,-1
1528453214563438,-1,-1,0,-2,0,0,0,-1
1528453214563438,0,-1,0,1,0,-1,-2,-2
1528453214570419,-1,-2,-1,-1,-2,-1,0,0
1528453214570419,-1,0,-3,-3,-1,1,0,-1
1528453214585704,1,-1,-1,-2,-1,-1,-1,1
1528453214585704,-2,0,0,-1,-2,-1,0,0
1528453214592405,-1,0,0,0,0,-2,-1,-1
1528453214592405,-1,0,0,0,-1,-1,-1,0
1528453214600610,0,-1,-2,1,0,-1,-1,1
1528453214600610,-1,-1,-2,-1,0,0,0,0
1528453214615628,-1,-1,0,-1,0,-2,1,-1
1528453214615628,-1,0,-2,-1,0,-1,-1,-1
1528453214623587,-1,0,-1,-1,-1,-1,-1,-2
1528453214623587,1,0,-2,-2,0,1,0,-2
1528453214637546,-1,-2,0,0,-1,1,0,-1
1528453214637546,1,-1,-2,0,0,-1,-2,-1
1528453214645566,0,-1,-2,-1,-2,0,-1,0
1528453214645566,1,-1,2,0,-1,-2,0,0
1528453214652544,-1,-1,-1,-1,-2,-2,-1,-2
1528453214652544,-1,-1,-1,0,0,-1,-2,0
1528453214659490,0,0,1,0,-1,-1,0,-1
1528453214659490,0,-1,-2,-3,-1,-1,0,0
1528453214674448,0,0,0,-1,-1,0,-1,-1
1528453214674448,-1,-1,1,0,-1,0,0,0
1528453214690405,-3,-1,-1,0,0,-1,-1,0
1528453214690405,1,-2,-1,0,-3,-2,-1,-1
1528453214697425,1,0,0,-1,-1,-1,-1,-1
1528453214697425,-1,1,0,-1,-1,-1,-1,0
1528453214705394,1,0,0,-2,0,0,0,0
1528453214705394,-1,0,-2,-1,-1,0,-2,0
1528453214721323,-1,0,-1,2,-1,-1,0,0
1528453214721323,0,-1,-1,-1,-1,0,-1,-1
1528453214721323,-1,-1,0,0,0,0,-1,-1
1528453214721323,0,0,2,-1,1,1,-1,1
1528453214735526,0,-1,-2,-1,-1,1,0,-1
1528453214735526,0,0,0,-1,0,-2,2,0
1528453214751248,-2,-1,-1,0,-2,0,-1,-2
1528453214751248,1,0,-1,0,-1,-3,0,0
1528453214757257,-3,0,-2,-2,0,-1,-2,0
1528453214757257,-1,-3,-3,-1,-1,-1,-1,0
1528453214765205,1,-1,0,-1,0,-3,0,0
1528453214765205,-1,-2,0,0,0,0,-2,-1
1528453214780195,-1,-2,-1,-2,-2,0,-1,0
1528453214780195,-1,1,-2,-1,0,-1,-1,0
1528453214781162,-2,-1,-1,-1,-1,-2,1,0
1528453214781162,-1,-2,-2,0,0,0,0,-2
1528453214795172,0,0,-1,-1,1,-2,1,-1
1528453214795172,0,-1,-1,0,0,-1,-1,0
1528453214803150,-1,2,0,-1,-1,0,0,-2
1528453214803150,-1,1,0,-1,-1,-2,0,-1
1528453214817120,-1,0,3,-1,-2,0,-1,-1
1528453214817120,-1,-1,-1,0,-1,0,-1,0
1528453214826042,2,-1,1,0,-1,-1,-1,1
1528453214826042,-2,-1,-3,0,0,0,0,0
1528453214841046,-1,0,0,0,0,-1,-3,0
1528453214841046,1,-1,1,-1,0,-1,-1,0
1528453214841046,0,-1,-1,-1,-1,0,-2,-1
1528453214841046,-1,1,1,0,1,-3,0,1
1528453214854992,2,-1,-1,1,-2,0,-1,0
1528453214854992,0,0,-2,-1,-1,-2,0,0
1528453214862980,-1,0,-1,0,-1,-1,-1,0
1528453214862980,-1,-1,-2,-1,-1,-1,-2,-1
1528453214877921,-1,-1,-2,-1,2,-1,0,-1
1528453214877921,1,-2,0,-1,-1,0,0,0
1528453214885936,0,-2,-1,-1,-1,0,0,0
1528453214885936,1,0,-1,1,-2,0,-1,0
1528453214900842,-1,1,0,0,-2,0,-1,0
1528453214900842,-1,0,0,0,-1,1,-1,-2
1528453214901840,-2,-2,-2,-1,1,0,0,-1
1528453214901840,0,0,-1,1,-1,0,0,0
1528453214916800,-2,-2,-3,0,0,-1,1,0
1528453214916800,-1,0,-1,-1,-1,0,1,0
1528453214922784,2,-1,-1,-1,0,-2,-1,-2
1528453214922784,-1,1,0,-1,0,0,-1,0
1528453214937744,0,0,-1,0,-2,-2,0,0
1528453214937744,0,-2,-1,0,-1,0,-1,-1
1528453214945723,-2,-2,0,-1,-3,-2,0,1
1528453214945723,-1,-1,-2,-2,1,0,0,0
1528453214968661,0,-2,0,0,-1,-2,-1,0
1528453214968661,-1,0,0,0,-1,-3,0,0
1528453214969659,-2,-1,-1,-2,0,1,-1,-2
1528453214969659,-1,-1,0,-1,-1,-1,-2,-1
1528453214974661,0,-1,-1,-1,0,-1,-1,-2
1528453214974661,0,-1,0,-1,-2,-1,-2,-1
1528453214982624,0,0,1,1,1,0,-1,0
1528453214982624,0,-2,0,-2,-1,-1,-1,0
1528453214997584,0,-1,-2,-1,-1,0,0,-1
1528453214997584,0,-2,0,-2,-1,-2,-1,-2
1528453215005563,1,1,-2,0,-1,-1,0,0
1528453215005563,0,-1,0,1,-2,0,-1,-1
1528453215020523,0,0,-1,1,-1,0,0,1
1528453215020523,-1,0,-2,-1,-1,-1,-1,-1
1528453215021520,0,0,-3,-1,0,0,0,-1
1528453215021520,-1,-1,-2,-1,0,0,-2,-1
1528453215034485,0,-1,-1,1,0,0,-2,-1
1528453215034485,-1,0,0,-1,1,0,0,-1
1528453215043462,0,-1,0,-1,-2,-2,-1,-1
1528453215043462,1,-2,0,0,1,-1,1,1
1528453215057424,0,-2,1,-1,-1,-2,0,0
1528453215057424,0,-2,0,-1,0,1,-2,-1
1528453215065403,0,-1,-1,-1,0,-1,-1,-1
1528453215065403,-2,0,-2,-1,0,2,-2,0
1528453215080592,-1,-1,0,0,-1,-1,-2,-1
1528453215080592,1,-1,-2,-1,-1,0,0,-1
1528453215081360,0,-2,-1,-1,0,0,-1,-1
1528453215081360,0,0,0,0,-1,-2,-2,0
1528453215094660,-1,-1,-2,-1,-1,-2,1,-2
1528453215094660,-3,0,-2,0,-2,0,-1,0
1528453215103837,-1,-2,-1,0,-1,0,0,-1
1528453215103837,0,0,-1,-1,0,0,2,0
1528453215118152,-1,1,0,-2,-1,0,-2,-1
1528453215118152,-1,0,-1,0,1,-4,-1,1
1528453215125860,1,0,-1,0,-1,0,-1,-1
1528453215125860,-2,-1,-1,-1,-1,-3,-2,-1
1528453215140823,0,1,0,-1,0,0,0,0
1528453215140823,-1,-1,-1,0,0,-1,1,-2
1528453215141822,-1,-1,0,-1,-1,0,0,-2
1528453215141822,0,-1,1,-1,-2,-1,1,-1
1528453215155471,-1,0,-1,0,-2,0,-1,-1
