timestamp,emg1,emg2,emg3,emg4,emg5,emg6,emg7,emg8
1529563793682710,-1,0,1,1,-1,0,0,-1
1529563793682710,-1,0,-3,-1,0,-1,0,-1
1529563793691688,-2,0,1,0,0,-3,-1,-1
1529563793691688,-1,-2,-1,1,-2,0,-2,-1
1529563793705649,0,-1,-1,-1,-2,-1,0,-2
1529563793705649,-2,-2,0,-1,-1,0,-2,-2
1529563793712630,1,0,-1,-2,0,0,-1,-1
1529563793712630,0,0,-1,-1,1,-1,-1,-1
1529563793719648,1,-1,-1,-1,0,2,-2,0
1529563793719648,-1,-1,-1,0,0,0,-1,0
1529563793728588,0,-1,-1,-2,-2,1,-2,0
1529563793728588,0,0,0,-2,0,1,-2,-1
1529563793742585,-1,0,-1,-1,-1,-2,1,-1
1529563793742585,0,-1,-1,0,-1,0,-2,-1
1529563793751526,-2,-1,-1,0,0,1,-1,-1
1529563793751526,-1,1,-1,0,0,1,0,0
1529563793765529,-3,0,1,-1,0,0,-1,-2
1529563793765529,0,0,0,0,0,-1,0,1
1529563793772516,1,0,-2,0,-1,-1,-1,-1
1529563793772516,-1,-2,0,-1,-1,-1,-1,0
1529563793779451,-1,-1,0,0,-2,-1,0,-1
1529563793779451,-1,-1,1,-1,-1,0,0,0
1529563793788427,0,0,0,-1,0,0,2,-1
1529563793788427,0,-1,-1,0,0,-1,-1,0
1529563793802436,-1,-2,-2,-2,0,0,0,-1
1529563793802436,-1,-1,-1,0,-2,-1,1,0
1529563793811367,-2,0,0,-1,-1,-1,-2,-1
1529563793811367,0,-1,0,-1,-1,0,-1,-1
1529563793825329,-1,0,-2,0,0,-2,-2,0
1529563793825329,-1,-1,0,-1,-1,-1,-1,-2
1529563793832346,-1,1,1,0,0,0,0,-2
1529563793832346,-2,0,0,-1,0,1,1,1
1529563793839291,1,0,-1,-1,1,0,-1,-1
1529563793839291,-2,-1,-2,0,0,0,-1,-1
1529563793849228,0,-1,0,-1,-1,-4,0,1
1529563793849228,1,-1,-1,-1,0,-2,-1,-2
1529563793862238,0,2,1,0,-2,1,-1,-1
1529563793862238,-1,0,1,1,-1,-1,-1,0
1529563793871172,-1,-2,-2,0,0,0,-1,-1
1529563793871172,-1,-1,-1,0,-2,0,-2,-1
1529563793885139,0,-2,0,1,0,-1,-1,0
1529563793885139,2,0,-1,-1,0,0,-1,0
1529563793892163,-3,-2,0,-1,-1,-1,0,0
1529563793892163,0,-2,-1,-1,1,0,0,1
1529563793900122,0,-2,-1,-1,-1,0,-1,-1
1529563793900122,0,1,-1,0,0,-1,0,-2
1529563793909071,0,-2,-2,0,-1,0,0,0
1529563793909071,-1,0,0,-1,0,-2,-1,-2
1529563793922036,1,1,-2,-1,1,0,0,0
1529563793922036,0,-1,-1,0,1,-1,-1,0
1529563793931013,-1,-1,-1,-2,-1,0,-1,-1
1529563793931013,-1,0,-1,-1,1,-1,0,0
1529563793945000,-1,-2,-1,0,-1,-1,-1,-2
1529563793945000,0,-1,0,-2,0,-1,0,-2
1529563793951985,1,0,0,-2,0,-1,-2,0
1529563793951985,0,-1,0,-1,-2,0,0,-1
1529563793959937,-2,0,-1,-1,-1,-2,1,0
1529563793959937,-1,-1,-1,0,-1,0,0,0
1529563793974896,0,0,0,-1,0,-2,-1,0
1529563793974896,1,-1,-3,-1,0,1,0,0
1529563793981877,0,-1,0,-1,-1,0,-1,0
1529563793981877,-1,-2,-1,0,0,0,-2,-1
1529563793990862,-2,1,-1,-1,0,-2,0,-1
1529563793990862,-1,0,-1,0,-2,-2,-2,-1
1529563794005891,0,-2,0,-1,1,-1,-1,-1
1529563794005891,-1,-3,0,-2,-2,-1,-2,-1
1529563794012826,0,0,1,0,0,0,0,-1
1529563794012826,-1,1,1,-1,-1,-1,-1,-1
1529563794019774,1,-1,-1,-1,1,-2,0,0
1529563794019774,-1,-1,0,-1,0,0,-1,-1
1529563794034918,1,-2,-1,0,-1,-1,-1,0
1529563794034918,1,0,0,0,-1,-1,-1,-1
1529563794041902,0,-1,-1,0,-2,0,-3,-1
1529563794041902,-1,0,-2,-1,-1,0,-1,-1
1529563794050877,0,-1,0,-1,0,0,0,0
1529563794050877,0,-2,-1,-1,1,0,-1,-1
1529563794074028,0,-2,0,0,-1,-2,1,0
1529563794074028,0,-1,1,-1,-2,0,1,-1
1529563794074990,-1,1,0,1,-2,-1,-1,-2
1529563794074990,0,0,1,-2,-2,-2,-2,0
1529563794080143,-1,-1,1,0,0,1,0,-1
1529563794080143,1,0,2,0,0,-1,-1,0
1529563794094876,-1,-3,-1,-1,0,-1,-1,1
1529563794094876,-1,-1,-1,-1,0,-1,1,1
1529563794101809,-3,0,0,-1,0,-2,0,-2
1529563794101809,0,0,-1,1,0,0,0,-2
1529563794110812,-1,-1,0,0,0,0,-1,0
1529563794110812,-2,-1,-1,1,-1,0,0,-2
1529563794125918,-2,0,0,1,-1,0,0,-1
1529563794125918,-1,-1,-2,-2,-1,-1,0,-1
1529563794131728,-1,-2,-1,0,0,0,-1,-2
1529563794131728,0,-1,0,0,-1,1,-1,0
1529563794139891,-1,0,-3,-1,0,-2,0,0
1529563794139891,-1,-1,0,0,-2,1,-1,-1
1529563794155071,-1,1,-2,0,0,-1,-1,-1
1529563794155071,-1,0,-1,1,-1,-1,-1,-2
1529563794161872,0,1,-1,0,-1,-1,0,-1
1529563794161872,-1,-2,0,-1,0,-2,-1,0
1529563794171848,-1,0,-1,-1,0,0,0,0
1529563794171848,0,-1,-1,0,0,-1,0,1
1529563794186106,0,-1,0,0,-2,-1,-1,0
1529563794186106,0,-1,0,0,-1,-1,-1,-1
1529563794193018,-1,-2,0,0,2,0,-1,-1
1529563794193018,1,0,0,-1,-1,-1,0,-1
1529563794200002,-1,0,-2,0,0,-1,-1,-1
1529563794200002,-2,0,0,0,-1,-1,-1,-1
1529563794214843,0,-1,0,-1,-1,0,-1,-1
1529563794214843,0,-1,-1,-1,0,0,0,-1
1529563794222218,-1,-1,-1,0,0,1,-2,0
1529563794222218,-1,1,-1,0,-1,-2,1,-1
1529563794230823,0,1,0,0,-1,-1,1,-1
1529563794230823,-3,0,-1,-2,0,0,0,-2
1529563794246294,-1,0,-1,-1,0,1,1,-1
1529563794246294,-1,-1,0,-1,0,0,-2,-2
1529563794252216,0,-1,-1,1,-2,-1,0,-1
1529563794252216,0,0,-1,-2,1,-1,0,0
1529563794268383,-1,0,1,-2,0,-1,-1,-1
1529563794268383,0,0,-2,-1,0,-1,0,1
1529563794274585,-1,0,-2,-3,-2,-1,-1,0
1529563794274585,-1,-1,-1,0,-1,0,-1,-1
1529563794291546,-1,-1,1,0,0,0,0,-1
1529563794291546,-1,-1,-2,-1,0,-1,1,1
1529563794292692,0,-1,-2,-1,-1,-2,-1,0
1529563794292692,-2,-1,0,-1,0,-2,0,-1
1529563794305373,0,0,-1,-1,-2,0,0,-1
1529563794305373,0,-2,0,-1,0,0,-1,-2
1529563794312191,-1,1,0,-1,-1,0,0,-1
1529563794312191,-2,0,0,-1,0,0,-1,0
1529563794328148,-2,-1,-2,-1,0,-1,-1,-2
1529563794328148,1,0,0,-2,0,0,0,0
1529563794335129,-1,0,-1,-2,-1,1,-1,0
1529563794335129,-2,-1,0,-1,0,-1,0,0
1529563794351120,0,-2,-1,0,-1,-1,0,-2
1529563794351120,-1,0,-2,0,2,-1,1,1
1529563794353082,-1,-1,0,-1,1,0,-2,-1
1529563794353082,1,-1,-2,-1,-1,-2,0,0
1529563794365050,1,0,-2,1,1,-1,-1,1
1529563794365050,-2,-1,-1,1,-2,-1,0,-1
1529563794372031,-1,-2,-1,0,-1,0,0,-1
1529563794372031,0,0,-1,0,-1,1,-1,0
1529563794387989,-1,0,-1,-2,-1,-1,-2,0
1529563794387989,-1,-1,1,-1,-2,0,-2,0
1529563794394972,0,0,-1,-1,-1,-1,0,0
1529563794394972,0,1,0,-1,0,-1,0,-2
1529563794410927,-1,-1,0,-1,-1,-1,-1,0
1529563794410927,-1,-1,0,-1,-1,-2,-2,-1
1529563794412922,-2,-1,-2,0,-1,-2,-1,-1
1529563794412922,0,-2,-2,-1,-2,-1,-1,0
1529563794425921,0,0,-1,0,0,-2,-1,0
1529563794425921,-1,0,-1,-1,0,-1,-1,0
1529563794431871,-1,-2,-2,-1,-1,-1,1,-1
1529563794431871,0,0,0,0,0,-1,-2,-1
1529563794447827,0,-2,-1,-2,-1,-1,1,0
1529563794447827,-1,0,-2,-2,-1,-1,-2,0
1529563794454808,1,0,-2,-1,-1,0,-2,-1
1529563794454808,-3,-1,-2,1,-1,-1,-2,0
1529563794470765,-2,-1,1,-1,0,-1,-1,-1
1529563794470765,1,-1,-1,0,0,-1,-1,-1
1529563794472760,-1,-2,1,0,0,-1,1,0
1529563794472760,-2,0,-1,-2,0,1,-1,0
1529563794485725,0,0,0,0,-1,-1,-1,0
1529563794485725,1,0,1,-1,-1,-2,0,-1
1529563794492706,1,0,0,0,-1,1,-2,-1
1529563794492706,0,-2,-1,-1,-2,-3,1,1
1529563794507666,-1,0,-1,-2,-1,-1,-1,-3
1529563794507666,0,-1,-2,-2,-1,1,1,1
1529563794514647,-2,0,1,-1,1,2,-1,1
1529563794514647,0,-1,-1,0,-1,1,-2,-1
1529563794530605,1,1,0,-1,-1,0,1,0
1529563794530605,-1,0,-3,0,-1,1,-2,-1
1529563794532600,0,1,0,-2,-2,-1,0,-1
1529563794532600,0,0,-1,0,-1,-1,-1,-1
1529563794545565,-1,-1,0,0,-2,-1,-1,-1
1529563794545565,-2,-1,-1,0,0,0,0,0
1529563794552546,0,0,-2,-2,-1,-1,1,-1
1529563794552546,0,-1,1,-1,0,-1,-1,0
1529563794567506,0,0,-1,-3,-3,0,0,0
1529563794567506,-2,1,0,-1,0,0,0,0
1529563794574488,-1,-2,-3,0,-2,0,0,-1
1529563794574488,1,0,0,0,-1,1,1,0
1529563794591442,-2,0,-1,-1,-1,0,-2,-1
1529563794591442,0,-2,0,1,-2,-1,0,-1
1529563794592440,-3,-1,0,-1,0,-2,-1,-1
1529563794592440,-2,0,0,0,0,0,-1,0
1529563794604408,-2,-3,-1,0,-2,-1,-1,1
1529563794604408,-2,-1,-1,-2,1,-2,0,-1
1529563794613384,0,0,-1,0,-1,0,1,-1
1529563794613384,-3,1,-1,-1,1,-2,0,-1
1529563794628344,-2,0,-1,-1,-1,-2,-2,-1
1529563794628344,-1,-1,-1,-2,-1,0,-1,-2
1529563794634327,0,-1,-1,0,-1,1,0,0
1529563794634327,1,0,-2,0,-1,-1,-1,0
1529563794651282,0,-1,-1,1,-1,-1,1,-1
1529563794651282,-1,-1,-1,0,-1,-1,-2,0
1529563794652280,-1,-1,0,0,0,-2,-2,0
1529563794652280,0,-1,-1,0,-2,-3,-2,-2
1529563794665245,0,-1,-1,-1,0,-1,0,-2
1529563794665245,0,-2,-1,-1,-1,-1,-1,-2
1529563794674221,1,0,0,-1,-1,-2,-2,-1
1529563794674221,-1,-2,-2,-1,-1,0,-1,0
1529563794688183,0,-1,0,1,-1,0,0,-1
1529563794688183,-2,-1,-2,-1,-1,-1,-1,0
1529563794702146,0,0,-1,0,0,-2,0,-1
1529563794702146,0,1,-1,0,-1,-1,1,-2
1529563794711122,-1,-1,0,0,0,-1,0,-2
1529563794711122,2,0,0,-1,-1,1,-1,-1
1529563794713117,0,-1,0,1,0,0,-1,-1
1529563794713117,-1,-3,0,0,0,0,1,0
1529563794725402,-1,-1,-2,-1,0,0,-1,0
1529563794725402,-1,0,0,0,-1,0,-1,0
1529563794734275,-2,0,0,-2,0,-1,-1,0
1529563794734275,0,-1,0,0,-1,1,0,-1
1529563794748241,-1,-1,-1,-1,-1,1,0,1
1529563794748241,-2,0,-1,0,0,1,0,-1
1529563794754451,-1,0,-2,-1,1,-1,-1,-1
1529563794754451,-2,-2,-1,-1,-2,0,-1,0
1529563794771413,0,-2,-1,-1,0,0,0,-1
1529563794771413,0,-2,-1,0,-1,-1,0,0
1529563794773412,0,0,-1,0,-2,-1,0,0
1529563794773412,-1,1,-1,-1,0,0,-1,-2
1529563794784587,0,0,-1,-1,-2,-2,0,-2
1529563794784587,0,2,0,-1,-2,-2,0,0
1529563794793661,-1,-1,-1,0,0,1,-1,1
1529563794793661,-1,-1,-1,-1,0,-2,-1,-1
1529563794807977,-1,-1,0,-1,-1,-1,-1,0
1529563794807977,0,0,0,0,0,-2,-1,-1
1529563794815425,1,0,0,-1,-1,-1,-1,-1
1529563794815425,-2,0,0,-1,-1,-2,-1,0
1529563794831385,-2,0,-1,0,0,-1,-1,0
1529563794831385,0,-1,-1,-2,-1,-2,-1,0
1529563794832382,-1,-1,0,0,-1,-1,1,-1
1529563794832382,0,0,-1,1,-1,-1,0,-1
1529563794845241,0,0,-1,-2,-1,0,-1,-1
1529563794845241,0,-1,-1,0,0,1,0,-1
1529563794853257,0,0,0,0,0,1,0,0
1529563794853257,-2,0,-2,-2,-1,1,-1,-1
1529563794868185,-1,-1,-1,-2,-1,-1,-1,-1
1529563794868185,1,1,-1,-1,0,0,0,-1
1529563794875342,-2,-1,-1,-1,0,0,1,-2
1529563794875342,-1,0,0,-2,-2,0,0,-1
1529563794890307,1,-2,0,1,-1,1,0,0
1529563794890307,0,-2,-1,0,-2,0,-1,1
1529563794897313,-1,0,-1,0,-1,0,0,0
1529563794897313,1,-1,-1,0,0,-1,0,-2
1529563794905549,-2,1,0,-1,-1,-1,0,0
1529563794905549,0,-1,0,-1,-1,-1,0,0
1529563794913785,0,0,-1,0,-1,-1,-2,-1
1529563794913785,-1,-1,-2,-1,0,0,-1,0
1529563794927922,-1,-1,0,0,0,-1,0,0
1529563794927922,-1,0,-1,-1,-1,-1,0,-1
1529563794934898,-1,-1,-2,-2,0,0,-1,-1
1529563794934898,0,-1,0,-1,-2,-1,-1,0
1529563794950861,0,0,-3,-2,-1,-2,-1,-2
1529563794950861,0,-1,0,-1,0,-1,-2,-1
1529563794957663,1,-2,0,-1,-1,0,1,0
1529563794957663,-1,-1,-2,-1,0,-1,-1,0
1529563794964645,-1,-2,0,0,-2,0,-1,1
1529563794964645,-1,-3,-1,0,-1,-1,-1,-1
1529563794979990,1,0,-2,-1,-2,-2,-2,0
1529563794979990,-1,0,1,-1,0,-1,-1,1
1529563794988577,0,-1,-1,1,0,-2,0,-1
1529563794988577,-1,0,-1,0,0,0,0,-1
1529563794994775,-1,-2,0,0,-1,0,0,-1
1529563794994775,0,0,-1,-1,0,-1,0,0
1529563795011090,1,0,-1,0,-2,0,-1,0
1529563795011090,-1,-1,-1,-1,0,-2,0,-1
1529563795017934,-1,0,-1,0,-1,-1,-1,-1
1529563795017934,-1,0,0,0,0,-1,0,0
1529563795024701,-1,-2,0,-1,1,0,-1,0
1529563795024701,-2,-2,-2,-1,0,-2,0,-1
1529563795033729,0,-1,0,-2,0,1,-1,-2
1529563795033729,0,-1,-1,-2,-2,-1,-1,-2
1529563795047638,-1,1,-1,-1,1,0,-1,0
1529563795047638,-1,0,0,-1,-2,-1,-1,0
1529563795054942,0,0,-1,-1,-3,-1,-1,-1
1529563795054942,1,1,0,-1,0,-1,0,-2
1529563795070943,0,-1,0,0,1,0,1,-2
1529563795070943,-1,0,-1,1,-1,0,0,0
1529563795077892,-1,-2,-1,0,-1,0,-1,0
1529563795077892,-1,0,-3,-1,0,0,-1,1
1529563795094153,1,0,-1,0,-2,1,-1,-1
1529563795094153,0,1,-1,-2,0,0,1,0
1529563795100546,-1,-2,-1,-1,1,-2,1,-1
1529563795100546,0,0,-1,0,0,0,-1,-1
1529563795108676,0,-1,-1,-1,-2,-2,0,0
1529563795108676,1,0,-1,-1,0,1,-1,-1
1529563795114615,0,-2,-1,-1,0,-2,0,-1
1529563795114615,0,-2,-2,-2,-2,-1,0,-1
1529563795130572,0,-1,-1,-2,-1,1,1,-2
1529563795130572,-1,-1,-1,-1,-1,0,-1,-1
1529563795137685,1,0,0,0,-1,-1,-2,0
1529563795137685,1,-1,-2,0,0,0,0,-2
1529563795153648,0,-1,-2,1,-2,-1,-1,0
1529563795153648,-1,1,0,-1,-2,0,-1,0
1529563795154838,0,-1,0,1,-1,0,0,-1
1529563795154838,0,1,0,0,0,-2,-1,0
1529563795168013,0,-1,0,-1,-2,-2,0,-1
1529563795168013,0,-1,-1,-1,0,0,-1,0
1529563795174994,-2,0,-2,0,-1,-2,-1,-1
1529563795174994,-1,-1,-1,0,0,0,-1,0
1529563795190979,-1,-1,-2,0,1,-1,0,-2
1529563795190979,0,-2,0,-1,-1,0,-1,0
1529563795197112,-1,0,1,0,-1,-1,0,-2
1529563795197112,0,0,1,-1,0,-1,0,-1
1529563795213372,0,-1,0,0,-1,-1,-1,0
1529563795213372,-1,0,-1,-1,-1,-2,-1,-1
1529563795215364,-1,0,-1,-1,0,-2,0,0
1529563795215364,0,0,0,-2,-2,-1,0,-1
1529563795228506,-2,-1,1,0,0,-1,0,0
1529563795228506,0,-1,-1,1,-1,-1,0,0
1529563795235357,0,-1,-1,-2,-2,0,-2,0
1529563795235357,-1,1,0,-1,0,1,-2,-1
1529563795250665,0,0,0,-3,1,-1,-1,-1
1529563795250665,-1,-1,-2,1,0,-1,-2,-1
1529563795257881,-1,0,-1,-1,-3,-1,1,-1
1529563795257881,-1,-2,0,3,-1,-1,0,0
1529563795273707,-1,-2,-1,-2,-1,-1,-1,0
1529563795273707,-1,-1,-2,-1,-1,0,-1,0
1529563795275706,-1,0,0,-2,1,-1,-1,1
1529563795275706,0,1,0,0,-1,-2,0,1
1529563795287897,-1,0,-1,0,-1,-1,-2,1
1529563795287897,-1,1,0,0,-1,-2,-1,0
1529563795295062,-2,-2,0,0,-1,0,-1,-2
1529563795295062,-1,-1,-2,-3,0,-1,0,-2
1529563795310580,0,2,0,-2,0,-2,-1,-2
1529563795310580,-1,-2,0,0,0,-1,-2,-1
1529563795317845,0,-1,-1,0,0,-1,-1,1
1529563795317845,-1,-1,-1,-1,-3,0,0,-2
1529563795332838,-1,1,-3,-1,-1,0,0,-1
1529563795332838,0,0,0,0,0,1,1,-1
1529563795333835,-1,0,1,0,-1,1,1,1
1529563795333835,-1,-2,0,0,0,0,0,2
1529563795348432,1,-1,-1,0,0,1,0,0
1529563795348432,-1,-2,0,-1,0,0,0,0
1529563795355452,0,1,-1,-1,-1,-1,-3,-1
1529563795355452,0,-3,-1,0,1,-1,0,0
1529563795369630,-2,-1,1,-2,-2,0,-1,-1
1529563795369630,0,0,1,-2,1,0,-1,-1
1529563795377570,0,-1,-3,-1,1,-1,-1,-1
1529563795377570,-1,-1,-2,0,0,-2,-1,-1
1529563795392580,-1,-1,-1,0,-1,-1,-1,0
1529563795392580,1,-2,0,-1,-3,1,-2,-1
1529563795393528,0,0,-2,0,-2,-1,-1,-1
1529563795393528,0,1,0,-1,0,0,-2,0
1529563795408543,0,-1,-1,0,-1,0,-1,-2
1529563795408543,0,0,-1,-2,-2,-3,0,0
1529563795414472,-1,0,-1,0,0,-2,0,-2
1529563795414472,0,0,0,-2,-2,0,0,-1
1529563795429588,0,-1,-1,1,-1,0,-3,-1
1529563795429588,-2,0,-2,0,-2,-1,-2,-1
1529563795437567,-1,-2,-2,-2,0,0,-3,-1
1529563795437567,-1,-1,2,-1,1,0,-1,-1
1529563795460865,0,0,2,-1,-1,-1,-1,-2
1529563795460865,0,-1,0,-2,0,-1,-1,0
1529563795461770,-1,-2,-1,0,0,0,0,-1
1529563795461770,0,1,-1,-1,-1,0,0,-1
1529563795468699,-1,0,-1,1,1,0,0,0
1529563795468699,-1,-1,-1,0,0,0,-1,-1
1529563795474825,0,0,0,-3,-1,-1,0,0
1529563795474825,-3,-3,-1,0,-1,-1,-1,0
1529563795489807,0,-1,-1,-2,0,-2,-2,0
1529563795489807,0,-1,0,-2,-1,-2,0,-1
1529563795497622,0,0,0,-1,0,0,-1,2
1529563795497622,-1,0,-2,0,-1,0,-2,1
1529563795512975,-2,0,0,0,0,-1,0,1
1529563795512975,0,-2,0,-1,-1,-2,-2,1
1529563795513975,0,-1,-1,-1,-1,0,1,-1
1529563795513975,0,0,-1,-2,-3,-1,0,-2
1529563795528759,1,-2,0,1,-1,0,0,0
1529563795528759,-1,0,0,-1,-1,0,0,0
1529563795534355,0,0,0,-1,0,0,-2,1
1529563795534355,-1,0,-1,1,1,-2,0,-1
1529563795549844,-1,0,-1,0,0,-1,0,-2
1529563795549844,-1,0,0,-1,0,-2,-1,-2
1529563795557632,-2,-1,-1,1,-1,1,-1,0
1529563795557632,0,-2,0,-1,-1,-1,0,-2
1529563795573526,-3,1,0,0,-2,0,-1,0
1529563795573526,0,-1,-1,-1,2,0,-1,1
1529563795573526,-2,0,-1,-1,-1,-2,0,-1
1529563795573526,1,-1,0,0,-1,1,0,-1
1529563795589397,-1,0,-1,-1,-1,-1,-1,0
1529563795589397,-1,-1,0,0,-1,-1,1,0
1529563795595130,-1,-1,0,-2,0,-1,-1,-2
1529563795595130,-1,-1,0,-1,-1,-1,-1,-2
1529563795609906,1,0,-2,0,0,0,0,0
1529563795609906,1,0,0,0,-1,1,-2,-2
1529563795617109,0,0,2,-1,-1,0,-1,-2
1529563795617109,-2,-1,-1,0,0,-1,0,0
1529563795633070,-1,1,-1,-1,0,-1,0,-2
1529563795633070,-1,-2,-1,-1,-1,-2,-1,-1
1529563795634156,-2,-1,-2,-1,-1,0,0,-2
1529563795634156,-1,-1,0,-1,0,-1,0,-1
1529563795649406,1,-1,0,-1,0,-1,-3,0
1529563795649406,0,0,-1,1,-2,-1,-1,0
1529563795655359,-1,-3,-1,-3,0,-2,-1,0
1529563795655359,-1,-1,-1,-1,0,0,-1,-1
1529563795669957,0,1,-1,0,0,-1,-1,0
1529563795669957,-2,0,-1,0,-1,-2,-2,-1
1529563795677680,-2,0,1,1,0,0,1,1
1529563795677680,-2,1,-1,0,-2,-1,0,0
1529563795692463,0,-2,-1,-3,0,0,1,-1
1529563795692463,0,0,-2,0,0,-1,-1,-1
1529563795693461,2,-2,0,-1,-1,-2,-1,-1
1529563795693461,0,-1,0,0,-2,-1,-1,2
1529563795708445,-2,0,0,0,-1,-2,-2,-1
1529563795708445,0,-2,0,0,0,-1,0,-1
1529563795714429,-2,-1,-1,-1,-3,0,0,-1
1529563795714429,-1,-1,0,-2,-1,0,-2,0
1529563795729392,-1,-1,-1,-1,-1,-2,0,-1
1529563795729392,-1,-1,-1,-1,-1,0,-1,-1
1529563795737368,0,0,1,1,-1,0,-3,0
