timestamp,emg1,emg2,emg3,emg4,emg5,emg6,emg7,emg8
1528184109853332,-1,4,-2,2,-1,-2,-4,-2
1528184109853332,-2,-7,-3,-1,-2,-1,-4,-1
1528184109854329,-1,0,-3,0,1,1,-2,-2
1528184109854329,0,5,8,-1,0,-2,-1,0
1528184109855326,-2,-6,11,-1,-1,-2,-1,-1
1528184109855326,-2,1,-14,-2,-2,0,-1,-1
1528184109855326,-1,0,10,1,1,0,0,-1
1528184109855326,-1,-2,-2,0,-2,0,0,-3
1528184109867295,0,7,-5,-2,-3,-2,-1,0
1528184109867295,0,5,24,-1,-1,-1,-1,-2
1528184109869290,-2,-8,-22,-1,4,-1,-2,-1
1528184109869290,-2,2,43,-1,0,-2,-1,0
1528184109882254,-1,-7,-58,-2,-14,-9,-2,0
1528184109882254,-2,1,-1,14,-4,-9,-3,-2
1528184109897214,1,4,9,-24,17,16,2,-2
1528184109897214,-1,-13,5,-7,3,8,-1,0
1528184109898213,-1,-3,-25,-6,-31,-20,-1,1
1528184109898213,0,-2,2,14,27,-1,-3,0
1528184109920153,0,-2,-7,10,-34,-5,-4,-1
1528184109920153,1,-2,-12,-7,31,15,0,-1
1528184109923145,-2,-1,18,-4,-17,-67,-6,-6
1528184109923145,0,1,-2,-8,25,76,4,-2
1528184109941098,0,-1,-6,4,8,26,6,1
1528184109941098,-2,3,-11,2,-14,-38,0,0
1528184109982986,-1,2,1,2,2,34,7,-1
1528184109982986,-4,-5,-1,1,15,39,21,-3
1528184109983984,0,-2,-1,-4,-16,-90,4,1
1528184109983984,-9,-3,-1,-2,13,90,5,-4
1528184109987972,10,-2,-2,-3,18,-1,4,8
1528184109987972,9,5,0,-3,-55,-38,-14,-26
1528184109988970,-3,-2,-1,-2,-25,-4,-5,-16
1528184109988970,6,-1,-2,1,-4,-61,-4,9
1528184109990964,-21,-7,-1,4,98,64,-24,7
1528184109990964,8,-4,0,3,-25,11,14,24
1528184109993956,39,15,-1,0,14,-46,37,42
1528184109993956,-23,-5,-1,-7,-112,44,-61,-10
1528184110009913,-30,-2,2,5,47,5,50,-15
1528184110009913,9,-1,1,11,89,27,2,22
1528184110015897,7,-3,-2,-1,-43,0,-5,-20
1528184110015897,9,8,1,0,-19,-58,-3,-16
1528184110030857,7,0,-5,-10,-64,-64,-45,1
1528184110030857,-19,-7,-3,-10,-33,1,-5,-15
1528184110046815,-11,-3,-2,-5,59,79,-17,1
1528184110046815,9,-1,-2,-7,15,-1,49,20
1528184110060777,-2,-4,1,2,-59,-35,0,-7
1528184110060777,10,3,0,5,46,-17,-8,-6
1528184110069754,-11,0,0,3,-20,-14,-7,2
1528184110069754,0,1,0,2,26,74,17,6
1528184110071748,14,2,0,-8,-68,30,44,1
1528184110071748,-14,-2,1,4,54,-20,10,22
1528184110083717,-3,-6,-2,2,38,0,-36,-41
1528184110083717,34,1,-3,-4,-69,-30,-11,28
1528184110092693,-8,3,-3,1,102,6,28,9
1528184110092693,-19,-13,-4,-5,-74,-19,19,-8
1528184110107653,-10,-3,0,-1,21,31,-13,14
1528184110107653,-7,-4,-1,-2,15,-57,-23,-24
1528184110108650,6,-4,1,-1,-54,4,6,-15
1528184110108650,2,2,-5,-3,3,10,-26,18
1528184110129593,-6,-5,-2,-10,-52,-11,-16,-13
1528184110129593,1,4,1,1,59,50,48,-2
1528184110131588,7,2,1,-4,-18,-40,-71,15
1528184110131588,-12,-1,3,2,13,-2,10,-28
1528184110143567,-16,-7,-1,-2,-15,35,39,9
1528184110143567,24,4,-4,-3,7,-2,-54,2
1528184110152532,-7,0,-1,3,0,-23,-34,-6
1528184110152532,15,5,5,-4,-12,25,38,-21
1528184110175471,4,3,-2,1,24,5,-60,30
1528184110175471,-14,-1,4,7,18,-1,54,-9
1528184110176468,3,-1,-4,-2,-2,-22,-17,0
1528184110176468,4,1,-3,-9,-48,-22,-26,7
1528184110190431,-2,-4,-4,-1,2,7,21,-14
1528184110190431,-12,-5,-1,-1,25,-7,-1,-1
1528184110191428,3,-2,0,2,-36,-4,3,-3
1528184110191428,-3,0,-3,-5,5,-13,-22,7
1528184110203396,28,0,2,1,18,24,14,-6
1528184110203396,-82,-12,-8,-9,-27,-60,-48,-15
1528184110212373,-5,-3,-5,-2,0,28,-27,-9
1528184110212373,-3,-3,0,0,20,20,-40,-3
1528184110227332,5,3,-1,1,24,2,75,21
1528184110227332,15,1,1,0,-19,-32,-52,-12
1528184110233316,5,3,2,1,-6,26,41,5
1528184110233316,-5,2,-3,3,4,7,-66,0
1528184110250271,-7,-1,-1,0,4,3,-12,-7
1528184110250271,9,0,1,3,11,19,43,24
1528184110251277,-2,6,-1,-7,-10,-35,-8,-3
1528184110251277,10,-4,-3,-1,-11,9,21,-17
1528184110263251,-12,-3,1,0,-12,-10,5,-5
1528184110263251,3,0,-1,-2,-6,2,29,-5
1528184110272213,-1,-10,0,1,11,-6,-19,-8
1528184110272213,0,2,-6,-1,-9,-15,12,6
1528184110287221,-5,2,18,-2,-19,43,-3,-13
1528184110287221,2,-2,-1,-1,19,1,9,-5
1528184110294165,5,2,5,13,32,6,66,7
1528184110294165,-4,-1,-5,-10,-26,-12,-47,-4
1528184110310110,-12,-5,-4,-35,-9,-38,13,1
1528184110310110,7,2,-1,22,-11,15,-34,-7
1528184110311109,8,12,5,17,31,30,17,12
1528184110311109,-5,-10,6,12,-18,-20,14,7
1528184110324073,5,2,-6,-6,24,-4,-32,-12
1528184110324073,2,-7,-3,-17,-31,-6,46,8
1528184110340031,0,4,-8,-5,3,12,11,3
1528184110340031,-3,-1,2,6,-2,-14,-21,1
1528184110347057,-2,-1,-7,-3,-49,-23,-17,4
1528184110347057,1,-7,-2,1,40,16,17,-2
1528184110353995,-5,-6,0,2,14,-19,0,-8
1528184110353995,1,-3,-3,-8,9,14,15,-4
1528184110369951,-2,-8,-6,-2,-34,-23,-19,-1
1528184110369951,-1,1,1,9,21,20,-7,4
1528184110371946,-2,-7,-2,-22,-24,-5,-14,-15
1528184110371946,-2,0,-3,-10,-40,-42,26,5
1528184110383914,-1,-2,-1,21,50,36,15,4
1528184110383914,3,3,1,-21,-1,-18,23,-14
1528184110392890,1,-4,-2,-23,-46,-13,-40,-8
1528184110392890,-2,2,1,21,48,23,2,-5
1528184110406852,-9,-4,3,70,5,-17,-11,-4
1528184110406852,3,4,0,1,-13,-3,-2,8
1528184110413834,-6,-2,-8,-13,-68,-82,-36,24
1528184110413834,5,8,3,-9,84,104,36,-24
1528184110429839,-2,-2,-6,-26,-64,-4,-13,-8
1528184110429839,-4,-5,2,0,11,2,-13,-6
1528184110431786,-1,-5,-4,1,16,-4,-19,-3
1528184110431786,-2,2,-2,-7,-24,-44,7,-3
1528184110452777,6,10,-4,-11,5,-14,-12,-1
1528184110452777,-2,-17,-5,-1,2,14,13,-10
1528184110453773,-4,-2,1,2,2,13,25,3
1528184110453773,2,-1,-1,2,-10,-7,6,22
1528184110466703,-1,-3,0,-10,11,16,64,-26
1528184110466703,0,4,0,-7,-38,-47,-124,-8
1528184110473675,1,-5,-1,19,10,10,50,12
1528184110473675,2,1,-1,-15,27,34,9,-3
1528184110489913,2,2,2,5,18,-4,-4,9
1528184110489913,1,2,-1,2,7,-11,9,6
1528184110491871,0,-2,-3,-8,4,4,3,-18
1528184110491871,-4,4,2,10,-22,-5,-19,0
1528184110512865,-2,1,0,-13,-17,4,-5,5
1528184110512865,-4,-1,-2,-1,20,14,6,-7
1528184110513863,-1,1,0,5,10,10,-9,-2
1528184110513863,-1,0,-4,-11,-25,-29,10,3
1528184110525850,-4,-2,2,19,18,4,-9,8
1528184110525850,-1,-1,-1,13,-15,-2,15,1
1528184110534806,-5,-4,-2,-20,-2,-23,-35,-13
1528184110534806,5,1,-1,-8,7,26,34,15
1528184110549766,-1,0,-1,4,4,20,7,-1
1528184110549766,3,5,2,-13,-4,-9,-4,9
1528184110551760,-1,1,1,-3,-3,7,2,-1
1528184110551760,-3,-3,-1,8,4,-21,-16,-8
1528184110572944,-4,-4,-4,8,0,-12,-9,6
1528184110572944,-2,-1,-3,-7,6,12,14,0
1528184110574699,-2,-3,1,-6,-1,6,-5,-2
1528184110574699,-6,-8,-5,9,-2,-4,-2,-4
1528184110586668,-2,-5,-1,15,6,1,4,0
1528184110586668,-1,-1,-3,-55,-1,-6,-3,1
1528184110594900,-1,-2,-1,53,-4,12,5,-2
1528184110594900,0,2,2,-27,-7,1,-4,-3
1528184110609911,-3,-2,-6,-9,-33,-20,-6,-3
1528184110609911,0,1,4,21,9,0,3,-1
1528184110611858,1,0,-10,-29,-4,17,-1,-2
1528184110611858,-1,-2,12,26,24,-4,2,-1
1528184110633137,-1,-2,-16,77,-3,-6,-4,-1
1528184110633137,2,0,4,15,43,8,7,3
1528184110633848,-6,-8,-11,-15,-28,-8,-3,-6
1528184110633848,0,1,-16,-58,-10,-12,-6,0
1528184110646900,-3,-2,4,-55,-8,0,-3,-2
1528184110646900,4,12,9,90,40,26,8,3
1528184110654743,1,6,20,19,57,17,8,5
1528184110654743,0,2,2,-25,-15,-8,-9,-6
1528184110669702,-2,5,-4,-28,-6,-10,-2,0
1528184110669702,-4,2,-5,-54,-31,-9,-3,-3
1528184110671699,2,12,3,11,14,0,-3,10
1528184110671699,1,9,9,63,-34,-9,-1,-3
1528184110693097,2,8,6,6,33,19,6,5
1528184110693097,-2,-7,-7,23,20,6,4,-4
1528184110693641,-1,-12,-6,-17,-9,4,2,0
1528184110693641,-2,-13,1,35,8,-9,-5,0
1528184110706607,0,-14,-1,-7,-16,-6,-4,-2
1528184110706607,-2,-12,9,-20,-19,-7,-5,-2
1528184110714705,0,-7,-15,-21,-5,-4,5,-7
1528184110714705,-1,-6,-4,-8,-11,5,-28,0
1528184110729680,6,1,3,-13,1,6,9,4
1528184110729680,-5,-5,-6,-16,-21,-19,25,0
1528184110731656,-3,-2,7,20,17,6,-2,0
1528184110731656,0,-9,-5,-9,-8,4,19,-4
1528184110752601,-5,-1,2,-4,21,9,-24,-7
1528184110752601,9,-3,-5,-4,-7,22,-19,-3
1528184110754614,-15,-5,-5,-11,-20,-36,-6,5
1528184110754614,7,-3,-5,-6,-37,20,37,34
1528184110766566,32,3,4,-9,43,6,-26,-20
1528184110766566,-24,0,-1,7,-1,-19,-6,2
1528184110775541,-6,1,1,-1,-17,-10,9,5
1528184110775541,-20,5,-1,-6,22,-17,-41,-14
1528184110790499,-17,3,2,-7,-30,-6,-17,-16
1528184110790499,35,7,-4,-5,-3,39,65,10
1528184110791496,-2,0,0,6,12,25,1,25
1528184110791496,3,6,-4,-3,-7,-23,0,-18
1528184110813660,16,2,-1,-11,-14,-46,-7,-3
1528184110813660,-11,-5,-6,2,-5,-4,-47,-19
1528184110815432,4,1,1,-5,13,16,29,1
1528184110815432,3,-10,-6,-6,-2,-15,-7,-5
1528184110835633,-10,-4,-4,-7,-10,-4,6,6
1528184110835633,-5,-1,-1,-8,9,-24,-22,1
1528184110836377,-3,4,2,4,-9,8,-8,-14
1528184110836377,0,0,3,5,15,16,6,-8
1528184110850349,-4,-4,-1,1,12,2,14,11
1528184110850349,-9,-3,-2,-5,-17,2,-8,4
1528184110851337,13,0,-1,-4,-4,-11,-6,-12
1528184110851337,-2,3,0,-6,4,8,22,2
1528184110872281,-16,-20,0,3,-4,-1,-22,-4
1528184110872281,6,0,-1,0,-6,5,21,15
1528184110874276,2,2,-1,-2,3,-4,-18,-19
1528184110874276,-4,-1,-2,-6,-14,-4,-4,2
1528184110886487,-4,7,0,-2,3,14,10,1
1528184110886487,-1,-4,-1,1,-2,-11,-1,-6
1528184110895219,0,-15,0,-6,-11,0,-4,-1
1528184110895219,-2,1,2,-2,0,-6,-9,9
1528184110910423,3,1,0,12,15,11,26,-2
1528184110910423,-3,0,-3,-11,-6,-8,-18,-4
1528184110912331,-2,2,0,-5,-16,2,3,3
1528184110912331,1,-1,0,27,14,-2,-6,-5
1528184110933231,-6,0,-4,-10,15,-1,3,3
1528184110933231,-2,0,4,33,15,2,4,-1
1528184110934127,2,-1,-7,-24,-18,-6,-6,-3
1528184110934127,3,-2,-3,17,-10,-3,-2,-2
1528184110955315,-2,1,0,16,13,10,4,6
1528184110955315,-8,-8,-12,-78,-84,-25,-10,-6
1528184110957101,0,7,5,53,48,-2,-6,-6
1528184110957101,0,-3,-1,-6,-5,11,-1,1
1528184110978366,-3,-2,-5,7,-25,-9,3,3
1528184110978366,1,1,3,14,35,7,-2,-3
1528184110979008,-1,2,-2,-48,-14,0,1,1
1528184110979008,-1,1,-6,-22,-46,-16,-1,-2
1528184110992201,-2,-1,-9,-48,-45,-14,-5,-2
1528184110992201,-1,4,9,97,78,27,5,-2
1528184111005981,-1,-8,-2,30,-1,5,1,1
1528184111005981,-2,0,3,6,18,6,0,1
1528184111014899,0,7,-1,-24,-10,-7,0,0
1528184111014899,0,8,-2,-20,-29,-9,-6,-3
1528184111016895,2,24,2,20,18,9,2,8
1528184111016895,-3,9,-2,16,21,1,-4,-8
1528184111037837,-2,0,-7,-52,-34,-10,-3,-1
1528184111037837,2,7,-4,-9,11,-3,2,3
1528184111038841,-3,-18,4,25,-23,3,-3,-2
1528184111038841,1,-5,0,-25,17,-7,0,-1
1528184111050804,-2,-12,1,13,18,0,0,-2
1528184111050804,-2,-11,1,4,-10,1,-2,-1
1528184111059781,0,-14,-1,-32,-11,-2,2,-3
1528184111059781,-3,-9,-1,-8,1,-2,-7,-1
1528184111074740,0,-5,0,18,16,14,13,1
1528184111074740,1,-7,0,-25,-35,-15,-21,0
1528184111076735,1,2,1,11,20,5,0,-1
1528184111076735,-3,-2,-2,-5,-6,-5,-6,-1
1528184111097678,0,-5,3,17,0,-2,6,-5
1528184111097678,0,-7,-2,-13,3,-7,-15,13
1528184111098675,-9,-6,-3,-9,-18,-6,2,-14
1528184111098675,6,-3,0,4,18,4,12,4
1528184111120621,2,0,-2,-6,-5,-12,-14,-3
1528184111120621,-12,-9,-1,1,-13,30,41,0
1528184111121615,36,2,-4,-6,18,-13,-38,-1
1528184111121615,9,4,3,-10,-22,4,9,-1
1528184111134634,-23,7,3,12,40,10,-21,-9
1528184111134634,-43,-13,-4,3,6,25,78,-7
1528184111136575,0,13,3,1,-7,-24,-82,29
1528184111136575,5,-5,-10,-13,-11,11,-5,-47
1528184111157573,22,8,-1,3,-39,-5,12,17
1528184111157573,0,13,-3,-10,-14,-69,-49,-12
1528184111159599,-3,-3,-2,-5,6,74,16,4
1528184111159599,-3,-1,1,10,68,1,2,10
1528184111171535,-1,14,5,4,-1,0,-21,9
1528184111171535,10,-7,-4,0,-4,-6,6,-11
1528184111180508,-11,0,-7,-20,-40,-36,-44,-4
1528184111180508,1,4,0,1,-17,-5,5,11
1528184111202452,-11,-10,1,6,4,-1,-1,-25
1528184111202452,15,-1,1,-2,18,13,0,6
1528184111204393,-3,-8,-1,-2,-10,-15,14,-13
1528184111204393,-13,-1,-1,-4,-10,-2,-18,2
1528184111217359,4,-1,-2,2,13,4,46,20
1528184111217359,11,-4,1,-7,-17,-5,-32,0
1528184111219354,-8,4,1,6,12,6,24,-6
1528184111219354,-8,-15,-3,-9,-41,-39,9,0
1528184111231373,4,-8,-1,-1,29,44,23,5
1528184111231373,6,-6,0,4,3,9,-40,-2
1528184111240297,-5,-5,-1,1,15,1,28,-7
1528184111240297,0,3,-1,-2,-19,-18,-7,8
1528184111255291,-4,-9,-4,4,0,-3,-26,-7
1528184111255291,-7,-2,-4,1,8,4,12,-2
1528184111256289,3,8,-2,-6,-6,-9,8,-4
1528184111256289,-1,0,1,-2,-9,10,8,5
1528184111285205,-2,-4,-2,-2,-1,-14,0,-5
1528184111285205,4,14,1,2,8,8,16,-3
1528184111286201,-3,-4,0,-3,-6,-5,-3,0
1528184111286201,0,1,3,4,13,8,1,-4
1528184111291206,-4,-1,0,3,-7,-2,-5,2
1528184111291206,3,0,-1,-5,-6,-1,11,3
1528184111300138,1,2,-3,-10,-8,-11,4,-1
1528184111300138,-3,-2,-4,-14,7,14,0,2
1528184111315151,-1,-11,3,18,-1,-5,-1,-1
1528184111315151,1,-1,-2,21,-2,-10,-12,-1
1528184111317094,-3,-6,0,12,23,5,10,-2
1528184111317094,-4,-1,-4,2,-6,5,-4,2
1528184111337041,-1,2,-9,-82,-46,-45,-11,-5
1528184111337041,3,4,6,45,4,28,-5,0
1528184111339033,-4,1,2,10,40,13,18,1
1528184111339033,-3,-2,-5,-40,-30,-11,-7,-1
1528184111368064,2,5,-3,21,11,-1,-2,-4
1528184111368064,5,7,1,-6,4,-4,3,2
1528184111368064,-6,-8,-1,31,0,-8,-2,-2
1528184111368064,2,2,-3,-53,0,6,0,4
1528184111374997,-6,-3,-7,-15,-43,-7,-7,-5
1528184111374997,-5,5,2,78,54,4,-5,-2
1528184111374997,1,-5,4,4,12,5,6,1
1528184111374997,0,1,5,17,7,2,1,0
1528184111396882,-4,-7,-8,4,-21,-5,-7,-4
1528184111396882,1,1,-4,-59,-45,-6,-1,1
1528184111397877,1,12,2,35,38,5,7,0
1528184111397877,-3,13,-7,-73,-32,0,-7,-3
1528184111419817,4,21,6,38,-30,4,3,2
1528184111419817,-5,4,-3,13,49,-4,-1,-4
1528184111419817,0,3,-5,-7,-36,-10,0,-2
1528184111419817,0,1,-6,-42,-16,-4,-3,-2
1528184111435045,-3,-1,8,10,-9,1,-5,-2
1528184111435045,0,-14,-5,-23,-2,1,2,-1
1528184111435045,-4,-13,-5,-8,-35,-3,-3,-1
1528184111435045,1,-12,4,67,64,13,3,3
1528184111456721,2,-7,-2,-73,-19,-8,-2,-1
1528184111456721,-5,-18,-5,-17,-21,-9,-5,-4
1528184111457715,-2,-5,-1,-5,-5,2,0,-3
1528184111457715,-2,-5,-1,-4,2,-1,-4,-1
1528184111479999,3,-3,0,49,14,9,8,5
1528184111479999,-2,-5,5,-30,12,-12,-7,-11
1528184111479999,-1,1,-5,-3,-5,3,1,0
1528184111479999,-5,-22,0,47,-1,-9,-8,-6
1528184111494861,-2,-14,0,-21,25,9,0,-2
1528184111494861,3,3,-5,-36,-34,-10,-1,1
1528184111495615,-1,3,0,-13,-10,-2,0,-5
1528184111495615,0,1,4,27,16,2,-2,0
1528184111516842,-1,-2,1,4,22,5,8,1
1528184111516842,-3,15,1,0,-15,-7,-20,-2
1528184111517803,-2,-7,-2,-3,6,1,19,4
1528184111517803,4,10,1,8,-8,-6,-46,1
1528184111540012,1,4,-2,4,14,12,44,3
1528184111540012,-10,6,-1,11,-3,-2,-1,6
1528184111540012,3,-3,-2,-19,1,-3,-4,-2
1528184111540012,-2,3,-3,7,-7,5,11,1
1528184111562683,-4,-9,1,16,9,-4,-18,-2
1528184111562683,3,12,1,2,7,3,0,0
1528184111563680,-4,-10,-4,-23,-16,-9,-8,-5
1528184111563680,-10,-8,0,7,-3,-11,-5,-2
1528184111576646,21,12,-3,3,9,8,1,22
1528184111576646,-26,-4,-1,-6,-6,5,2,-28
1528184111577643,-11,-2,-4,-8,-4,-1,-6,1
1528184111577643,2,3,-1,15,1,4,20,3
1528184111600201,-11,1,8,-2,10,-6,-32,-13
1528184111600201,19,-11,2,-3,-4,-4,2,7
1528184111600201,-2,-2,-12,-11,-10,-7,-15,13
1528184111600201,29,28,19,3,-1,-9,10,-3
1528184111614185,18,-27,-60,-4,7,18,26,17
1528184111614185,-18,-7,45,2,-9,0,6,-15
1528184111621835,2,9,0,0,5,2,-7,0
1528184111621835,-8,-5,-15,9,10,-4,1,-2
1528184111644775,16,13,37,-21,-11,-10,-7,-5
1528184111644775,-3,-7,-72,-10,-7,-2,0,7
1528184111645769,-6,2,59,3,-5,-2,9,-7
1528184111645769,9,6,-4,8,-6,-1,-6,3
1528184111660078,-25,-11,-18,10,5,-6,-7,-12
1528184111660078,-4,-6,8,-6,3,4,4,7
1528184111660078,9,6,21,-8,-6,-2,-4,-5
1528184111660078,-1,-4,-17,5,4,4,4,-1
1528184111675698,-13,3,-4,-8,5,3,-5,-8
1528184111675698,7,-5,-2,5,10,-1,4,5
1528184111681673,0,-8,-51,-46,0,1,2,5
1528184111681673,-11,-13,25,14,-22,1,2,-5
1528184111696898,2,10,-9,39,19,-4,-4,-2
1528184111696898,11,4,19,-3,18,4,0,5
1528184111697629,-2,0,-19,38,-29,-6,-1,-3
1528184111697629,-8,-3,17,-38,-5,3,4,-7
1528184111718574,1,5,-3,-41,-32,-5,-8,2
1528184111718574,6,5,-22,46,28,6,-2,2
1528184111727675,1,-6,-38,18,28,3,0,-2
1528184111727675,-8,-12,14,-11,-12,-8,-2,-2
1528184111733536,0,4,25,27,-1,-3,-4,-6
1528184111733536,-1,-5,-18,-44,-9,-2,0,0
1528184111742750,0,0,-6,-37,-15,0,3,-3
1528184111742750,5,8,14,14,6,2,-2,-3
1528184111757807,-6,1,9,35,1,1,-1,-2
1528184111757807,-1,-6,-56,-61,-15,-5,-1,1
1528184111758469,1,1,60,25,-4,-3,-2,-2
1528184111758469,-2,0,-8,22,23,8,3,4
1528184111780151,-5,-4,3,18,-8,-5,-7,-2
1528184111780151,1,-1,-5,26,-14,-5,-2,-1
1528184111780863,2,3,-45,-8,17,4,0,-6
1528184111780863,-2,3,47,-69,-23,-7,-1,0
1528184111794072,-5,4,8,54,8,4,2,-6
1528184111794072,2,-10,-21,-3,-1,0,-2,8
1528184111795866,2,-1,-13,-35,19,-3,-1,-2
1528184111795866,-9,-6,23,100,8,-5,-5,-7
1528184111816755,1,-8,-61,-21,-3,-5,-7,-7
1528184111816755,-5,8,75,-85,-46,-8,-1,-6
1528184111817748,-16,-4,41,123,2,-10,14,-13
1528184111817748,21,8,-21,-73,3,7,-2,18
1528184111839727,3,3,31,60,11,7,11,8
1528184111839727,-3,-10,-33,-57,11,-6,-3,-6
1528184111839727,-1,-9,-58,-93,-24,0,-13,2
1528184111839727,-16,1,74,85,23,-3,-11,-18
1528184111854649,-3,-2,7,88,7,-7,-1,-2
1528184111854649,5,7,8,-53,17,-5,-16,2
1528184111854649,13,15,21,-37,-15,9,-4,16
1528184111854649,-17,-37,-118,-7,10,6,12,-8
1528184111876948,-1,-1,10,27,15,7,2,0
1528184111876948,-8,-5,18,-13,-16,0,-2,-7
1528184111877589,8,15,49,93,13,-5,-6,1
1528184111877589,-2,2,18,-25,-11,-4,-9,0
1528184111900119,1,-5,-6,-42,0,-8,-43,6
1528184111900119,10,1,-6,84,0,13,87,15
1528184111900800,-7,7,66,-35,-12,0,-35,-1
1528184111900800,0,1,-16,-17,-19,-17,-9,0
1528184111914799,-14,-8,-22,-55,23,14,5,-20
1528184111914799,0,1,-6,0,-17,-2,6,-2
1528184111914799,7,-13,-17,16,17,6,16,1
1528184111914799,2,2,-4,29,14,5,16,5
1528184111936742,-2,-4,-12,-60,-15,-13,-20,-1
1528184111936742,6,7,7,18,7,4,-4,2
1528184111937686,-8,-15,2,0,-33,-11,16,2
1528184111937686,-5,-16,-30,-22,2,0,-47,-6
1528184111960188,3,-11,-3,-2,12,-1,27,-2
1528184111960188,6,9,34,44,5,-2,-26,21
1528184111960188,-6,-1,-23,-24,6,-1,-3,-25
1528184111960188,12,16,-3,-13,-28,7,50,72
1528184111974351,-2,9,11,-5,-9,1,16,-16
1528184111974351,-20,-19,-3,23,17,-13,-39,-70
1528184111982090,1,17,-11,1,-13,0,-15,-23
1528184111982090,-4,-22,-21,-20,-38,-19,-21,-68
1528184111997069,-9,13,7,-35,-1,7,-12,-3
1528184111997069,12,3,7,47,78,5,-10,75
1528184112004966,-7,-13,-20,9,5,9,14,-15
1528184112004966,7,4,-42,-92,-41,-16,2,86
1528184112020751,15,8,38,58,33,6,19,33
1528184112020751,-35,10,-9,-3,-36,-17,20,-121
1528184112020751,-8,-57,17,-9,-4,-9,-46,8
1528184112020751,10,25,9,83,74,34,17,-25
1528184112033631,3,-21,-45,-45,-2,-6,-34,28
1528184112033631,20,53,-3,-31,-35,3,23,57
1528184112042186,-1,-42,-8,14,37,1,16,-21
1528184112042186,-14,17,0,-52,-64,-8,15,-13
1528184112057010,1,-23,1,8,-21,5,8,6
1528184112057010,21,-5,1,1,17,-2,-7,61
1528184112057875,-40,-6,4,0,-50,7,22,-56
1528184112057875,14,14,9,8,6,-25,-28,17
1528184112087644,13,-12,12,6,37,9,-7,-18
1528184112087644,-22,-20,0,-5,-32,-25,4,-107
1528184112088314,22,59,-16,-13,-8,-16,-78,-4
1528184112088314,-18,-30,3,10,0,4,-26,11
1528184112094542,-4,14,17,-12,-15,4,2,60
1528184112094542,5,-32,-7,-29,-40,0,-14,79
1528184112095295,-11,-13,-13,-43,-8,5,49,37
1528184112095295,13,24,10,95,94,15,4,-18
1528184112117242,35,17,4,-43,-45,-10,60,55
1528184112117242,-12,2,46,12,-6,7,21,-66
1528184112117242,-11,1,-39,-8,-14,2,-5,-6
1528184112117242,-4,70,21,3,32,1,8,-23
1528184112139403,-10,-107,13,3,-1,-20,-56,-75
1528184112139403,-13,-36,-66,-3,-35,-19,-76,-7
1528184112147396,-13,29,15,-68,-55,-12,13,-19
1528184112147396,-25,-65,-25,22,18,7,1,10
1528184112154141,13,51,-19,-68,-16,2,38,54
1528184112154141,19,88,37,98,91,43,26,2
1528184112155135,37,-64,50,77,42,8,7,31
1528184112155135,-15,-14,-20,-21,-71,-7,-17,-15
1528184112177337,-18,18,-31,-53,20,-3,-4,-45
1528184112177337,-20,-57,-61,-46,-3,10,6,37
1528184112178299,0,53,-6,-7,-5,-10,4,37
1528184112178299,19,-13,-1,-3,48,28,32,-29
1528184112200214,-22,19,10,22,-42,-19,-27,-43
1528184112200214,11,-35,12,35,12,-1,-1,32
1528184112201220,-8,21,-21,-7,13,7,-7,15
1528184112201220,-10,-48,23,-92,-72,-21,35,-13
1528184112214989,11,5,21,99,59,18,2,-18
1528184112214989,26,89,4,10,-10,1,-18,0
1528184112215620,-11,-75,26,1,-11,-22,-39,0
1528184112215620,-18,-29,4,-3,-26,7,27,-6
1528184112236567,-15,6,-44,-84,-80,-7,16,22
1528184112236567,7,18,8,41,66,21,4,8
1528184112237580,24,31,4,17,13,7,43,9
1528184112237580,5,10,-16,-10,-32,-21,-41,0
1528184112260731,-13,-7,33,-33,-76,-13,-18,-6
1528184112260731,-2,-7,7,-4,39,9,22,-7
1528184112260731,19,43,-14,49,40,19,11,25
1528184112260731,13,-47,-19,-13,12,-6,-5,2
1528184112282705,-5,11,34,4,-29,-7,19,-24
1528184112282705,-1,3,-27,-64,5,-19,-55,-2
1528184112283439,1,-8,5,45,-17,8,37,10
1528184112283439,3,32,14,52,52,5,-43,-15
1528184112297704,-3,-3,-33,-10,33,-3,-3,-4
1528184112297704,-26,-38,-12,-28,-115,-15,52,-30
1528184112297704,1,5,43,16,50,14,8,-2
1528184112297704,1,3,-27,-24,-23,-4,-13,8
1528184112319570,5,6,-2,17,18,-14,-13,14
1528184112319570,4,10,12,-16,-18,-10,1,16
1528184112320554,-10,-38,-9,-14,-11,4,-7,-25
1528184112320554,-1,37,31,24,2,4,11,2
1528184112334545,-3,10,-9,-5,29,6,3,17
1528184112334545,3,-8,-11,0,-37,-18,-49,-23
1528184112335543,9,3,11,-17,-8,-5,-18,-7
1528184112335543,-2,19,-29,3,18,0,-7,10
1528184112365704,4,-1,-11,-57,-51,-1,13,-1
1528184112365704,-12,-17,13,37,7,16,15,12
1528184112365704,-8,1,-20,-3,19,-6,-27,-14
1528184112365704,-7,-9,26,-22,10,-2,7,-9
1528184112380396,0,24,6,-18,-24,-11,-53,0
1528184112380396,6,-20,36,82,55,9,43,3
1528184112380396,4,41,-23,-28,-9,-3,11,7
1528184112380396,-4,-27,3,12,-8,-1,1,-5
1528184112394685,-7,7,0,-25,-3,0,-4,-12
1528184112394685,-1,2,5,11,31,-4,-20,-2
1528184112395353,4,8,-8,-44,-48,-13,-7,5
1528184112395353,-3,-14,-10,32,15,8,5,4
1528184112417295,-2,-1,11,21,12,2,6,-3
1528184112417295,-2,0,-12,-43,-22,-5,-12,-8
1528184112418342,-8,-16,-17,-7,-1,-1,5,2
1528184112418342,-1,12,-1,-9,-14,-5,3,2
1528184112440243,1,-15,-6,22,24,-1,-14,-13
1528184112440243,1,-15,-3,-24,-24,-4,-2,16
1528184112441243,-3,0,-2,13,14,-4,11,-6
1528184112441243,6,11,6,-8,-8,10,10,-5
1528184112453217,-8,-14,4,19,7,3,11,-3
1528184112453217,-5,-6,-4,-13,-9,-6,-10,1
1528184112462495,-2,-3,-7,-16,-5,-4,-6,0
1528184112462495,3,12,1,-1,-1,-3,-3,1
1528184112477472,0,-11,-2,21,15,10,9,-2
1528184112477472,-4,0,5,-10,-12,0,6,1
1528184112478132,2,-4,-25,-31,-4,0,-2,0
1528184112478132,-1,10,2,1,-7,-7,-17,1
1528184112508276,-1,-3,6,18,11,3,18,-1
1528184112508276,-6,-4,-8,-23,-12,-3,-2,-7
1528184112508276,19,0,5,-1,3,-3,-14,-5
1528184112508276,-4,-2,-12,-17,-6,-9,11,11
1528184112514297,29,2,-4,10,-10,1,-3,10
1528184112514297,-13,-5,7,-16,16,24,6,-3
1528184112522018,1,-19,-16,0,4,-5,-7,7
1528184112522018,-16,-5,7,35,-2,-14,-50,-24
1528184112537530,1,-3,-33,-58,-6,-2,70,-6
1528184112537530,-12,7,13,52,-13,-13,-48,-10
1528184112537530,56,-2,14,-32,10,5,71,13
1528184112537530,-15,-3,-10,29,-14,-4,-11,-14
1528184112560240,-76,2,39,49,26,-8,-22,-18
1528184112560240,39,0,-10,16,4,9,17,20
1528184112561243,-9,8,1,-9,-12,2,-25,1
1528184112561243,13,-8,-6,-53,-17,-1,27,10
1528184112574343,-60,-19,-18,-13,-19,-24,-17,-8
1528184112574343,28,20,9,10,3,-28,6,-9
1528184112582379,23,-3,35,15,-2,20,28,11
1528184112582379,37,23,-45,-13,42,80,-3,-2
1528184112597555,-8,-16,-13,2,6,5,14,0
1528184112597555,1,11,-8,-22,-8,-20,-2,-1
1528184112598439,-56,2,-7,20,-17,-30,-12,7
1528184112598439,-11,-6,14,-8,-12,-24,1,-7
1528184112620256,25,21,-16,6,-6,-18,-25,12
1528184112620256,8,-10,2,-6,-22,6,-4,-3
1528184112621240,-1,0,-11,2,27,30,2,-3
1528184112621240,22,5,20,-6,-3,1,8,4
1528184112634248,-75,-7,19,35,10,0,-7,-5
1528184112634248,-3,-3,-18,-27,-11,-18,4,-6
1528184112642304,-22,2,6,15,-9,-8,-21,-7
1528184112642304,-12,-8,-14,-3,0,-2,1,5
1528184112657708,65,9,-2,-22,-4,-1,-9,6
1528184112657708,-11,-16,-3,-19,1,11,9,-1
1528184112657708,-26,-8,-8,18,3,5,-14,-12
1528184112657708,17,-3,6,11,-6,-15,5,9
1528184112680638,45,-2,5,-1,0,4,4,-2
1528184112680638,-67,-18,6,15,10,10,-3,6
1528184112680638,-9,1,11,-10,0,-6,-10,-23
1528184112680638,-1,-9,-26,-10,-10,-13,4,2
1528184112694432,2,-2,13,14,2,10,-5,-3
1528184112694432,6,1,7,3,3,4,-2,1
1528184112701667,16,-5,-11,-5,-6,-11,-9,6
1528184112701667,-10,-1,20,6,-4,-4,4,1
1528184112716626,-6,-4,5,-2,9,10,-5,-11
1528184112716626,20,4,-10,-1,0,-1,1,12
1528184112718415,0,0,-2,-6,-9,-6,1,-2
1528184112718415,-11,-5,-3,-12,-1,0,1,-3
1528184112740479,7,-1,-8,3,3,3,-2,-2
1528184112740479,10,3,7,-9,-9,-4,1,-1
1528184112740479,-12,-3,0,6,0,-2,-6,0
1528184112740479,-6,0,10,3,7,0,-1,1
1528184112753822,7,-1,5,3,0,0,-4,0
1528184112753822,-8,-8,7,-9,-4,-3,-1,-7
1528184112762706,2,1,-33,-13,-4,10,-3,-1
1528184112762706,2,1,-3,6,4,3,1,4
1528184112785355,8,-4,-11,6,4,-4,2,-1
1528184112785355,-12,2,29,-2,-1,1,-2,-5
1528184112786544,10,2,-2,-11,-1,-11,-2,4
1528184112786544,-1,-2,7,1,-7,-5,-2,-2
1528184112800323,4,1,-8,5,1,8,-2,0
1528184112800323,6,5,21,50,9,4,2,-2
1528184112801552,-8,-2,11,-29,-2,-3,-2,-1
1528184112801552,-8,-4,-4,-16,-5,-1,1,-2
1528184112822524,6,1,6,-9,-3,1,-1,0
1528184112822524,4,-4,-34,-9,0,-1,0,-1
1528184112823253,-2,2,10,15,-7,-7,-2,0
1528184112823253,-2,-1,2,0,2,0,-9,-1
1528184112837488,7,-2,-26,-18,-7,2,1,2
1528184112837488,-1,-1,9,-1,4,-1,-2,-2
1528184112838451,-2,0,-2,8,1,-26,-9,-3
1528184112838451,0,2,-4,-6,-6,20,-1,1
1528184112860419,1,-3,10,-6,-2,-4,24,3
1528184112860419,1,0,-8,-6,-3,9,-13,-2
1528184112861171,19,0,-8,4,0,0,7,2
1528184112861171,-30,-5,-2,10,1,-17,-7,6
1528184112883276,-54,2,4,-12,-1,-5,-8,-21
1528184112883276,13,-6,-10,-3,-2,3,25,9
1528184112883276,-17,1,20,26,-11,0,-17,-6
1528184112883276,22,1,6,-2,10,-5,6,0
1528184112897438,4,-1,-9,-10,-5,3,-9,-7
1528184112897438,-1,-6,5,-6,-12,-5,-9,10
1528184112898054,15,2,-20,-12,15,10,7,-1
1528184112898054,0,-2,12,8,-5,-4,0,3
1528184112920259,5,0,4,5,1,-2,-6,-1
1528184112920259,-8,-1,-1,-7,-4,-8,-3,-8
1528184112920992,0,-5,3,3,-5,4,3,3
1528184112920992,1,5,-12,-2,-1,-3,-3,-3
1528184112950236,10,0,33,18,0,-2,-7,4
1528184112950236,-8,-3,-27,-21,-1,6,21,-3
1528184112951236,1,2,-1,-15,1,5,-9,0
1528184112951236,-10,-4,-20,-17,0,-7,5,-5
1528184112957216,8,-1,-4,0,-8,-2,12,3
1528184112957216,4,5,12,14,11,-2,-26,1
1528184112957216,-8,-4,-2,0,0,3,23,-4
1528184112957216,8,5,2,3,2,-2,-6,0
1528184112980403,11,-6,-2,7,1,-5,-19,6
1528184112980403,12,14,1,-11,-2,11,23,9
1528184112981323,-22,-4,-7,-1,-2,-5,-11,-18
1528184112981323,-29,-4,1,-3,-5,-9,8,-5
1528184113003313,19,-2,-5,-9,0,1,-10,3
1528184113003313,-1,-5,-7,-3,-2,5,-9,-2
1528184113004264,3,0,-2,-2,-4,0,-6,4
1528184113004264,21,3,22,25,4,1,8,1
1528184113016494,7,-1,3,8,2,-4,-5,-2
1528184113016494,-24,-7,-31,-26,-4,-9,-6,-9
1528184113025208,-5,0,30,15,-2,6,11,-5
1528184113025208,10,-12,-58,-35,-4,-2,-9,17
1528184113040168,-1,3,4,3,-2,0,8,2
1528184113040168,-2,0,4,2,1,-4,-10,-9
1528184113041165,0,-2,-7,7,2,-3,-19,-1
1528184113041165,-5,3,8,2,-17,0,21,-6
1528184113062109,9,-7,-2,-1,17,3,-1,5
1528184113062109,-1,5,4,6,-13,-3,-24,-5
1528184113064150,-12,-3,-4,-13,7,-6,4,5
1528184113064150,12,-7,15,5,1,14,8,-2
1528184113077087,-7,1,-10,1,-2,5,18,2
1528184113077087,9,-3,2,-4,3,-9,-4,-5
1528184113085299,35,1,-4,0,-7,-5,-27,13
1528184113085299,-27,3,9,2,4,5,35,-20
1528184113100094,-5,-2,-16,-1,-4,-2,-9,-6
1528184113100094,-10,-5,8,-10,-2,-1,2,-3
1528184113102003,13,-4,-36,-9,0,-1,-17,2
1528184113102003,4,-4,14,6,-4,-5,-11,1
1528184113123003,-8,-4,-11,-1,-7,-1,-5,-3
1528184113123003,1,2,7,8,2,-4,0,3
1528184113124140,-6,-4,0,-3,0,9,26,4
1528184113124140,4,-1,3,-3,4,-1,-14,-4
1528184113136174,-9,10,10,4,-6,-2,2,1
1528184113136174,21,-3,-9,-4,0,-6,-13,-1
1528184113145111,-61,-6,6,-1,1,5,19,-8
1528184113145111,1,5,-7,-7,-1,-6,-7,6
1528184113159849,26,-4,32,-6,2,1,-32,6
1528184113159849,29,-4,-16,1,-4,-5,38,3
1528184113161843,-63,-2,10,5,-3,0,-12,-19
1528184113161843,5,0,2,20,1,-5,-29,-4
1528184113183101,-12,4,-10,-10,-1,6,31,1
1528184113183101,-19,-6,13,5,3,6,11,7
1528184113183785,25,5,4,-2,0,-5,-7,1
1528184113183785,-5,2,-11,-5,0,-5,-23,0
1528184113196815,-5,-3,7,1,0,-7,-2,-8
1528184113196815,-18,-3,-6,-2,-1,0,-1,-1
1528184113205447,31,8,-2,4,-3,-2,3,4
1528184113205447,-6,-5,-9,-6,-3,-2,-4,-3
1528184113227689,-4,-1,-6,5,1,2,8,-1
1528184113227689,-1,-2,-6,-7,-2,0,-3,-5
1528184113229382,-1,0,-6,-1,-3,-5,-3,-3
1528184113229382,18,-3,11,-1,2,0,-27,0
1528184113242607,1,-5,-11,-3,-3,1,35,2
1528184113242607,-7,-3,4,4,0,3,-5,-1
1528184113244348,31,-1,2,15,0,-6,-2,-6
1528184113244348,-33,-5,-1,-14,-4,2,29,6
1528184113256309,-40,-1,4,-15,-5,-7,-44,-12
1528184113256309,-36,-3,-11,1,0,0,4,4
1528184113265288,49,12,-5,-5,-2,0,3,6
1528184113265288,-23,-1,-2,9,0,-3,6,-25
1528184113280595,19,0,-8,-3,-2,-6,-10,3
1528184113280595,21,-1,5,-1,0,-1,-6,1
1528184113282412,-14,-2,-3,-2,-1,0,-11,2
1528184113282412,6,-4,-2,-1,-2,2,14,8
1528184113303776,-9,0,4,2,1,0,-3,-2
1528184113303776,5,1,-6,-1,-1,4,6,-1
1528184113309241,-3,-6,2,-1,-2,-4,-5,0
1528184113309241,7,3,4,-3,0,0,-1,1
1528184113316200,-3,-3,-11,1,1,-1,-9,-5
1528184113316200,-6,1,8,4,-1,-4,-4,-4
1528184113325108,-1,-5,-1,-7,0,2,11,-1
1528184113325108,-2,1,1,0,0,-2,-7,-1
1528184113339794,4,-6,-5,1,-2,0,9,1
1528184113339794,3,-1,-8,-4,0,-4,-7,-4
1528184113341790,-14,-5,1,-2,0,2,10,2
1528184113341790,10,7,-2,1,-1,0,5,3
1528184113362978,3,0,0,3,0,-2,-28,-3
1528184113362978,-1,-1,-1,-3,0,-4,0,-5
1528184113364849,15,4,-1,-3,1,0,-16,1
1528184113364849,-2,-3,-2,-2,-2,2,18,-1
1528184113376930,-1,-3,-5,-4,-2,-1,12,-1
1528184113376930,-10,0,1,4,-1,-6,-30,-4
1528184113386700,-5,-1,1,-1,-1,0,1,2
1528184113386700,17,-1,2,3,0,-1,-4,13
1528184113399885,-17,2,-7,-3,0,2,9,-21
1528184113399885,16,-3,1,-1,1,3,1,4
1528184113401629,-4,-10,-4,-3,-5,-3,2,-6
1528184113401629,-3,-1,-3,1,0,1,-2,2
1528184113422814,8,3,2,1,0,-4,-7,7
1528184113422814,-3,1,1,-1,0,-3,-7,-4
1528184113424568,-7,-2,0,3,0,5,25,1
1528184113424568,-4,-4,0,-7,-2,-3,-2,-6
1528184113436882,1,-3,-8,2,-3,-2,-17,2
1528184113436882,-5,1,0,-1,-3,-4,16,-3
1528184113445518,7,2,-5,-2,0,3,20,7
1528184113445518,-3,-2,5,5,2,-3,-42,-5
1528184113459729,6,-2,-1,-3,-2,-3,9,1
1528184113459729,2,2,-1,-1,-2,6,20,3
1528184113466608,-22,-4,1,1,-1,-1,-5,-2
1528184113466608,20,5,-5,-2,-2,-2,2,-1
1528184113482413,15,2,4,2,0,-1,3,4
1528184113482413,-21,-3,-4,-3,-3,-5,-13,-11
1528184113484408,-13,-5,-2,-7,-4,-6,-17,-4
1528184113484408,-8,-5,-3,1,-1,4,30,1
1528184113505354,4,2,0,-1,-3,0,-6,1
1528184113505354,7,0,-1,-2,-1,0,-1,0
1528184113506548,-2,0,0,0,0,-3,-13,-2
1528184113506548,-1,-5,0,-3,-1,-4,3,-3
1528184113520552,-1,-2,0,0,-1,-1,-6,1
1528184113520552,3,-1,0,-1,1,4,15,3
1528184113521495,1,1,-4,-2,-1,-4,-15,-2
1528184113521495,-7,2,-3,2,1,-1,5,2
1528184113542494,-7,-5,0,0,0,4,18,2
1528184113542494,5,-7,-2,0,-1,-3,-16,-4
1528184113544248,2,9,-1,-3,-1,-5,4,-5
1528184113544248,-11,-3,-1,0,-2,-4,-6,0
1528184113556220,0,-4,1,2,0,-2,-13,-2
1528184113556220,-2,-2,0,-1,-1,0,7,4
1528184113565192,17,0,1,2,0,2,-5,-4
1528184113565192,11,5,-5,-4,-3,-4,-14,-8
1528184113580169,-11,-3,2,-2,1,2,10,11
1528184113580169,-7,2,2,5,1,2,10,-7
1528184113582165,-4,-4,-2,-2,-3,-1,4,2
1528184113582165,-5,-3,-3,-2,-1,-5,-18,-4
1528184113603301,10,2,1,-1,-1,1,6,5
1528184113603301,3,-2,-1,-4,0,-1,0,0
1528184113604089,-8,-3,-2,-4,-2,-1,11,-2
1528184113604089,5,-3,0,-1,0,-2,-9,1
1528184113616379,-6,-2,-2,0,-1,-2,-11,-5
1528184113616379,-1,2,-2,-4,-1,-6,-16,0
1528184113625033,-4,-3,-2,1,0,1,-4,-2
1528184113625033,-8,0,-2,-2,-3,2,9,1
1528184113640103,0,1,-2,-1,-1,-2,2,-6
1528184113640103,-4,0,-3,0,-3,-1,-22,-5
1528184113641987,1,-1,-1,1,0,-2,-13,2
1528184113641987,-2,-3,0,0,-1,1,-3,2
