timestamp,emg1,emg2,emg3,emg4,emg5,emg6,emg7,emg8
1528878764186029,0,-3,0,0,-3,-2,1,2
1528878764186029,-2,-1,-1,-2,0,-1,-1,-1
1528878764187027,-2,-3,-1,-1,-2,-1,-1,-1
1528878764187027,0,0,0,-1,-1,-2,-1,1
1528878764188024,-1,-1,-1,-2,-1,0,-2,-1
1528878764188024,0,0,0,0,-2,-2,0,0
1528878764192014,0,-1,0,-3,0,-2,-1,-1
1528878764192014,-3,-3,-2,-1,0,0,-2,-2
1528878764195007,0,0,-2,1,0,0,0,-1
1528878764195007,-1,-1,-1,-1,-2,0,-1,-1
1528878764206008,-1,-1,-3,-2,-3,-1,-1,0
1528878764206008,-1,-2,-1,-3,-4,-4,-2,-3
1528878764213955,3,1,0,5,5,1,1,2
1528878764213955,0,1,0,1,0,0,0,-1
1528878764228915,-3,-1,1,3,1,0,-1,-2
1528878764228915,0,6,3,0,-5,-3,-4,-2
1528878764234899,-4,-10,-9,-10,-15,-2,5,-3
1528878764234899,0,-2,0,1,10,0,-5,-3
1528878764249860,1,-8,-12,-3,1,4,5,4
1528878764249860,-3,-6,2,-5,-3,-4,4,-1
1528878764266814,-6,3,-2,1,6,10,1,-8
1528878764266814,-2,2,3,3,-7,-4,-13,-3
1528878764273795,5,2,0,-7,-4,-7,-3,2
1528878764273795,-2,0,-1,0,0,5,5,0
1528878764315683,-1,-1,1,2,4,-4,-42,-1
1528878764315683,-3,-5,-5,-8,-5,1,30,1
1528878764327651,-1,-3,-5,-6,-5,-7,0,0
1528878764327651,2,2,1,-1,-5,-1,6,2
1528878764328649,-6,-6,-3,4,8,7,4,2
1528878764328649,4,4,-1,-3,1,-3,-2,-3
1528878764329646,1,6,9,9,2,-5,-17,0
1528878764329646,-4,-9,-11,-7,-1,-10,8,-3
1528878764330643,0,-1,2,-5,-13,-7,8,-1
1528878764330643,-6,-10,-12,-3,-14,22,2,-7
1528878764335631,-1,-2,-7,-7,20,-6,-47,4
1528878764335631,2,5,5,-1,-3,8,30,0
1528878764339620,-1,2,2,3,-3,-18,-11,-2
1528878764339620,1,3,7,22,25,24,8,5
1528878764355619,-5,-2,2,-2,-9,-14,-18,-5
1528878764355619,-6,-5,-8,1,-2,6,13,-3
1528878764363555,1,4,-4,-15,-13,7,-1,-1
1528878764363555,0,2,2,-2,-13,-21,-7,-1
1528878764386496,-2,-9,-4,9,7,6,0,-3
1528878764386496,2,4,4,-12,6,3,11,2
1528878764387491,-2,-1,2,13,2,-3,17,-3
1528878764387491,-1,3,3,-8,-24,-19,-10,-3
1528878764400458,0,4,-4,-4,18,21,14,1
1528878764400458,1,-1,-1,0,-5,-16,-12,-3
1528878764401455,-4,-6,-3,-11,-1,10,-5,-3
1528878764401455,-4,-3,1,-2,-4,-5,0,0
1528878764424407,0,-2,-1,-6,-40,-24,5,-1
1528878764424407,-2,0,2,6,24,13,3,-2
1528878764424407,2,1,-1,8,16,28,14,2
1528878764424407,-2,0,-3,4,11,-12,-23,1
1528878764446334,-2,1,-5,-9,-16,-5,9,-3
1528878764446334,-4,-5,2,12,12,-4,-30,-3
1528878764447332,1,0,-3,-4,-8,-8,11,0
1528878764447332,-1,-1,-5,-8,-4,1,-2,-1
1528878764461321,1,-7,-3,-8,-2,-9,-5,0
1528878764461321,-2,0,-1,0,-15,15,11,-2
1528878764461321,0,-1,-1,4,13,2,-4,1
1528878764461321,3,-2,1,6,13,0,1,3
1528878764484234,-3,2,-3,-4,-1,3,13,-3
1528878764484234,3,0,-2,-10,-18,-4,-10,4
1528878764485231,-2,-4,-2,-7,-8,-21,-24,-3
1528878764485231,-3,2,11,0,3,14,17,3
1528878764506208,0,-4,-8,13,8,-15,-6,-10
1528878764506208,-1,2,0,1,-2,-2,0,-3
1528878764507172,-3,-7,-15,-12,-7,25,38,-11
1528878764507172,-1,-8,-12,-5,-7,-22,-24,-10
1528878764521134,0,7,18,1,2,6,10,4
1528878764521134,-1,-2,0,2,-6,-6,-9,-3
1528878764521134,-1,0,6,5,7,-13,-4,1
1528878764521134,4,5,-12,3,2,-2,-7,2
1528878764544072,-5,-8,8,-10,2,18,21,-3
1528878764544072,0,7,50,4,-5,-13,-16,0
1528878764545069,0,7,25,3,-8,-1,-4,2
1528878764545069,0,-3,-8,5,5,5,3,-1
1528878764566013,0,-3,-39,-3,1,5,-4,3
1528878764566013,-7,-15,-59,-18,-6,-7,-8,-3
1528878764567011,-1,4,8,5,-1,-10,-10,-2
1528878764567011,0,-3,14,-1,-9,7,7,0
1528878764580973,1,-5,-8,-20,5,-1,0,1
1528878764580973,0,-1,-2,16,9,3,-2,1
1528878764581971,2,1,-23,-20,-13,-1,8,2
1528878764581971,-2,0,0,6,3,0,-4,0
1528878764603941,1,3,-6,19,-6,-1,3,2
1528878764603941,0,-2,5,-15,0,-3,-5,1
1528878764604945,-2,-2,-4,-11,4,-4,-6,-1
1528878764604945,2,15,23,16,8,1,6,-1
1528878764626890,-3,-15,8,0,-8,-2,-9,-1
1528878764626890,-2,-6,-14,23,8,1,3,2
1528878764626890,-4,-9,3,-20,-9,-10,-7,-6
1528878764626890,1,1,-15,-20,-11,-4,0,3
1528878764640846,0,8,15,22,19,10,14,-1
1528878764640846,2,4,6,14,-1,-7,-14,0
1528878764641812,1,-6,-5,-3,-5,0,20,1
1528878764641812,-4,0,7,15,1,-6,-38,-9
1528878764663807,0,4,1,-40,-16,-4,-2,-1
1528878764663807,0,-2,4,24,7,4,4,-7
1528878764664751,1,2,-13,16,20,-9,-16,6
1528878764664751,-2,-7,-3,-4,10,8,21,0
1528878764686744,0,5,12,11,-9,0,5,3
1528878764686744,-1,4,-1,-26,-15,-7,-21,5
1528878764687751,6,7,0,-18,-10,-1,1,-6
1528878764687751,-6,-15,0,-5,-13,-5,-5,-2
1528878764700696,2,7,-2,13,-19,-6,-6,-3
1528878764700696,-10,-26,-20,-27,33,4,13,-5
1528878764701652,6,54,37,21,-76,-10,-5,5
1528878764701652,-3,-22,-86,-112,28,0,1,-3
1528878764723592,-15,-37,26,109,33,5,-5,-9
1528878764723592,3,-8,-6,74,-23,-3,3,6
1528878764724590,4,34,14,25,-9,-7,-4,0
1528878764724590,-5,13,-77,-53,26,1,-5,-4
1528878764746533,5,50,28,24,-5,3,7,5
1528878764746533,-14,-66,-28,-47,-32,-14,-23,-10
1528878764747556,0,-4,-17,33,-5,1,-3,0
1528878764747556,9,57,21,-49,-56,-8,3,0
1528878764760494,5,-12,-2,-25,-18,0,0,1
1528878764760494,-1,13,64,46,50,11,9,-1
1528878764769470,-6,-26,-57,-65,21,7,-3,-3
1528878764769470,-1,0,26,57,-56,-2,1,0
1528878764783435,5,-23,17,-24,32,10,4,5
1528878764783435,7,46,23,-71,-28,1,5,5
1528878764790461,-5,-6,-4,25,15,-1,-5,-8
1528878764790461,-5,-43,11,6,-1,-4,-4,-2
1528878764806409,-1,19,-18,-6,-7,-3,-4,-3
1528878764806409,4,22,7,-20,-18,-12,-4,-4
1528878764808366,-2,-22,9,-10,25,18,6,9
1528878764808366,1,11,23,51,20,0,-2,0
1528878764820387,0,3,-3,-17,-12,-9,-2,-5
1528878764820387,0,-8,-28,-8,5,2,0,-2
1528878764829364,-3,-11,12,7,10,4,-1,-1
1528878764829364,-4,-7,24,31,11,6,-11,-2
1528878764844311,-2,-3,-21,-28,-9,-9,5,1
1528878764844311,0,1,-10,-6,-2,8,11,0
1528878764845267,-4,-3,4,17,9,-9,-12,-6
1528878764845267,-2,-2,12,4,-1,-8,2,0
1528878764866239,-2,-7,-8,-19,0,-8,-1,-1
1528878764866239,1,11,-3,15,0,7,-1,0
1528878764868207,-6,-13,4,-5,-3,-6,1,-4
1528878764868207,-4,-11,3,-5,-1,1,-1,0
1528878764880211,-2,-4,6,-16,-2,-4,-3,-2
1528878764880211,-1,2,-23,6,6,-5,-5,-3
1528878764889152,-1,-2,1,14,16,6,2,1
1528878764889152,1,-3,6,1,-7,-10,4,3
1528878764904146,-5,0,-4,-8,-3,3,-7,-4
1528878764904146,0,5,1,-13,-12,1,4,0
1528878764905149,0,-5,0,-14,-7,-6,0,0
1528878764905149,1,4,2,10,7,0,-1,0
1528878764927049,-2,3,-1,10,1,5,3,-1
1528878764927049,0,-1,0,0,0,1,-1,0
1528878764928047,-1,-3,-4,-7,-5,-2,-1,-1
1528878764928047,3,3,14,16,10,5,4,2
1528878764940014,-6,-7,-20,-14,-6,-1,-5,-4
1528878764940014,-2,1,-4,0,-2,-4,-4,-2
1528878764948991,-1,1,6,1,5,5,3,0
1528878764948991,1,0,6,3,-3,-2,1,0
1528878764963213,-2,0,7,1,9,3,-1,-3
1528878764963213,-3,-2,-2,-1,-4,-5,-3,0
1528878764970203,-1,1,0,-3,-12,-6,-2,-1
1528878764970203,-5,-3,-5,7,2,3,2,-1
1528878764986153,2,1,-3,10,15,5,6,2
1528878764986153,-1,-1,10,-6,-5,-1,-3,-3
1528878764988105,-3,-2,-3,-7,-3,-4,-4,-2
1528878764988105,-3,-4,-7,-8,-9,-3,-2,-2
1528878765000067,0,2,5,6,-1,-3,-2,1
1528878765000067,0,-2,2,8,-1,1,1,0
1528878765009041,-4,-4,-2,12,8,4,2,0
1528878765009041,-1,-1,-6,-7,-4,-2,-3,0
1528878765023004,-4,-14,-3,-1,-2,1,1,-1
1528878765023004,2,4,-7,-9,0,-5,-6,-1
1528878765030024,1,2,0,0,8,3,7,0
1528878765030024,-1,-4,12,5,0,1,2,-4
1528878765046941,1,-2,-3,-13,-11,-3,-2,8
1528878765046941,-2,-4,-4,-2,2,-2,7,-1
1528878765047938,-2,-2,-14,-5,-4,-7,-31,-5
1528878765047938,3,5,-4,-1,3,-1,0,-3
1528878765059948,0,2,7,-4,-6,0,3,-3
1528878765059948,-3,-9,-3,4,3,3,3,0
1528878765068882,-1,2,13,-11,-12,-1,6,-2
1528878765068882,5,-3,0,9,14,0,1,1
1528878765082859,-9,3,-7,10,-3,-3,-6,-1
1528878765082859,0,-4,-9,-2,2,1,1,2
1528878765089837,-1,-5,-5,8,4,-2,4,-1
1528878765089837,-1,1,23,-1,-14,-2,-6,-2
1528878765106781,-1,4,-23,-22,-2,-2,-4,-2
1528878765106781,-6,-7,15,-10,-18,-4,1,-6
1528878765107778,-1,-4,-7,13,34,8,5,3
1528878765107778,13,5,-1,-7,-7,0,-5,-1
1528878765119751,-9,-4,0,12,-2,-5,-15,-7
1528878765119751,-2,3,-3,-3,-7,-4,-1,-1
1528878765128750,-7,-1,-7,-5,-9,-1,4,-1
1528878765128750,4,-9,-12,-9,2,2,8,3
1528878765143681,-6,-6,8,-6,0,-4,-11,3
1528878765143681,5,7,12,2,-5,-4,-7,1
1528878765150667,4,-5,-21,-9,-13,-4,1,1
1528878765150667,7,3,-2,7,20,5,2,-4
1528878765166620,-24,-2,4,0,-10,-1,9,-5
1528878765166620,12,3,16,12,11,1,-13,1
1528878765167620,2,-2,-11,-20,-8,-2,-2,-3
1528878765167620,-4,5,-8,11,-1,-4,-3,-5
1528878765189562,2,-7,-13,-7,-12,-3,4,0
1528878765189562,0,2,-7,-2,20,3,5,1
1528878765190557,-2,-5,7,-5,-7,-1,8,-12
1528878765190557,-24,-8,-2,3,-5,-3,-24,-1
1528878765203568,28,2,-3,3,3,-1,15,19
1528878765203568,-4,2,5,1,-6,-1,8,9
1528878765210510,6,-3,-13,-11,-1,-4,-3,-4
1528878765210510,-8,-3,3,2,0,-5,-8,-13
1528878765226462,9,5,11,7,-1,4,0,-7
1528878765226462,20,0,-23,-21,-4,6,5,6
1528878765228485,-21,-7,12,9,2,-1,1,-3
1528878765228485,4,0,-10,-14,-8,-2,1,-2
1528878765249435,-22,-3,5,-1,-4,-3,-6,-5
1528878765249435,5,-8,-11,-13,-3,-5,-4,-7
1528878765250406,0,7,36,40,5,1,-3,3
1528878765250406,-2,1,-38,-35,3,-4,1,0
1528878765263416,10,-1,8,7,-3,0,1,-3
1528878765263416,-25,-3,-10,-4,-3,-2,-4,-5
1528878765270398,10,-1,2,-8,-8,-7,-7,2
1528878765270398,-6,-3,19,23,13,3,8,4
1528878765294325,3,-1,-5,-5,0,0,-3,-3
1528878765294325,1,-2,-11,-6,-8,-4,-14,-6
1528878765295277,-1,3,-2,2,2,0,3,3
1528878765295277,1,-7,2,-1,1,-4,-6,-1
1528878765309287,-4,-3,-6,0,1,0,-2,-4
1528878765309287,3,1,4,6,-4,2,3,-1
1528878765310264,12,0,3,4,-5,-2,-3,-14
1528878765310264,-29,-3,-9,-4,-10,-7,-14,15
1528878765331202,3,5,-4,-11,4,0,1,-5
1528878765331202,-6,-3,15,11,1,-3,-2,-5
1528878765333177,2,-4,-9,-12,-1,6,6,3
1528878765333177,3,2,2,-2,-8,-4,4,-7
1528878765345191,-1,-1,1,16,-3,-3,-6,-1
1528878765345191,-5,-2,-9,-11,6,-2,-3,-2
1528878765354133,3,4,13,-7,-3,-2,-6,1
1528878765354133,6,1,6,8,1,1,10,1
1528878765369136,-4,-1,-6,-1,-3,-9,-17,-4
1528878765369136,6,3,4,13,-2,22,12,3
1528878765371073,-8,-1,-9,-10,0,1,0,3
1528878765371073,-1,-5,0,-1,3,6,6,2
1528878765391072,6,-2,-7,0,-2,-5,2,-2
1528878765391072,-4,-1,0,4,-3,-6,2,3
1528878765393016,-12,3,-1,-1,-2,1,-4,4
1528878765393016,4,-1,-4,-3,-3,1,6,-4
1528878765406028,4,10,7,3,3,-6,-14,-5
1528878765406028,-2,4,20,11,3,10,7,9
1528878765413962,2,-4,-42,-33,-10,-5,1,0
1528878765413962,1,-3,11,11,2,-4,-6,-2
1528878765428973,0,1,3,-3,1,4,11,1
1528878765428973,22,-3,-8,1,-3,-6,-4,3
1528878765430968,-35,-1,14,5,-6,-7,-7,-2
1528878765430968,2,0,2,11,5,7,12,1
1528878765451884,1,1,-17,-26,-6,-1,-2,-3
1528878765451884,-6,-1,6,11,3,-8,-6,-10
1528878765452856,12,2,-2,-7,-8,-16,-15,1
1528878765452856,1,-3,-1,-2,1,12,13,2
1528878765464883,3,-6,-1,2,1,7,6,6
1528878765464883,0,3,10,17,2,-2,-13,0
1528878765473799,-1,-6,-19,-24,-5,4,8,-4
1528878765473799,-4,3,5,1,-10,-2,4,-3
1528878765496798,1,-7,-7,-10,0,-2,2,1
1528878765496798,-8,-7,7,8,1,-6,4,-6
1528878765497765,7,5,9,15,1,-3,-11,0
1528878765497765,-5,12,-1,-7,-2,-11,-1,-21
1528878765511748,1,-6,3,15,1,12,17,12
1528878765511748,-15,-33,-41,-42,-15,-30,-30,-12
1528878765512711,-5,0,4,9,4,23,9,26
1528878765512711,32,-5,-8,-6,-4,-8,-12,0
1528878765524663,-30,30,20,18,13,24,7,-3
1528878765524663,-2,-21,0,-6,-4,-10,-29,-8
1528878765533640,5,-8,11,15,1,-3,12,-5
1528878765533640,-13,-36,-26,-25,-8,-41,-34,-4
1528878765548739,8,30,10,0,1,30,30,1
1528878765548739,2,20,3,-13,-24,-17,-8,-5
1528878765555668,4,-11,4,33,38,18,9,-3
1528878765555668,2,-1,5,17,4,7,-11,2
1528878765571538,-5,-35,-30,-17,-5,-34,-13,-10
1528878765571538,-6,12,4,5,-1,9,22,6
1528878765572536,2,6,1,-10,-19,-15,-11,-6
1528878765572536,-7,1,-16,-26,12,16,13,4
1528878765585501,4,-1,15,6,1,-18,-6,-3
1528878765585501,-5,-5,-3,11,7,15,13,5
1528878765594494,2,5,2,2,-15,-7,-13,-3
1528878765594494,-1,7,3,-4,-4,-1,-6,-1
1528878765608440,-1,-7,-2,4,-2,-5,-11,1
1528878765608440,1,-2,-7,-14,1,4,9,1
1528878765615664,-13,3,-1,13,6,-2,3,-5
1528878765615664,1,8,4,-15,-6,2,2,-8
1528878765638696,-11,-13,9,-11,-12,-3,-5,8
1528878765638696,3,19,-2,23,8,7,10,1
1528878765640547,0,6,2,-11,-4,-6,-14,-2
1528878765640547,-9,-4,-10,-33,-14,3,-1,2
1528878765645681,10,-21,-13,9,0,1,-5,-6
1528878765645681,3,1,-4,-4,0,-2,-7,-1
1528878765654677,1,6,15,33,-6,-3,5,-2
1528878765654677,-1,-4,0,-41,-4,4,8,1
1528878765668610,0,-9,14,41,-5,-6,-9,-5
1528878765668610,-3,12,-26,-13,25,7,6,3
1528878765675651,2,-35,-22,3,2,0,13,6
1528878765675651,2,19,28,26,0,-4,-30,-2
1528878765691563,6,-20,-15,-36,-11,-7,-7,-5
1528878765691563,-9,3,15,-15,0,2,0,-1
1528878765692584,1,3,2,21,12,5,5,-6
1528878765692584,3,2,-6,17,0,1,8,8
1528878765714863,0,14,5,-9,2,1,-4,0
1528878765714863,-3,-4,3,3,-9,-5,-6,-6
1528878765715842,-3,-2,-13,-41,-10,-3,-1,-9
1528878765715842,4,-6,3,20,-2,2,11,7
1528878765728820,7,15,-3,-1,2,-1,-4,16
1528878765728820,-5,-9,16,0,-4,0,4,-3
1528878765735677,-5,-3,-11,-10,-1,0,-1,-2
1528878765735677,-4,2,6,19,2,-1,3,-7
1528878765751603,-2,1,-8,2,-6,-3,0,-4
1528878765751603,1,-5,-3,-21,0,-3,-1,-1
1528878765752708,1,7,12,0,3,0,-5,4
1528878765752708,0,1,11,36,0,3,2,-4
1528878765773908,-13,-7,-28,-40,-1,1,-2,-1
1528878765773908,4,-6,-5,0,-5,-5,-5,-1
1528878765775741,0,6,0,-11,-5,-4,-5,-5
1528878765775741,-4,-4,-2,-1,-5,-1,-1,2
1528878765787866,-1,0,13,10,2,2,5,-2
1528878765787866,-2,-3,-11,5,-5,1,2,-3
1528878765802985,-5,1,-1,-17,-4,-1,1,1
1528878765802985,2,-9,-12,-1,1,-3,0,3
1528878765811067,0,-2,12,4,4,0,2,-4
1528878765811067,-4,-5,-9,-5,-3,-6,-13,-5
1528878765813064,8,-5,6,10,2,6,11,5
1528878765813064,-6,0,-2,-14,-4,1,6,1
1528878765834007,1,-4,-9,-12,3,-2,0,0
1528878765834007,-13,1,1,11,-1,-3,7,-23
1528878765836154,12,4,4,0,-4,-15,-25,18
1528878765836154,0,-11,1,8,2,-7,-7,-16
1528878765848114,-7,-3,-19,-20,-1,15,2,11
1528878765848114,8,5,5,2,-1,-17,-39,-10
1528878765856947,2,6,-2,-6,-2,20,37,14
1528878765856947,-4,6,2,4,4,-8,-5,6
1528878765872006,15,6,12,13,-1,-6,-8,4
1528878765872006,-12,-12,0,8,0,7,-6,-5
1528878765872914,-18,-9,-9,-14,-6,-29,-42,-11
1528878765872914,-1,1,-5,-3,-2,36,72,11
1528878765894004,-12,-2,-6,-3,-1,-12,-38,-5
1528878765894004,0,16,12,2,0,14,15,7
1528878765895843,2,12,3,8,2,19,32,-13
1528878765895843,-7,-21,-12,-6,-2,-21,-47,-5
1528878765907967,15,0,-3,8,2,-19,15,17
1528878765907967,1,3,1,-6,-7,13,27,7
1528878765916276,-3,-9,-7,-26,-15,-18,-30,-15
1528878765916276,-4,-4,5,39,30,9,5,-6
1528878765931322,1,6,-10,-34,-17,2,5,-13
1528878765931322,3,-3,3,7,6,-15,-18,11
1528878765933169,1,3,3,-8,-7,5,17,-2
1528878765933169,2,8,7,0,-7,0,-6,4
1528878765953294,-6,-6,4,10,2,-2,-6,-7
1528878765953294,2,-2,-5,-6,-3,5,19,6
1528878765961373,2,-5,5,16,6,2,-4,-2
1528878765961373,2,-4,-7,-17,-1,-1,-3,-4
1528878765967455,-4,2,5,-2,-3,-10,-2,-6
1528878765967455,-1,0,-9,-9,-3,-3,-2,-2
1528878765976440,7,-2,-3,10,7,7,-12,-2
1528878765976440,1,-4,0,-17,-3,-8,-4,3
1528878765991546,1,8,6,10,4,16,19,-4
1528878765991546,0,-12,-3,6,-2,-6,1,4
1528878765993384,-1,-7,4,3,6,-8,-5,3
1528878765993384,-2,6,-11,-12,-12,2,-9,-7
1528878766014487,5,-3,-3,1,3,1,-2,-7
1528878766014487,4,-7,1,-4,-2,-1,3,-2
1528878766015380,-10,0,17,27,4,2,-4,1
1528878766015380,5,2,-26,-48,-16,-10,-7,2
1528878766027453,-7,1,1,-28,-4,0,6,-1
1528878766027453,1,-2,-6,12,5,-1,-7,8
1528878766036381,1,-4,-3,8,1,-3,7,-7
1528878766036381,0,1,2,10,5,0,-10,-4
1528878766051371,-9,1,1,9,-2,1,-3,-1
1528878766051371,8,1,2,-12,-4,-4,5,-4
1528878766053225,-8,1,-5,-12,-3,2,-3,-3
1528878766053225,-1,-2,8,7,-3,-1,8,2
1528878766074325,-5,-5,-5,5,3,-1,-6,-6
1528878766074325,0,0,1,3,-3,-5,-5,0
1528878766075330,4,1,-7,-8,0,8,9,-2
1528878766075330,1,0,6,10,1,-1,-3,0
1528878766087278,-1,1,2,1,-2,-2,9,2
1528878766087278,-6,-5,-3,9,6,5,-1,-1
1528878766097190,-2,2,-2,-10,-3,-5,-19,-3
1528878766097190,-7,-3,3,0,-3,-10,6,0
1528878766112089,2,-4,1,5,1,10,5,-1
1528878766112089,-7,0,-2,-4,-1,2,0,1
1528878766113070,-2,0,-8,-4,-1,-4,3,1
1528878766113070,6,-1,4,-1,-3,-3,-9,-3
1528878766134183,-10,-3,-7,9,-3,-6,-3,-3
1528878766134183,-9,-1,1,-3,-1,-2,-2,-4
1528878766135349,3,0,-3,-11,-6,-3,1,1
1528878766135349,-3,-5,-5,2,4,-1,-3,-10
1528878766148178,0,-1,3,9,-2,-1,-2,7
1528878766148178,2,3,7,-5,11,6,1,-7
1528878766156124,5,-5,-7,4,-4,-5,0,5
1528878766156124,1,3,0,-1,-6,1,8,7
1528878766171115,1,0,2,-5,-3,-6,-8,-9
1528878766171115,-6,-5,-2,1,-6,-2,-2,-2
1528878766173078,2,4,9,8,4,3,4,-6
1528878766173078,-12,0,-10,-25,-3,4,7,0
1528878766194179,4,-9,-4,5,2,-4,-11,-1
1528878766194179,12,18,0,-1,-1,8,10,4
1528878766196068,-5,-4,-5,0,-1,-5,-6,-3
1528878766196068,2,-3,3,6,-2,0,-1,2
1528878766208153,-6,-2,1,-4,-2,-2,-4,-3
1528878766208153,-2,-9,-6,2,-3,-3,10,0
1528878766216982,0,-3,-4,-6,-2,-1,-1,0
1528878766216982,2,6,4,4,2,-3,-5,1
1528878766231208,3,2,-5,-5,-3,0,-3,-2
1528878766231208,11,-1,2,2,-4,-4,-8,-3
1528878766233205,-13,-5,-8,-10,-6,-1,-1,-2
1528878766233205,6,2,8,11,4,2,-3,-1
1528878766254534,-6,-2,-3,0,4,-1,-5,3
1528878766254534,3,-3,-4,-6,-4,0,3,2
1528878766255419,-3,-3,0,5,-1,0,1,-1
1528878766255419,-2,2,2,21,13,2,0,-1
1528878766268549,6,1,-5,-24,-2,0,0,-4
1528878766268549,-2,3,7,5,-3,-4,1,-2
1528878766276399,-14,-9,-14,-12,1,-1,-2,-4
1528878766276399,0,-3,11,5,-6,-2,-3,12
1528878766291325,0,2,-1,5,1,0,5,-2
1528878766291325,-6,-3,-3,-6,-4,-4,-4,1
1528878766293319,-3,2,4,-1,-3,-3,-4,-7
1528878766293319,2,0,-6,-7,0,4,2,-5
1528878766313612,-3,0,3,8,1,-2,2,0
1528878766313612,-6,-1,-2,-3,-1,-3,-4,-2
1528878766315609,20,3,1,1,-4,0,1,3
1528878766315609,-12,-2,-8,-9,-3,-7,-2,-1
1528878766328627,2,3,9,3,1,7,-1,0
1528878766328627,-5,-3,-6,6,-1,1,-1,-3
1528878766336894,1,3,-2,-6,3,1,-8,-4
1528878766336894,2,-2,0,-2,0,-2,7,8
1528878766351854,7,1,1,1,0,-2,2,-2
1528878766351854,-6,-6,-9,-2,-1,-2,-9,-1
1528878766352851,-3,-2,1,1,-3,-4,1,1
1528878766352851,-3,0,-4,-3,-8,-2,-5,-8
1528878766374004,-2,-6,1,9,2,-2,1,-2
1528878766374004,2,-4,-3,-4,1,-2,-8,0
1528878766376138,-6,0,-3,-8,-3,-2,4,0
1528878766376138,3,-2,3,2,-7,-4,-14,-6
1528878766387191,-4,0,-4,-5,-4,-2,-1,-2
1528878766387191,-3,-1,1,3,8,-2,-3,-1
1528878766397125,0,-1,4,1,0,1,4,3
1528878766397125,-3,-4,-4,4,4,2,1,-2
1528878766411287,-4,0,-2,-10,-5,-1,-4,-2
1528878766411287,5,-2,0,4,-1,-2,-1,2
1528878766413292,-1,-1,-1,3,-3,-3,-2,-2
1528878766413292,-2,-2,1,-8,0,2,0,-1
1528878766434517,-7,-5,-7,14,4,-2,-3,-3
1528878766434517,11,2,-2,-6,-2,-2,-1,-1
1528878766435433,-4,-1,6,1,-2,-1,0,2
1528878766435433,-4,-1,-5,-12,-8,-5,-2,-5
1528878766447758,-2,-3,-1,-4,-3,-1,-1,-1
1528878766447758,-3,-2,2,-2,-3,0,0,-2
1528878766456573,2,-2,-4,0,1,-1,-2,-2
1528878766456573,1,-2,-1,0,-3,-1,-1,-2
1528878766471689,0,1,0,-3,-2,-2,-1,0
1528878766471689,-3,1,-2,2,0,0,0,-1
1528878766473527,-2,-2,1,-4,2,-1,0,-1
1528878766473527,-2,0,-3,0,-2,-1,0,-1
1528878766495469,4,0,3,-7,-7,-1,1,1
1528878766495469,-6,1,2,13,8,1,-1,-1
1528878766499485,1,-5,-8,-7,3,1,0,-2
1528878766499485,1,-1,0,0,-1,-1,-1,-3
1528878766501453,-5,-1,-3,-4,-2,-5,-2,-3
1528878766501453,2,1,4,-6,-10,-1,3,2
1528878766511557,1,-1,-2,3,0,1,1,1
1528878766511557,0,-2,-4,2,1,1,-3,2
1528878766523399,-2,0,0,0,-2,-2,0,-4
1528878766523399,6,-1,-4,-5,0,-2,-2,-2
1528878766531397,-6,-2,-1,2,-1,-1,0,-3
1528878766531397,-2,0,-3,-2,-3,-1,-2,-2
1528878766546489,-3,0,1,0,2,-1,-3,0
1528878766546489,-4,-2,-2,0,-3,-1,-2,-5
1528878766548327,5,-1,-3,0,-2,0,-2,-1
1528878766548327,0,0,2,-1,-2,0,-1,-1
1528878766560295,1,-2,-2,1,1,0,-1,-2
1528878766560295,-6,-1,-4,-6,-5,-4,-1,-2
1528878766569272,-3,1,2,1,0,-1,-4,-3
1528878766569272,-5,-4,-1,2,-1,0,1,-2
1528878766583247,2,-2,-2,4,2,1,3,1
1528878766583247,-4,-3,-2,-2,0,-1,-1,-2
1528878766590215,-2,-1,0,-4,-4,-2,-2,-1
1528878766590215,1,-2,-2,-2,-4,-2,2,0
1528878766607311,-3,0,-1,2,2,2,3,1
1528878766607311,-7,-2,0,-1,-3,-1,-1,0
1528878766608276,2,0,1,-2,3,2,1,0
1528878766608276,7,2,1,-1,2,0,0,1
1528878766620486,-2,2,1,-3,-2,-3,-3,0
1528878766620486,-2,-1,0,-8,-4,0,0,1
1528878766629306,-1,-1,-2,6,0,-2,1,1
1528878766629306,-5,-2,-2,-4,-3,-2,-1,-1
1528878766644465,0,-2,0,2,1,-1,-1,-2
1528878766644465,1,1,1,-2,-2,-2,-1,-2
1528878766650448,7,2,-2,-2,-2,0,-2,1
1528878766650448,-14,-1,0,-1,0,-1,0,0
1528878766665564,-1,0,0,-3,-2,0,-3,-1
1528878766665564,0,0,-1,1,2,1,-1,-1
1528878766672390,1,-1,1,2,0,-1,1,0
1528878766672390,0,0,-2,-1,-2,0,0,-2
1528878766680524,-2,-4,-2,3,6,-1,0,0
1528878766680524,-3,-2,-3,-6,-6,-3,-1,-1
1528878766689355,-4,1,-2,-4,0,1,1,0
1528878766689355,0,0,-2,7,5,0,1,-1
1528878766703645,-1,-2,-2,-2,-2,-2,-1,-2
1528878766703645,0,-2,0,1,-3,-1,-1,-1
1528878766710627,-2,-2,-1,-7,-6,-3,0,0
1528878766710627,0,-3,-1,-4,-2,-1,-2,-1
1528878766725802,1,-2,1,0,-3,2,-1,-1
1528878766725802,-2,-1,-3,4,5,-1,-1,0
1528878766732622,-1,-1,0,-3,-7,-3,-3,-2
1528878766732622,0,-3,-1,-1,-2,-3,-1,0
1528878766740642,0,0,0,2,7,2,0,-1
1528878766740642,-2,1,2,1,-2,1,-2,-1
1528878766748631,-3,-2,-5,-4,0,-1,-2,0
1528878766748631,0,-1,-2,-5,-3,-2,-1,-2
1528878766763589,1,0,-2,0,-7,-2,-1,0
1528878766763589,0,0,-1,-2,5,0,0,-1
1528878766770573,-1,-1,0,-1,-1,-2,-2,-2
1528878766770573,-1,-1,-1,-1,1,0,-2,-2
1528878766785559,-3,0,-1,-7,-4,-4,-3,0
1528878766785559,-2,-1,0,6,-1,-1,-1,0
1528878766792702,0,-1,0,-4,-4,-1,0,0
1528878766792702,2,3,1,8,7,4,1,-1
1528878766799685,-2,-1,-1,3,1,0,-1,0
1528878766799685,-1,-2,-3,-7,-5,-2,-1,0
1528878766808900,-1,-1,1,0,-3,-2,0,1
1528878766808900,-1,-2,0,-3,-5,-4,-1,0
1528878766823847,-1,1,-1,-3,-3,-1,0,-2
1528878766823847,0,-1,-2,0,-3,-2,-4,-3
1528878766830701,-4,0,-1,-2,1,0,-1,-2
1528878766830701,1,-4,-2,-1,-2,-3,-2,-2
1528878766845807,-4,-2,-5,-2,-5,-2,-4,-1
1528878766845807,-3,-3,-5,-4,-3,-1,1,0
1528878766852804,-2,-2,-1,5,0,-1,-2,-2
1528878766852804,-2,-1,-6,-8,-3,-1,-2,-1
1528878766860655,-1,-3,-1,6,-1,0,0,-1
1528878766860655,0,-1,0,0,-1,-1,0,0
1528878766869602,-1,-1,-1,-2,1,-1,-1,0
1528878766869602,-3,-1,-3,-1,-3,0,-2,-1
1528878766884728,-2,-1,-3,-7,-6,-2,0,-2
1528878766884728,-2,-2,-1,8,8,1,0,-1
1528878766891710,0,-1,0,-3,-1,-2,-1,-2
1528878766891710,-1,-2,-2,6,0,-1,-2,-3
1528878766913816,1,-1,-2,-7,-5,-2,-2,-1
1528878766913816,0,0,-1,1,-3,-2,-1,-2
1528878766915647,-1,0,-4,-4,0,0,-3,-1
1528878766915647,-3,-1,-2,-2,-3,-1,0,-1
1528878766928810,0,-3,0,2,3,1,0,0
1528878766928810,-2,-2,0,-1,-3,-3,0,-1
1528878766930665,-1,-2,-3,0,-2,-3,-2,-1
1528878766930665,-1,-1,0,-2,-1,0,-1,-1
1528878766943765,-2,-1,0,1,0,-1,-2,-1
1528878766943765,-1,0,-1,-4,-3,-1,-3,-1
1528878766949641,-1,0,-2,1,-1,-1,2,-2
1528878766949641,-1,-1,0,0,-3,0,0,-1
1528878766965767,0,0,1,-2,-2,-3,-2,0
1528878766965767,-1,0,-1,-2,1,0,-1,0
1528878766972747,-2,-2,0,-1,-1,-1,-1,0
1528878766972747,-2,-1,-1,-1,-1,0,-1,-1
1528878766988846,0,-1,-2,-2,-3,-2,0,-2
1528878766988846,1,-1,-2,-2,-1,-1,-1,-3
1528878766990699,-1,-2,-1,0,0,-1,-1,-2
1528878766990699,-1,-1,0,0,-1,-2,-1,-3
1528878767002824,-1,0,-3,-1,1,0,-1,0
1528878767002824,-2,-3,-5,-1,-2,-1,-2,0
1528878767011658,-2,-1,5,1,-1,-1,-2,0
1528878767011658,-1,-1,-1,-1,-1,-2,-2,-1
1528878767025764,-2,-1,0,-1,-2,-2,-1,-2
1528878767025764,0,0,-1,-2,-1,-2,-1,-1
1528878767032894,1,-2,-3,0,0,0,-1,-1
1528878767032894,0,-1,-1,0,-1,1,-1,0
1528878767050096,-3,-1,-2,-1,-2,-1,1,0
1528878767050096,0,-2,-2,-3,-1,0,-1,-1
1528878767051843,-2,0,-1,1,-1,-1,-1,0
1528878767051843,-1,-1,0,1,1,-3,0,-2
1528878767062959,-1,-1,-1,0,-1,0,0,0
1528878767062959,0,-2,-1,-1,-1,0,2,-2
1528878767072154,-2,-1,-1,-1,-1,-2,-2,0
1528878767072154,-1,0,-2,-1,-1,-1,-1,-1
1528878767086133,-1,-2,-1,1,2,-2,-2,-3
1528878767086133,-2,1,-1,-2,-2,-1,-2,-1
1528878767093103,-2,-1,-1,-1,-2,-1,0,-2
1528878767093103,-2,-1,-2,-2,0,-1,0,-1
1528878767109219,-2,0,-1,1,-1,-2,-2,-1
1528878767109219,-1,-2,-2,-3,-2,0,-2,-1
1528878767111200,1,-2,-3,1,-2,-2,-1,0
1528878767111200,-2,0,0,-2,0,-3,1,-1
1528878767123177,1,-1,0,-2,-2,-1,0,-1
1528878767123177,-2,0,0,-1,0,-1,0,-1
1528878767132158,-2,-2,-2,-1,-1,-1,1,1
1528878767132158,-1,0,2,-3,0,2,1,1
1528878767146007,-2,-1,1,1,2,2,0,2
1528878767146007,1,0,1,1,2,0,0,-1
1528878767153096,1,2,1,0,0,-1,1,-2
1528878767153096,-1,0,-2,-1,-3,-1,0,0
1528878767169381,-3,-1,-2,-2,-3,-3,-1,-1
1528878767169381,-2,-1,-1,-1,-1,0,-1,-1
1528878767171237,-2,-2,-2,-1,0,-1,-2,-2
1528878767171237,1,-2,-1,-2,1,-2,-1,0
1528878767182191,0,1,1,-1,0,0,-1,-2
1528878767182191,-3,-2,-3,0,-2,-3,-2,1
1528878767191397,0,-2,-1,-1,-2,0,-1,-2
1528878767191397,0,1,2,0,-1,0,0,-1
1528878767205919,-1,-2,-3,-2,0,-1,-1,-2
1528878767205919,-1,2,3,-1,-1,-2,-2,0
1528878767213181,-1,-3,-5,-2,0,0,0,-1
1528878767213181,-2,-2,-2,-1,-2,-1,-2,-1
1528878767229199,0,1,-1,-2,-2,-2,0,-1
1528878767229199,0,-3,-2,-2,0,0,0,0
1528878767231143,-2,0,1,-2,0,-1,1,-1
1528878767231143,-2,0,0,0,-2,-3,-3,-1
1528878767242206,-2,-2,-2,0,-1,1,-2,-1
1528878767242206,0,-1,1,-1,-1,0,0,-2
1528878767251349,-1,1,0,-1,0,0,0,-1
1528878767251349,0,-2,-3,0,0,1,-2,-3
1528878767266154,-1,-1,-1,-1,-1,0,-2,-1
1528878767266154,-3,-1,-1,-1,-1,-2,-1,-2
1528878767272291,0,-1,-2,0,-1,-1,-2,0
1528878767272291,-2,-1,-2,0,-1,0,-1,-1
1528878767289083,-1,-1,0,-2,-1,-2,0,-1
1528878767289083,-1,0,-1,0,-1,0,-3,0
1528878767290080,-1,0,-1,-3,0,-2,-2,1
1528878767290080,-1,-2,-1,-2,1,-1,-1,-1
1528878767310148,0,0,-1,-2,1,-1,-1,-2
1528878767310148,0,-2,-3,-1,1,-1,0,0
1528878767318177,0,0,0,-1,-1,-1,1,-3
1528878767318177,0,0,-1,-1,-1,-1,1,0
1528878767327144,-1,-1,-1,0,-1,0,-2,0
1528878767327144,-1,-1,-1,-1,0,-2,0,-1
1528878767332173,-2,0,-1,0,-2,1,-3,-2
1528878767332173,0,-2,-2,-2,-1,-2,0,-2
1528878767348532,-1,-3,0,-1,-1,-2,0,-1
1528878767348532,-1,0,1,-1,-1,-2,0,-1
1528878767349430,-1,-1,0,0,-2,-1,-2,0
1528878767349430,-2,0,-1,-1,0,-2,-1,-2
1528878767370306,1,-1,-1,0,0,-1,0,1
1528878767370306,-1,-1,-1,0,-1,0,-2,-2
1528878767371303,0,-1,0,0,0,-1,-1,-1
1528878767371303,-2,-1,-2,-2,-3,1,-2,0
1528878767393426,0,-2,-1,-1,-2,0,-2,-1
1528878767393426,-2,-1,0,0,-2,-1,0,-2
1528878767394554,-1,-2,-2,-1,-1,-2,1,0
1528878767394554,-3,-1,0,-2,-1,-2,-1,-1
1528878767415663,0,0,-1,0,0,-1,-1,1
1528878767415663,-1,-1,-1,-3,-1,-1,-1,-2
1528878767416504,-1,0,-1,1,0,-2,-1,-1
1528878767416504,-1,-1,-2,0,-2,0,-1,-2
1528878767438602,0,-1,-1,0,-1,-2,0,-3
1528878767438602,-3,-1,-1,-1,-2,0,-1,0
1528878767439437,-1,-2,1,-3,-2,-1,-1,1
1528878767439437,-1,-2,-2,-1,-1,-1,-2,-2
1528878767453556,-1,0,1,-1,-1,-1,-2,0
1528878767453556,-1,-1,-3,-1,0,-2,-1,-1
1528878767454554,-1,-1,-2,-3,-3,-1,-1,-1
1528878767454554,0,5,0,-1,-2,-1,0,0
1528878767475583,-1,-1,-2,-1,-2,-1,0,0
1528878767475583,0,-1,0,0,-3,-1,-1,0
1528878767476542,-1,2,-1,0,0,0,0,-2
1528878767476542,0,-4,-2,-1,0,-1,-2,0
1528878767498640,-2,0,-1,-1,-1,0,-1,-1
1528878767498640,-1,0,1,0,0,0,-2,-1
1528878767499483,-1,-3,0,0,0,-2,-2,-1
1528878767499483,0,-1,-1,-1,-1,0,-1,0
1528878767513661,-1,1,-1,-2,-1,-1,0,-2
