timestamp,emg1,emg2,emg3,emg4,emg5,emg6,emg7,emg8
1528882203354278,-1,-1,6,-2,-5,-1,1,0
1528882203354278,-1,-3,-14,4,0,-8,-3,-3
1528882203355278,0,-1,6,-4,-5,-13,-4,0
1528882203355278,-3,-3,-6,-4,-1,2,0,-2
1528882203357272,3,2,8,-1,-17,-18,-6,1
1528882203357272,-1,11,5,-10,14,35,11,-2
1528882203361262,7,5,1,43,59,13,2,2
1528882203361262,0,-9,8,7,-7,-2,-1,-1
1528882203365251,-15,-9,-11,-10,-26,-17,-6,-2
1528882203365251,12,-7,-9,-11,-15,-15,-3,-3
1528882203370236,-6,3,-3,-17,-21,5,-6,-2
1528882203370236,-22,5,0,-3,16,7,7,-1
1528882203383204,17,-4,-6,-2,5,5,-1,1
1528882203383204,-5,-2,6,8,-11,-13,-6,0
1528882203391183,4,-4,-4,-10,9,6,-1,-2
1528882203391183,10,4,3,3,-20,-13,-3,3
1528882203397166,-9,2,-3,18,9,8,0,-6
1528882203397166,-3,-5,-1,-4,6,-6,-3,-2
1528882203422150,4,10,13,7,1,6,4,1
1528882203422150,-7,-4,-10,-15,4,8,-1,-3
1528882203422150,-4,0,-20,-19,-46,-17,-5,-2
1528882203422150,3,2,3,5,26,-3,-1,1
1528882203461991,10,1,5,25,42,22,3,2
1528882203461991,-6,-5,3,3,-20,-4,8,2
1528882203462988,1,7,0,-17,0,2,-10,-4
1528882203462988,-7,-13,-12,-27,-62,-35,-3,-3
1528882203466977,-8,1,2,8,29,19,1,-4
1528882203466977,8,0,11,40,72,16,2,2
1528882203467974,6,9,9,-7,-57,-7,6,1
1528882203467974,8,-4,0,4,31,16,4,3
1528882203471964,-10,-3,-2,-30,-29,1,3,2
1528882203471964,-2,-2,0,19,2,-17,-9,-2
1528882203480941,-2,0,-15,-37,-6,-4,-4,-6
1528882203480941,-19,0,18,68,20,-1,-1,-4
1528882203486925,14,-1,0,-17,-1,5,-2,-1
1528882203486925,-18,-1,9,-5,2,-24,-8,-6
1528882203502882,4,-6,-12,-2,-26,2,-2,0
1528882203502882,8,0,5,-28,-14,6,5,2
1528882203509863,-9,-1,9,4,21,-8,-5,0
1528882203509863,7,16,-22,-4,-6,-16,-2,8
1528882203533800,-12,-9,6,-4,-6,16,3,-10
1528882203533800,1,-6,-10,0,17,1,0,-1
1528882203534797,-2,3,23,-8,-36,-14,-3,-4
1528882203534797,2,7,-3,-39,-6,22,1,-3
1528882203546764,5,-8,-52,26,17,-24,-3,1
1528882203546764,-1,12,2,-32,-25,21,1,3
1528882203556738,5,-12,7,61,11,-17,-9,-3
1528882203556738,-14,-7,18,-22,-7,21,10,-4
1528882203571715,5,6,-6,16,20,3,4,3
1528882203571715,-10,-2,21,2,-2,-13,-5,-3
1528882203572695,3,6,-4,-31,-5,-16,-6,3
1528882203572695,10,-8,-16,-3,-26,3,-1,-2
1528882203593639,2,6,-8,5,23,10,-1,5
1528882203593639,14,-18,23,-3,2,-8,-10,-6
1528882203595635,-36,0,-7,-6,-20,-2,12,-6
1528882203595635,5,-2,-5,-11,-1,1,-5,-4
1528882203607601,-7,-12,34,23,7,5,-3,-7
1528882203607601,5,11,20,10,10,-6,0,3
1528882203616578,-2,-18,-16,-7,-8,11,-4,-3
1528882203616578,-4,9,0,4,-3,-9,-1,-2
1528882203630541,-1,-12,9,-13,-6,-4,-8,3
1528882203630541,5,-15,25,11,20,-3,-7,1
1528882203632535,2,43,-22,16,5,4,18,1
1528882203632535,-7,-40,23,-9,-5,12,5,-6
1528882203661458,3,22,12,-15,-10,-8,0,2
1528882203661458,-3,-2,-12,13,0,11,5,-1
1528882203662465,6,-14,-24,-21,-5,-6,-4,2
1528882203662465,2,13,-8,4,-9,-11,-9,2
1528882203667442,-3,-9,16,-5,-2,-21,-10,-3
1528882203667442,-15,1,-61,-6,3,-3,7,-2
1528882203676418,3,-2,53,3,0,30,-2,-7
1528882203676418,2,13,-28,3,-2,-6,-8,5
1528882203691417,-5,-8,17,8,10,12,13,-3
1528882203691417,4,10,-16,-2,5,-14,-19,-2
1528882203692395,5,-11,-15,3,-6,-17,1,3
1528882203692395,-6,-5,1,-9,-7,-5,-5,-6
1528882203721299,-2,-36,-33,-1,11,9,4,18
1528882203721299,14,54,8,-5,-7,2,17,-25
1528882203722297,-12,-17,5,1,-2,4,-16,-11
1528882203722297,1,-1,-63,-6,-5,0,5,-4
1528882203728279,-4,13,17,6,6,-11,-7,2
1528882203728279,15,-8,-1,-2,-4,-7,0,11
1528882203736264,-8,6,2,2,3,10,9,3
1528882203736264,1,-1,35,-7,-6,-12,-6,-3
1528882203751245,-10,4,-3,30,16,8,3,-7
1528882203751245,-5,-5,-52,-4,0,6,-8,4
1528882203752217,12,5,11,3,-2,-21,2,3
1528882203752217,-17,-9,33,3,5,17,-13,2
1528882203773160,-6,-5,-66,-16,-8,4,10,-3
1528882203773160,-4,-16,2,-10,-2,9,-1,-2
1528882203775154,7,-3,-13,4,4,-15,-4,2
1528882203775154,3,3,5,3,-4,2,8,1
1528882203795102,6,3,34,-3,-5,-26,-27,-3
1528882203795102,-3,2,29,2,-3,3,11,3
1528882203796100,-3,-4,-36,-29,-13,16,8,-1
1528882203796100,3,-1,10,33,14,7,3,0
1528882203810063,4,8,0,-5,-8,-12,-8,-2
1528882203810063,-4,-1,14,-2,5,24,8,4
1528882203811060,3,-6,13,5,4,10,4,-3
1528882203811060,6,-6,6,-6,-2,-2,11,2
1528882203833000,-10,6,-56,-11,-6,-9,-9,-6
1528882203833000,-1,5,11,3,1,3,17,-2
1528882203833998,-3,-5,-9,-7,-8,-17,-22,1
1528882203833998,28,15,-4,-4,-2,11,5,5
1528882203854944,-12,-8,15,3,3,7,12,5
1528882203854944,-11,41,-9,-15,-11,2,-7,-8
1528882203855938,-8,-16,-2,10,5,-22,-27,-10
1528882203855938,-10,-9,-7,6,3,4,31,2
1528882203869927,9,2,21,-2,-3,-54,-32,-7
1528882203869927,-3,-8,-22,-4,-1,56,31,2
1528882203870898,18,3,18,-31,-18,-20,-13,11
1528882203870898,4,9,15,42,16,-15,-11,-4
1528882203892843,-5,-22,-66,-6,8,23,7,0
1528882203892843,4,-23,-3,4,0,-61,-23,-3
1528882203893837,-15,14,-4,1,1,69,36,29
1528882203893837,-12,2,12,-15,-6,-7,-3,-6
1528882203915778,-5,13,35,6,-1,-43,-11,3
1528882203915778,-7,-11,-16,-9,-4,33,-14,-11
1528882203915778,25,-3,-17,-7,-4,-9,11,-8
1528882203915778,14,-11,-20,-9,-6,-11,-16,33
1528882203937764,21,18,27,7,1,-57,-52,-37
1528882203937764,-22,-34,33,-4,-6,37,70,8
1528882203938718,3,7,-25,2,5,22,-42,-8
1528882203938718,-28,-13,-25,-11,-4,22,36,-11
1528882203952685,17,-44,-8,-8,-12,-22,-30,-6
1528882203952685,8,25,2,-1,-3,-45,-27,-13
1528882203953677,-6,22,11,5,1,6,-5,-20
1528882203953677,13,10,-4,-10,-4,-28,-21,9
1528882203975644,-4,20,9,-15,-9,42,27,2
1528882203975644,0,-15,-19,-10,2,-8,-24,1
1528882203976616,-4,-17,24,64,26,-2,19,7
1528882203976616,-2,19,-7,9,3,-8,-22,-15
1528882203990615,-5,-2,8,-22,-11,32,30,7
1528882203990615,-5,1,5,8,5,-10,-21,5
1528882203991611,1,1,-13,-22,-11,-16,11,-6
1528882203991611,-1,-5,21,17,-3,-9,-9,-7
1528882204012520,-4,1,-1,-18,-5,32,16,12
1528882204012520,-11,-10,-19,24,14,-3,5,-1
1528882204013518,-11,-14,-25,-12,-12,-28,-16,-8
1528882204013518,1,0,-26,-29,-3,7,-4,-5
1528882204035512,-2,5,11,16,-6,18,18,12
1528882204035512,12,19,33,29,15,4,-12,1
1528882204036456,-5,0,-28,-24,1,-14,3,1
1528882204036456,0,-25,81,44,-22,-3,-11,-6
1528882204050650,-3,-11,-50,6,39,25,15,-5
1528882204050650,-25,9,-9,7,-6,-14,-6,-1
1528882204050650,5,-5,39,-28,-10,-4,-1,2
1528882204050650,-6,-7,-25,37,12,6,10,-1
1528882204072926,-2,-25,19,-42,-1,4,-2,-3
1528882204072926,10,17,11,49,6,-10,-9,3
1528882204073957,3,4,-8,-29,-14,0,4,1
1528882204073957,-6,3,38,3,-5,-3,-5,-7
1528882204095152,0,-16,-65,-22,6,5,6,1
1528882204095152,-4,-17,58,-54,-17,-13,-9,-3
1528882204096150,-6,7,-1,16,-15,-4,-2,-5
1528882204096150,2,7,-7,8,15,4,0,0
1528882204110142,-3,22,41,55,13,7,3,1
1528882204110142,4,1,-19,-7,-5,-1,4,1
1528882204111109,-2,-5,-43,-20,-8,-11,-5,-3
1528882204111109,-1,13,-18,-29,-5,-3,-1,0
1528882204133052,4,9,28,13,-1,4,5,4
1528882204133052,-10,-10,-20,-18,-11,-8,-10,-1
1528882204134049,-1,-5,34,31,15,-5,4,0
1528882204134049,-9,-14,-25,-38,-3,8,-2,-4
1528882204163972,5,3,-26,4,-9,-15,-9,0
1528882204163972,3,-4,18,7,1,-27,-15,-2
1528882204163972,-3,2,-11,1,6,70,60,-19
1528882204163972,-5,16,-11,-2,5,-7,1,21
1528882204169952,-5,-24,55,8,-6,4,3,8
1528882204169952,12,18,-7,-9,-1,-12,-15,15
1528882204170950,-39,-46,-73,6,7,-21,-16,-36
1528882204170950,6,19,63,-25,-19,-29,-16,-26
1528882204192930,-17,18,16,17,4,34,12,-7
1528882204192930,9,-16,-68,-18,3,2,-1,-9
1528882204193902,16,34,89,25,2,1,-2,11
1528882204193902,-8,-45,-79,-22,-9,-3,-3,-1
1528882204223854,5,25,9,0,-2,-23,-17,-9
1528882204223854,2,-14,29,1,-1,16,2,-4
1528882204224806,7,-6,-77,-2,8,-23,-15,11
1528882204224806,-1,-9,32,2,1,28,-4,7
1528882204230791,35,5,15,6,-1,17,41,5
1528882204230791,-8,2,7,-9,3,0,14,5
1528882204230791,7,1,83,20,1,-17,-47,31
1528882204230791,20,32,35,-5,4,45,56,-51
1528882204252731,-36,-80,-43,-16,-12,-12,-3,-14
1528882204252731,-7,21,9,-4,-3,22,-9,-56
1528882204253729,5,1,0,-7,-5,-45,-19,24
1528882204253729,10,0,-48,1,7,-14,-16,15
1528882204275670,0,22,29,13,-3,-7,-11,13
1528882204275670,7,-27,-53,-18,-6,-20,2,-3
1528882204276667,-48,-3,19,-4,-5,25,2,-24
1528882204276667,-4,3,-22,2,-3,-17,6,10
1528882204290630,-1,7,-13,-5,0,15,-33,-22
1528882204290630,-13,1,-5,2,-2,0,4,12
1528882204291627,19,-13,6,-7,-11,-13,-4,-1
1528882204291627,-15,0,9,-4,2,-4,-32,0
1528882204312571,-1,0,-27,-11,-3,2,44,-3
1528882204312571,24,1,17,8,-1,-19,-9,15
1528882204313569,-13,19,-7,-1,2,18,-8,-1
1528882204313569,-14,-31,-12,-1,-2,-10,27,0
1528882204335543,9,18,30,2,4,23,-12,-5
1528882204335543,9,16,-13,1,-2,6,-1,3
1528882204336540,8,-1,-6,-3,0,-15,5,-4
1528882204336540,5,12,-14,6,2,-15,-20,8
1528882204350502,8,-35,-5,-9,-4,-23,-6,2
1528882204350502,-7,6,-30,7,0,5,-3,4
1528882204351500,3,0,8,-3,2,13,-2,-9
1528882204351500,8,-19,-24,-27,-13,2,-6,17
1528882204372446,-11,5,18,11,6,-11,-8,6
1528882204372446,-3,-30,24,0,-6,-60,-10,-18
1528882204373453,-17,-30,-30,-5,-1,71,44,32
1528882204373453,13,-15,5,-2,3,3,4,-22
1528882204395383,-16,23,-8,-4,-8,-19,9,-8
1528882204395383,5,12,3,10,11,15,-16,-1
1528882204396376,-8,-44,13,-6,-4,-40,11,-2
1528882204396376,5,-22,-2,2,-5,11,-64,16
1528882204410351,19,29,4,-4,-2,34,46,-18
1528882204410351,-50,-30,-5,0,2,8,4,7
1528882204411308,-1,-22,-29,-10,-5,-15,-12,-16
1528882204411308,13,37,44,19,8,-42,-15,29
1528882204434535,-29,41,11,6,8,-17,-9,16
1528882204434535,26,-24,-33,-6,-9,51,44,-27
1528882204435528,14,14,6,1,4,36,40,46
1528882204435528,-14,26,-1,-5,3,-31,-57,-16
1528882204455473,-36,9,35,3,-1,-18,-46,-20
1528882204455473,1,-53,-20,-6,0,8,12,-27
1528882204456472,28,30,7,10,2,-51,-34,20
1528882204456472,14,7,-35,-2,2,49,62,47
1528882204478832,22,-29,-13,-1,-2,7,27,44
1528882204478832,-14,47,28,2,-11,-8,-26,-32
1528882204478832,7,29,-46,-37,-16,-12,-13,-46
1528882204478832,2,-38,-1,29,13,-53,-68,3
1528882204493648,-16,-9,-27,-13,2,81,49,-19
1528882204493648,50,20,18,4,12,28,91,65
1528882204500618,-11,-9,-2,-2,-7,1,-21,-83
1528882204500618,-29,11,-13,-13,-14,-28,8,17
1528882204515572,31,-11,18,-4,-14,-36,-48,0
1528882204515572,-12,-8,3,-12,-7,-10,-18,-8
1528882204516322,7,37,-28,-1,2,-22,-18,29
1528882204516322,-9,26,4,0,-1,43,47,-37
1528882204538513,-1,5,3,6,1,-18,-14,10
1528882204538513,6,6,5,-3,-5,6,-9,21
1528882204539424,8,-9,4,21,13,-21,1,14
1528882204539424,-20,-13,21,7,-1,-1,2,-35
1528882204552526,34,0,-40,-2,-3,18,3,44
1528882204552526,-60,10,-28,-21,-7,-8,22,-41
1528882204560507,31,-39,26,5,3,40,10,-3
1528882204560507,-30,44,0,3,8,-3,-3,-13
1528882204575801,-41,-20,12,0,2,-12,-23,-42
1528882204575801,26,-4,-12,1,-1,2,-10,33
1528882204576462,-7,6,14,9,6,6,24,-24
1528882204576462,3,-26,2,-7,-2,18,10,12
1528882204598680,0,-8,-22,-6,-6,-38,-31,14
1528882204598680,-4,-16,7,3,-3,-14,-10,21
1528882204598680,-22,7,15,-9,-5,17,10,-10
1528882204598680,28,-17,9,-16,-13,13,22,1
1528882204612670,5,26,-3,23,13,-16,0,-15
1528882204612670,-5,-7,-1,11,5,-11,-44,-3
1528882204620370,0,4,12,-4,3,19,-7,17
1528882204620370,-1,-7,-25,-20,-9,35,34,-15
1528882204635909,-4,-7,20,-10,-10,-13,-16,-5
1528882204635909,9,13,22,10,-3,-4,-18,0
1528882204636585,10,22,16,-4,0,-25,0,7
1528882204636585,-7,0,-17,5,0,14,15,-5
1528882204658557,21,4,0,-1,2,1,6,-1
1528882204658557,-45,-14,0,3,1,-19,-28,-38
1528882204658557,-4,-8,-2,3,2,-5,-14,4
1528882204658557,-2,1,17,-1,-2,4,38,-1
1528882204673046,27,-17,-26,-6,-4,12,-7,33
1528882204673046,-23,11,32,2,4,-15,-20,-53
1528882204680735,-14,-19,-17,4,-3,-12,10,-1
1528882204680735,0,-2,-9,-8,-3,-24,-45,-26
1528882204696207,-10,-6,-4,-6,0,4,14,23
1528882204696207,23,-1,-6,-3,1,32,37,30
1528882204696207,-22,2,5,0,-4,-17,-34,-2
1528882204696207,-14,0,16,9,8,13,17,1
1528882204718196,-16,9,0,-2,-1,-21,-31,-21
1528882204718196,16,-5,-7,-3,-3,7,14,10
1528882204718937,13,15,3,-14,-6,4,7,16
1528882204718937,7,-12,-4,5,-6,-36,-34,12
1528882204732241,-14,-21,0,24,15,10,20,-14
1528882204732241,3,-10,-4,-3,0,-2,0,18
1528882204741219,-1,23,0,11,4,16,10,-7
1528882204741219,12,4,-1,-11,-3,-8,-7,-1
1528882204755147,-34,11,4,-14,-11,2,6,-12
1528882204755147,12,4,-4,-10,-6,9,10,12
1528882204756144,-9,-16,20,12,0,-11,-14,-3
1528882204756144,8,-10,-11,-8,-8,2,7,-1
1528882204778086,7,4,5,17,18,11,7,-2
1528882204778086,2,-4,-3,13,4,-14,-16,3
1528882204779083,0,1,-6,2,8,8,6,-6
1528882204779083,-4,1,6,-3,1,6,2,4
1528882204792048,5,-5,0,-2,-14,-11,-1,-7
1528882204792048,-4,-5,-21,-48,-24,-5,-9,3
1528882204801024,2,-5,25,42,9,0,3,0
1528882204801024,0,-12,-27,49,41,10,5,2
1528882204814987,0,2,3,-20,-12,1,-2,-2
1528882204814987,7,7,-1,-5,20,2,0,2
1528882204815984,0,-8,4,-8,-22,-2,1,2
1528882204815984,-4,-25,59,-8,-13,-10,-7,-2
1528882204837927,3,35,-53,-8,-7,-3,2,-4
1528882204837927,-6,-26,3,30,9,7,2,-1
1528882204838924,1,-5,-13,-36,3,-1,1,-2
1528882204838924,-1,4,-4,8,-1,4,2,2
1528882204861295,5,-1,51,29,0,-1,2,-4
1528882204861295,2,0,36,-31,-13,-7,-2,3
1528882204862028,-7,4,-27,8,-15,-9,-10,-3
1528882204862028,4,7,-27,-27,-6,2,1,-1
1528882204876044,-2,-19,-72,-35,-2,-1,-1,-2
1528882204876044,0,12,13,36,4,-1,-6,1
1528882204876044,-2,-13,-42,0,-4,-1,4,0
1528882204876044,8,9,15,-17,-15,-4,-2,0
1528882204898006,-6,-4,47,12,5,1,2,-3
1528882204898006,-3,-8,-1,-6,3,2,-2,2
1528882204899017,0,-1,0,-7,5,1,1,1
1528882204899017,0,5,-11,5,-3,-1,-1,0
1528882204921971,4,-19,-6,-4,3,-1,0,2
1528882204921971,0,32,-8,-3,-4,-3,-1,-2
1528882204921971,0,-2,11,-3,-3,-1,1,-1
1528882204921971,-2,-9,-15,1,2,-2,-2,-1
1528882204935917,-3,1,7,-3,1,4,1,-4
1528882204935917,-3,-2,-17,-1,-4,-3,-2,-2
1528882204935917,-2,-1,0,-3,1,-2,-2,-16
1528882204935917,5,5,4,0,2,0,0,36
1528882204959828,-2,-8,0,-1,-2,-3,-5,-32
1528882204959828,-4,-3,-5,5,-1,-2,0,0
1528882204960939,1,5,7,-1,4,1,1,1
1528882204960939,-11,-6,-2,-4,-1,-2,-3,-13
1528882204981799,0,-4,-3,-1,-3,1,0,8
1528882204981799,3,-1,-9,0,-1,-1,0,2
1528882204981799,3,-1,1,-8,-2,0,-1,-1
1528882204981799,-5,-4,0,1,-1,-1,-1,-6
1528882204995988,3,0,-2,0,0,-2,0,7
1528882204995988,4,-1,1,-2,0,1,1,0
1528882204995988,-8,-5,1,1,0,1,-2,12
1528882204995988,0,4,-1,-2,-2,-1,0,-6
1528882205018179,-1,2,-2,-2,1,-1,0,2
1528882205018179,-1,-7,1,-4,-2,-2,-3,-2
1528882205018933,2,0,1,0,-1,-3,0,5
1528882205018933,-4,1,-6,2,2,0,0,-4
1528882205048874,-1,-2,-1,-6,-3,1,-1,0
1528882205048874,0,-3,-5,5,-1,0,0,3
1528882205049845,0,-1,6,-1,0,0,0,-1
1528882205049845,-5,2,0,-3,-1,-1,-1,-8
1528882205056845,2,-1,-5,-3,-3,-1,-1,2
1528882205056845,0,3,-2,1,0,1,0,-2
1528882205057824,-3,-4,-3,-3,-2,-2,0,-3
1528882205057824,0,-3,-3,0,-1,-3,-2,-3
1528882205079336,1,0,2,-2,-1,-2,-1,3
1528882205079336,-2,-5,-5,1,-1,-2,-2,-2
1528882205079336,0,-1,-2,-2,0,0,-2,-1
1528882205079336,0,0,0,-5,-2,-1,0,-1
1528882205101915,-1,-1,-3,6,1,-1,-1,-1
1528882205101915,-3,1,-1,-1,2,-1,-2,-2
1528882205101915,-2,0,-3,-4,-2,-1,-2,-3
1528882205101915,0,2,2,0,-4,-1,-1,3
1528882205116130,-1,-2,-5,-4,0,-3,-2,0
1528882205116130,-2,-8,-1,2,4,3,1,-3
1528882205116130,-1,-1,-1,2,3,5,3,-4
1528882205116130,0,4,0,0,-2,-7,-3,-1
1528882205139188,0,-2,3,-1,-1,6,0,2
1528882205139188,-3,-19,-5,-5,-7,-3,-1,-2
1528882205139787,2,1,-1,-2,-2,-3,-1,2
1528882205139787,-3,-5,-4,1,0,-2,0,-4
1528882205161758,0,1,0,-1,-3,-2,0,0
1528882205161758,0,7,0,-2,-1,-3,-3,-2
1528882205161758,-1,-3,-1,-1,-2,-3,-2,1
1528882205161758,-1,-3,-3,0,0,0,0,-1
1528882205175930,-2,1,1,-2,0,-2,0,0
1528882205175930,-1,4,3,0,1,1,-3,-1
1528882205176899,0,-1,-1,-4,-3,-1,0,-2
1528882205176899,0,4,-3,-1,-2,2,1,-2
1528882205199055,-2,-6,-4,-5,-4,-5,-2,-1
1528882205199055,-1,0,-3,-6,-10,-9,-5,-3
1528882205199055,-4,0,1,4,7,6,-6,-5
1528882205199055,3,2,2,5,9,13,4,1
1528882205221257,-3,-6,-2,3,2,5,3,-7
1528882205221257,14,2,-2,-1,-4,-6,0,9
1528882205222019,-6,-1,1,-3,-4,-9,1,-6
1528882205222019,11,-5,-2,-3,-4,-5,-5,-8
1528882205235221,3,0,0,0,-3,-6,-4,4
1528882205235221,-3,6,2,-1,-2,-3,-2,1
1528882205235956,5,-12,-10,-7,-2,2,2,1
1528882205235956,-4,3,5,3,0,-6,-3,-8
1528882205259129,-4,-2,-3,-3,0,4,2,8
1528882205259129,-1,-5,-7,-4,-2,2,1,-3
1528882205259129,-2,-4,0,-1,0,1,1,4
1528882205259129,-9,6,-2,-2,-3,-2,-1,0
1528882205281834,-11,6,8,1,-1,-3,-3,-10
1528882205281834,-1,3,7,6,2,6,1,2
1528882205281834,19,-1,-5,-1,-3,-1,6,30
1528882205281834,-39,-3,-2,-2,-3,-2,-9,-15
1528882205295583,3,0,-2,-1,-2,-1,-4,0
1528882205295583,5,8,-2,-2,0,0,-3,-11
1528882205296322,-4,-37,0,1,-1,-1,-3,-15
1528882205296322,23,7,9,4,4,2,7,56
1528882205318344,-21,-11,-16,-7,-3,-1,3,-5
1528882205318344,4,-9,-5,-3,1,2,-2,-13
1528882205325501,2,15,-1,0,-4,-6,-2,10
1528882205325501,-8,-18,-7,-4,0,2,-4,-38
1528882205341463,9,6,7,1,1,1,4,34
1528882205341463,10,-1,-1,0,-1,-2,1,12
1528882205342200,-29,6,4,0,-2,-3,-6,-2
1528882205342200,8,-7,-5,-1,-3,0,-3,-5
1528882205355171,-15,3,2,1,-1,-5,-4,-29
1528882205355171,1,-2,-2,1,3,1,6,19
1528882205356173,-8,0,-6,-3,-2,1,2,-7
1528882205356173,0,-6,-4,-3,-1,-3,-5,-28
1528882205379331,16,-1,-1,0,0,-1,10,72
1528882205379331,-55,-2,0,0,-1,-3,-4,-45
1528882205379331,13,3,1,1,0,-1,-8,-45
1528882205379331,1,2,-4,-4,-3,-2,1,-10
1528882205401306,11,12,2,2,-1,0,-2,-35
1528882205401306,30,-10,7,4,1,1,2,43
1528882205402040,-31,-32,-15,-7,-4,0,-3,-21
1528882205402040,9,23,0,-2,-1,-2,0,33
1528882205415305,-51,-36,3,-3,-3,-1,-4,-42
1528882205415305,-4,1,-9,1,1,-10,-27,-23
1528882205416304,15,11,2,0,0,15,37,12
1528882205416304,6,-7,0,0,-1,1,10,20
1528882205437249,19,22,8,1,4,4,0,-5
1528882205437249,1,-11,-15,-4,-4,-4,-2,8
1528882205446224,-8,22,15,-2,1,-6,-15,0
1528882205446224,7,10,-4,1,2,2,3,8
1528882205461218,2,-3,-9,-2,-2,-4,-2,3
1528882205461218,-6,-26,1,-1,0,0,-1,-24
1528882205463179,21,30,11,3,1,-3,-1,27
1528882205463179,-12,-8,2,-2,-4,-3,0,-14
1528882205475200,8,11,1,2,1,-2,-6,-10
1528882205475200,0,29,-5,-4,-3,0,5,10
1528882205484175,-10,15,8,-2,-1,-3,-3,-2
1528882205484175,-6,-12,-20,-4,-2,-3,-5,-1
1528882205497098,1,-19,-2,-2,-2,-2,-2,-6
1528882205497098,4,7,5,1,-1,1,7,7
1528882205506065,2,-6,-4,1,0,-3,-4,3
1528882205506065,5,11,9,-7,-2,-3,-8,-12
1528882205521082,13,33,13,8,0,0,5,17
1528882205521082,-7,-31,-36,-7,1,10,6,-6
1528882205523074,-4,0,18,21,10,-3,-9,-7
1528882205523074,-33,-33,-18,5,1,-3,-4,-5
1528882205535032,1,-28,-16,-13,-8,-3,-5,-7
1528882205535032,13,78,27,15,1,-1,2,6
1528882205550944,-7,-73,-76,-57,-22,-14,-11,-10
1528882205550944,6,14,44,13,8,10,6,5
1528882205557988,-4,-10,-25,2,-2,0,-1,0
1528882205557988,7,12,27,8,-1,-3,-1,-2
1528882205564959,8,4,7,0,-1,0,0,8
1528882205564959,-30,-3,-15,-7,-5,-6,-1,-4
1528882205580920,-29,-23,-37,-14,-4,-2,-5,-16
1528882205580920,37,-4,15,17,13,13,18,30
1528882205582860,-14,9,40,8,-4,-6,-14,-49
1528882205582860,45,2,-41,-15,-9,-7,-1,12
1528882205603865,-47,-11,30,-2,-4,-6,-11,-24
1528882205603865,-23,-35,-31,-16,-8,-9,-17,-22
1528882205604855,8,9,-21,11,9,5,11,15
1528882205604855,6,34,10,-12,-10,-3,2,-5
1528882205617813,55,22,90,21,9,8,14,102
1528882205617813,-46,32,-3,-5,1,2,6,-33
1528882205624807,-21,-25,-3,-3,-3,-3,-17,-19
1528882205624807,4,-35,-25,-1,-3,-3,-11,-46
1528882205642754,24,19,-13,3,8,0,9,14
1528882205642754,-10,-39,12,-7,-4,20,2,13
1528882205644748,4,37,10,7,-2,16,20,52
1528882205644748,20,-14,-36,-8,-5,-17,-10,25
1528882205654703,0,-18,-14,-6,-4,1,3,11
1528882205654703,-32,-10,10,0,0,-20,-20,-27
1528882205663646,13,-3,-39,-10,-10,-11,-5,-17
1528882205663646,13,-3,24,10,4,2,8,66
1528882205677658,-45,37,1,-8,-6,-5,-8,-98
1528882205677658,51,25,-33,-7,-7,-6,-2,33
1528882205684640,25,30,0,10,14,12,0,13
1528882205684640,-10,73,39,-1,-3,-13,-4,-9
1528882205701577,-9,-59,-89,-11,-9,-16,-16,-49
1528882205701577,2,-26,-6,3,5,25,41,99
1528882205702547,-57,51,37,6,1,-2,-13,-88
1528882205702547,-13,-16,6,7,9,4,-3,-22
1528882205714507,20,-60,26,-4,-4,-8,-11,2
1528882205714507,-14,0,18,2,-5,-29,-11,12
1528882205723551,-14,-11,-12,-2,0,-8,14,-7
1528882205723551,19,-8,-2,-4,-4,41,5,7
1528882205737503,7,74,23,3,3,-3,14,1
1528882205737503,-17,-38,-9,-6,-6,1,-19,-15
1528882205744429,2,-40,-14,-5,-4,-8,4,22
1528882205744429,22,15,9,-2,1,-18,0,11
1528882205761382,-2,-39,-18,6,-4,6,-3,5
1528882205761382,14,46,1,-1,1,-9,-5,-23
1528882205762428,6,37,8,0,0,3,-4,3
1528882205762428,-43,-16,7,8,-3,11,6,-20
1528882205774400,25,-29,-11,3,14,4,5,30
1528882205774400,6,5,-7,-17,-6,-4,0,-22
1528882205783377,-7,-22,6,-1,-5,-1,-2,12
1528882205783377,9,10,7,-8,-6,-6,-3,11
1528882205798338,12,-24,-5,1,-2,-2,-11,-50
1528882205798338,-16,7,0,1,-2,-6,-6,-24
1528882205804323,12,-6,26,-1,-2,0,-3,14
1528882205804323,-19,-26,-3,5,0,-7,-4,57
1528882205821274,13,43,-17,-7,-3,-1,12,-7
1528882205821274,-8,-3,22,-3,-1,25,-6,4
1528882205822271,14,-34,-1,-5,-3,-3,1,6
1528882205822271,-13,10,2,-7,-3,-8,-7,-21
1528882205843183,-12,84,23,11,2,-6,-9,15
1528882205843183,9,30,-17,-8,-1,0,4,-12
1528882205845159,-21,-63,-42,6,-8,-6,0,4
1528882205845159,-11,63,-25,-2,3,0,-5,-31
1528882205858160,17,14,1,-18,1,6,5,31
1528882205858160,-12,-25,19,13,1,-12,-8,-31
1528882205865105,44,21,-3,7,6,3,4,24
1528882205865105,-6,-74,14,-2,-3,4,10,-1
1528882205882059,-46,-6,16,7,-4,0,-8,-25
1528882205882059,1,1,3,-4,-3,-4,5,7
1528882205883056,9,-9,-11,-2,2,4,0,-16
1528882205883056,21,79,-5,6,3,0,2,10
1528882205903292,-7,24,2,-7,-6,-2,3,18
1528882205903292,13,-20,-39,0,-3,-3,1,-7
1528882205905278,-12,106,-42,-9,-3,-3,-5,2
1528882205905278,-9,-23,100,11,-1,-2,-4,-22
1528882205918701,4,6,-65,3,-2,-1,3,7
1528882205918701,9,4,-5,0,8,2,8,6
1528882205925549,-7,22,11,-6,-2,-2,-4,-9
1528882205925549,4,3,-29,-7,6,7,5,8
