timestamp,emg1,emg2,emg3,emg4,emg5,emg6,emg7,emg8
1528442079455533,-1,4,12,4,-1,-2,0,-1
1528442079455533,0,-1,-6,8,-11,-4,-2,0
1528442079464475,1,3,3,-2,5,0,-3,-1
1528442079464475,-3,-5,-12,-12,-8,-5,-4,-5
1528442079475444,-1,0,6,1,-18,-12,-8,-1
1528442079475444,3,3,12,4,12,15,10,3
1528442079478436,1,1,20,13,4,4,9,4
1528442079478436,1,-3,-12,5,19,9,5,3
1528442079486414,-2,-8,-33,-17,-17,-7,-6,-5
1528442079486414,-1,8,36,23,24,15,4,0
1528442079493396,-2,-4,-18,-18,20,12,3,-2
1528442079493396,-9,-6,8,-11,-34,-26,-14,-9
1528442079500377,-3,-7,-10,4,17,-11,-10,-2
1528442079500377,-2,-3,-13,-2,-3,-7,-6,-4
1528442079515376,2,4,1,7,1,18,14,5
1528442079515376,6,6,13,5,5,18,10,7
1528442079526308,-2,-1,0,-4,-16,-21,-6,-3
1528442079526308,-3,-8,-21,-20,-15,-23,-20,-4
1528442079538302,-2,-1,-3,4,3,10,-1,-5
1528442079538302,1,-1,0,1,-11,-21,1,0
1528442079545273,0,0,0,-2,4,3,-3,-1
1528442079545273,0,-2,3,0,6,35,13,3
1528442079553236,1,-2,0,2,-7,-3,5,3
1528442079553236,2,4,1,1,16,11,4,2
1528442079560217,-1,0,2,6,15,-5,-2,0
1528442079560217,-5,-3,-10,-16,-38,-49,-22,-8
1528442079577199,-3,-3,-4,-10,-38,-24,-11,-5
1528442079577199,0,-2,-1,12,29,48,20,0
1528442079583193,3,4,4,5,30,-2,-6,2
1528442079583193,1,-1,-6,-9,-17,3,-6,2
1528442079598116,1,0,-5,-6,-38,-31,8,4
1528442079598116,-1,-1,0,1,13,9,-6,-4
1528442079607092,-5,-8,-5,4,9,17,9,-2
1528442079607092,0,2,4,-9,-8,2,12,-5
1528442079616067,0,-1,3,-6,-15,-26,-25,-7
1528442079616067,-1,-1,8,3,8,-6,0,3
1528442079621057,-2,-1,10,5,20,23,9,2
1528442079621057,-7,-6,3,-2,-16,-15,-11,-17
1528442079636014,9,3,0,15,24,26,9,16
1528442079636014,-3,-4,-38,-16,-43,-47,-14,-2
1528442079642996,-2,-2,-34,0,25,21,4,-5
1528442079642996,1,-1,-31,9,24,62,38,14
1528442079660948,0,2,-15,11,25,-24,-13,-5
1528442079660948,2,4,-7,-2,-15,4,-11,-6
1528442079672920,2,7,26,8,29,23,-4,0
1528442079672920,3,3,30,15,45,36,19,10
1528442079687875,2,4,31,-7,-23,16,19,3
1528442079687875,5,4,9,-9,-4,-16,-2,8
1528442079695869,-7,-7,-5,-1,-14,4,1,-8
1528442079695869,-3,1,-13,-10,-21,-46,-26,-1
1528442079710814,-1,-1,1,3,1,5,-2,-7
1528442079710814,0,-1,0,12,53,37,5,1
1528442079732756,3,-1,-1,9,13,-9,0,1
1528442079732756,-3,-6,-4,-13,-19,10,-2,-1
1528442079740735,-4,-8,1,0,-11,-24,-13,-5
1528442079740735,6,14,4,3,22,20,6,6
1528442079747717,0,-5,-2,3,1,-9,0,2
1528442079747717,0,4,-8,-3,-25,-12,1,-4
1528442079755694,-3,0,-2,-6,-14,-15,-6,-4
1528442079755694,1,-3,-2,6,25,25,6,2
1528442079770654,1,-4,3,-3,-13,-20,-7,-1
1528442079770654,3,-2,5,2,28,23,7,1
1528442079777636,-2,0,-3,-2,-8,-9,-6,-3
1528442079777636,-1,-2,0,-10,-11,-4,0,2
1528442079792596,4,6,10,-1,-14,3,2,2
1528442079792596,-1,-5,-4,1,17,-4,-4,-2
1528442079800575,2,2,4,-5,-19,-8,-5,-3
1528442079800575,-2,-1,6,-3,-3,-2,-3,-2
1528442079815535,3,4,4,21,94,65,22,5
1528442079815535,0,4,-3,-8,-28,-21,-10,-3
1528442079823527,-6,-12,-4,-8,-33,-10,-5,-3
1528442079823527,-4,-5,3,11,27,-10,-3,-4
1528442079845481,-1,-2,0,-12,-35,-17,-5,2
1528442079845481,0,-1,-1,-2,0,8,5,-2
1528442079860467,-1,-1,0,-1,-26,-10,-1,-1
1528442079860467,0,7,5,14,17,4,-3,-2
1528442079868394,0,-9,-11,-12,29,30,19,6
1528442079868394,4,-2,-1,-6,-15,-19,-8,2
1528442079884351,-3,2,1,7,8,-3,-7,-10
1528442079884351,2,0,0,-3,-8,-2,11,8
1528442079890334,7,4,6,11,3,-1,-10,-5
1528442079890334,-7,-2,-4,-7,-7,5,-1,-7
1528442079898354,-5,-6,-3,-5,-7,-21,-6,-2
1528442079898354,-1,-1,3,-7,-24,7,10,3
1528442079905296,-2,-3,-2,7,34,12,-2,0
1528442079905296,2,4,3,9,5,-6,-2,-3
1528442079913280,-3,0,-4,-12,-7,-1,-7,-1
1528442079913280,-8,-12,-1,-5,-8,-14,-12,-6
1528442079920256,3,0,-4,-3,-18,-5,2,6
1528442079920256,-2,-1,-1,0,-2,-5,-7,-9
1528442079935216,1,3,2,2,-21,1,9,8
1528442079935216,-6,-13,-16,-2,48,6,-4,-7
1528442079943194,0,-2,0,1,3,15,15,7
1528442079943194,-1,0,5,9,-4,-14,-10,-5
1528442079958205,2,3,-3,-17,0,10,1,1
1528442079958205,-3,-3,-4,-1,-28,-16,-6,2
1528442079965136,-2,0,-1,-3,-12,-6,-1,-2
1528442079965136,-1,0,2,3,18,8,5,1
1528442079973150,1,-1,1,1,-18,-14,-2,-1
1528442079973150,4,3,6,5,7,-3,0,3
1528442079980097,-7,0,0,-6,-16,-2,-4,-7
1528442079980097,-1,0,-2,-5,0,-5,-1,1
1528442079996052,1,-1,3,10,57,17,-1,-2
1528442079996052,-1,-1,0,1,-26,-18,-8,-7
1528442080003034,-3,7,3,3,7,6,-1,-3
1528442080003034,3,-11,-2,-1,16,16,6,5
1528442080017994,2,1,-1,5,-19,-6,0,-2
1528442080017994,-2,1,1,8,3,-1,-8,-4
1528442080025972,-5,-7,-3,-3,-10,-3,5,-5
1528442080025972,0,14,-3,-8,-21,-13,-2,2
1528442080032998,-1,-2,1,0,26,11,-8,-4
1528442080032998,-1,2,6,5,1,5,12,4
1528442080040990,-7,-10,-10,-21,-46,-28,-19,-10
1528442080040990,6,2,2,8,42,25,9,5
1528442080062874,-5,-3,-8,-11,-22,-17,-10,-7
1528442080062874,-1,2,0,-1,3,12,2,2
1528442080070881,3,1,2,0,-19,-14,-3,5
1528442080070881,-5,-3,-4,0,3,0,1,-5
1528442080085813,2,0,-3,7,15,8,5,2
1528442080085813,-2,-4,-5,-10,-16,-10,-4,-6
1528442080092824,-1,2,4,2,14,-3,-5,2
1528442080092824,1,1,2,-3,-15,-8,-4,-1
1528442080100807,0,-2,-2,-4,-8,0,2,2
1528442080100807,-1,-4,-16,-22,-10,7,3,-2
1528442080107769,1,5,27,42,24,0,-3,-1
1528442080107769,-4,-6,-19,-30,-36,-9,1,-4
1528442080115734,-3,-4,-1,5,30,5,-3,-10
1528442080115734,-1,-1,-4,-9,-7,0,-5,-4
1528442080122741,-3,0,-17,-23,11,-1,-11,-8
1528442080122741,5,4,30,44,17,14,10,14
1528442080130693,-7,-12,-25,-31,-36,-10,-1,2
1528442080130693,1,-3,-2,-14,-22,-15,-6,-1
1528442080137674,-7,-3,8,15,16,13,-6,-11
1528442080137674,-3,-2,-23,-32,3,10,-7,-11
1528442080167595,2,5,21,26,1,-4,-13,-1
1528442080167595,35,12,5,-1,10,18,84,89
1528442080175599,-1,-3,-5,-5,-16,0,10,0
1528442080175599,-16,-10,-11,-14,-10,-9,-4,-28
1528442080190569,21,7,22,23,6,4,2,33
1528442080190569,-21,-5,0,-1,-11,-13,-26,-47
1528442080197514,-15,0,-15,-1,78,57,9,-30
1528442080197514,3,8,27,50,3,-2,1,2
1528442080213471,0,0,-14,-27,-9,-2,12,6
1528442080213471,-7,-1,6,31,-9,-21,-27,-11
1528442080220479,0,-3,-2,-19,-15,6,2,5
1528442080220479,-3,-8,-15,-32,-11,-12,-20,0
1528442080235412,9,1,9,-1,2,6,23,10
1528442080235412,-12,-10,-15,1,15,6,-9,-16
1528442080243419,-4,1,20,7,-16,-15,-15,-15
1528442080243419,-3,-17,-35,-15,-17,-14,-19,-12
1528442080258352,2,10,45,63,22,17,21,14
1528442080258352,-3,-9,-17,-27,-6,-10,-33,-25
1528442080273350,6,0,15,3,-6,-8,37,36
1528442080273350,7,5,9,11,-8,6,15,14
1528442080280298,-13,-3,-2,-20,-10,-6,7,-8
1528442080280298,-9,-3,16,23,10,3,-13,-21
1528442080288318,9,4,-4,-17,-31,-18,6,14
1528442080288318,5,1,-6,-3,2,1,9,14
1528442080303232,-4,-8,-50,-35,-3,2,-2,-4
1528442080303232,-12,-16,-14,31,8,-4,-22,-29
1528442080310213,6,4,6,6,2,1,-6,7
1528442080310213,-6,-9,-28,-21,-4,-11,-11,0
1528442080318192,-5,-5,-3,-2,2,3,-8,-15
1528442080318192,2,6,15,7,9,2,4,-1
1528442080325208,-11,-9,3,8,-16,-8,-5,-6
1528442080325208,8,2,-15,-36,0,10,29,29
1528442080333153,3,4,5,-2,-9,-15,-27,-18
1528442080333153,6,8,5,-16,-2,4,16,34
1528442080341274,-6,0,-1,7,15,6,-9,-33
1528442080341274,4,3,20,17,7,4,-4,5
1528442080356090,3,1,6,0,4,12,23,19
1528442080356090,-2,2,6,0,-4,0,2,-2
1528442080363071,2,1,-5,-1,13,0,-9,10
1528442080363071,-3,2,-3,10,-6,-2,-2,-15
1528442080386078,-5,-5,-14,4,8,5,0,-8
1528442080386078,-1,-2,-8,-15,-13,-7,0,4
1528442080393802,3,4,2,9,12,10,1,-4
1528442080393802,-3,-3,-4,-3,4,-4,-3,-4
1528442080400560,-5,-5,-12,0,-1,-3,-15,-12
1528442080400560,2,3,-3,-20,-6,-7,-4,0
1528442080408540,-1,-4,-24,-5,-7,-4,-1,1
1528442080408540,-4,0,22,36,-3,-6,-5,-9
1528442080430654,0,-6,5,1,8,2,-2,1
1528442080430654,-4,-6,-18,-11,-3,2,-2,4
1528442080438813,1,9,30,-13,-11,-2,-5,-8
1528442080438813,0,3,28,49,23,9,5,5
1528442080445859,-1,1,-9,-42,-23,-13,-14,-5
1528442080445859,-5,-7,17,15,2,-4,-17,-15
1528442080453779,4,5,-22,-15,6,8,17,20
1528442080453779,1,-4,-13,-16,-6,1,8,-10
1528442080460599,-12,-34,-28,2,-8,-10,-33,-15
1528442080460599,5,36,48,-7,0,10,39,18
1528442080467552,2,12,-6,38,18,-5,-13,-3
1528442080467552,-9,-27,-19,-23,-3,0,2,-2
1528442080475546,-3,5,-6,9,-7,-3,-11,-14
1528442080475546,-5,-47,-71,6,4,2,-8,-2
1528442080483570,7,37,44,2,-20,-18,4,5
1528442080483570,9,37,-11,-17,-20,-3,3,5
1528442080490748,-16,-95,-98,-29,29,11,5,-3
1528442080490748,-12,18,47,12,8,11,-2,-9
1528442080498522,9,18,-3,33,17,2,1,4
1528442080498522,3,4,-6,-41,-2,-1,-17,-10
1528442080513429,1,36,31,8,-40,-23,-18,-10
1528442080513429,12,-7,-24,-9,1,11,36,18
1528442080520676,6,-42,15,-10,-3,2,-16,1
1528442080520676,-13,-30,56,21,5,-15,-43,-10
1528442080535636,-11,29,42,7,10,5,16,-6
1528442080535636,23,38,41,-6,3,8,11,19
1528442080543600,-13,-28,6,-12,-16,-12,-14,-13
1528442080543600,-11,-4,-22,-16,-4,1,38,22
1528442080550866,1,-4,16,25,8,4,-5,-19
1528442080550866,-25,47,13,7,-14,-11,-31,-60
1528442080558655,-1,3,-78,-3,20,8,0,-12
1528442080558655,6,-21,-74,-4,-1,-1,-13,7
1528442080573787,-11,-18,-74,-3,-10,-12,-5,6
1528442080573787,16,-4,-5,4,2,3,18,26
1528442080580599,-9,-30,-52,-25,-20,-8,-17,-9
1528442080580599,9,0,61,15,6,-4,3,16
1528442080603537,15,43,21,-17,-11,3,38,21
1528442080603537,-10,-32,11,17,7,5,6,-7
1528442080610740,-18,-19,-34,-28,-8,-7,-21,-19
1528442080610740,30,14,14,38,24,24,25,41
1528442080618741,5,2,25,-27,-4,14,26,9
1528442080618741,12,14,25,0,-3,-8,-11,10
1528442080633700,-15,14,18,14,-1,-9,3,-31
1528442080633700,-10,-20,-38,-49,-21,-1,10,-6
1528442080648681,-8,-8,2,24,8,3,-12,5
1528442080648681,71,46,-11,-11,5,10,18,71
1528442080670607,-16,-18,-23,-6,2,-2,-22,-29
1528442080670607,-10,-28,29,2,-13,-24,-29,4
1528442080678364,36,20,-15,11,25,27,27,30
1528442080678364,6,5,17,-24,-30,-22,-34,3
1528442080685565,-4,-5,-8,0,14,9,32,12
1528442080685565,-16,-7,-15,19,15,2,-28,-25
1528442080693754,13,-16,-19,-22,-28,-12,5,24
1528442080693754,-3,12,46,28,19,-1,-10,-10
1528442080700838,12,13,-3,-6,-10,-6,-12,3
1528442080700838,-7,-8,-46,-13,-34,6,43,15
1528442080708876,-28,-13,19,4,34,13,-11,-30
1528442080708876,5,1,-35,-3,7,3,6,14
1528442080715862,31,28,22,7,-1,-11,-25,4
1528442080715862,-26,-41,-46,-20,-3,-1,13,-23
1528442080731233,1,31,75,27,-7,0,-2,-6
1528442080731233,24,19,11,7,15,28,54,49
1528442080737952,15,16,7,9,-3,-18,-3,20
1528442080737952,-35,-44,-45,-41,0,-6,-26,-51
1528442080761430,-6,-1,39,21,-5,12,7,-6
1528442080761430,-8,-11,-26,-33,-24,-24,-20,-5
1528442080768166,15,8,39,34,1,8,10,29
1528442080768166,-25,-15,-24,-17,5,-15,-21,-37
1528442080783438,0,-10,3,-8,9,8,21,12
1528442080783438,10,7,-17,7,7,0,-10,3
1528442080798115,-12,-1,-6,-3,-6,9,-9,-21
1528442080798115,4,-4,-13,2,14,9,2,14
1528442080813191,-1,-24,-26,-16,-14,7,22,18
1528442080813191,3,2,-2,9,1,-13,-1,-4
1528442080821279,-3,-5,12,3,-12,-5,-14,-2
1528442080821279,-3,8,21,7,27,7,-8,-7
1528442080835986,1,-5,5,-4,-8,8,40,28
1528442080835986,-11,-6,-8,-2,-7,-18,-13,-12
1528442080851201,3,-1,-24,-7,-4,-5,-2,13
1528442080851201,5,-9,-43,-10,-3,-5,-14,-11
1528442080858166,-16,1,8,5,5,-4,-24,-33
1528442080858166,4,-2,20,3,-24,-13,-8,14
1528442080880448,2,2,-1,1,13,-1,1,4
1528442080880448,8,-1,-27,-2,12,31,10,2
1528442080888427,-4,5,32,6,-1,-13,-8,-7
1528442080888427,6,-2,-16,-5,-24,-9,6,10
1528442080903618,-3,-5,-24,-4,13,11,0,-2
1528442080903618,6,15,21,14,0,6,4,3
1528442080918337,-1,-1,-7,-6,-1,-2,-11,-5
1528442080918337,-1,-4,16,8,7,3,5,10
1528442080934492,-2,1,-22,-10,-5,7,18,2
1528442080934492,4,-1,8,3,7,2,2,7
1528442080941335,-6,-3,-2,-7,-8,-9,-15,-15
1528442080941335,-1,-2,1,2,-1,4,15,-13
1528442080956239,-1,6,3,1,4,-2,3,2
1528442080956239,0,-3,-5,-1,1,6,3,7
1528442080971197,-1,0,-8,-3,-7,-8,-7,-7
1528442080971197,0,4,14,1,-1,-1,0,-3
1528442080978176,-1,-3,-8,-3,0,-1,1,2
1528442080978176,2,0,-1,7,6,1,-4,-2
1528442080993134,-6,-4,-1,-14,-10,-7,-7,-12
1528442080993134,0,0,1,0,-4,-6,-6,-2
1528442081000413,-2,-1,-3,-1,2,4,3,3
1528442081000413,0,2,2,0,0,1,0,-1
1528442081030380,1,-2,-3,6,-2,-3,-1,-1
1528442081030380,0,3,8,-3,-2,-3,-4,-4
1528442081045293,-1,0,-7,-2,-4,-3,-2,-2
1528442081045293,-1,1,-1,0,1,1,-1,1
1528442081053280,-3,-1,-2,-1,-1,-1,0,-3
1528442081053280,-2,-1,-11,0,1,-1,-5,-1
1528442081069238,-2,2,-18,-1,-1,2,0,-6
1528442081069238,-1,-5,-18,-4,-3,-5,-2,3
1528442081083247,-1,-3,-2,-4,-3,-2,-1,-1
1528442081083247,0,-1,26,-1,3,5,5,1
1528442081090174,1,-1,29,-3,-1,-1,0,1
1528442081090174,-1,-3,29,-1,-2,-4,-6,5
1528442081105133,0,2,7,-1,-1,-1,3,-1
1528442081105133,-2,-5,6,3,3,3,-2,-1
1528442081113112,-1,3,5,0,0,-2,-6,-3
1528442081113112,1,1,-19,-1,-1,2,10,2
1528442081128117,-3,-1,0,-4,-2,1,-1,-3
1528442081128117,1,-1,16,0,-3,-5,-3,2
1528442081137048,-1,-2,-12,-1,-2,-1,2,-3
1528442081137048,-5,-3,-18,0,0,0,-4,-6
1528442081151039,3,1,-16,12,12,17,10,3
1528442081151039,-1,-2,1,0,-5,-2,4,4
1528442081173006,-2,-2,11,-20,-14,-22,-7,-3
1528442081173006,-5,0,-2,1,0,5,-2,-4
1528442081180952,0,0,4,-4,4,10,14,5
1528442081180952,1,4,19,10,7,9,2,-4
1528442081196887,1,4,5,9,-3,1,-4,2
1528442081196887,2,-1,-12,-11,-9,-16,-7,-2
1528442081202927,0,-1,-3,-2,-5,-7,-6,-2
1528442081202927,-2,1,9,-4,0,-1,-1,-2
1528442081225864,-1,1,20,-1,-2,2,2,3
1528442081225864,0,2,-3,-6,-3,-10,-7,-3
1528442081240824,-1,-2,-4,-2,-4,-9,-6,0
1528442081240824,0,-6,-17,-4,-4,-2,-4,-3
1528442081255791,-3,-3,-11,-2,-4,-10,-5,-3
1528442081255791,-2,-3,-2,2,0,5,2,-1
1528442081262756,1,-2,-12,-1,4,9,2,1
1528442081262756,0,-2,-11,-4,2,5,4,0
1528442081277716,-4,-1,9,-6,-2,-2,0,0
1528442081277716,-1,2,24,3,-1,-9,-6,-2
1528442081292632,1,4,5,-1,-2,-5,-6,-1
1528442081292632,-3,-3,0,-5,-6,-8,-3,-3
1528442081307636,-4,-2,-7,-2,-3,-3,-7,-4
1528442081307636,-3,-7,-11,3,-1,-4,-2,-2
1528442081315575,-1,-1,-6,-2,4,5,7,1
1528442081315575,2,2,-13,-4,-1,4,2,2
1528442081338548,-5,-8,-11,0,-4,-11,-6,-4
1528442081338548,-1,-6,-11,2,1,12,2,-1
1528442081353488,1,-2,-8,-7,3,12,8,3
1528442081353488,0,2,-1,3,1,-3,-1,1
1528442081360673,-1,-2,-8,-8,-9,-18,-9,-2
1528442081360673,-1,-5,-9,-4,-4,-2,-3,-2
1528442081375441,-2,1,-3,-2,2,2,0,1
1528442081375441,0,-1,-3,1,3,8,6,-1
1528442081383420,-1,-1,-4,-3,-5,-7,-8,-1
1528442081383420,-3,0,0,5,-1,-4,-4,-2
1528442081390398,1,0,4,14,6,12,5,0
1528442081390398,-1,2,8,-6,-2,-2,-1,-1
1528442081405366,0,-1,-1,-25,-5,-3,1,0
1528442081405366,-3,-2,0,5,-1,-3,-5,-3
1528442081413309,0,1,3,-2,-3,0,0,-2
1528442081413309,-2,-1,5,6,-2,-6,-4,-2
1528442081428520,-2,1,8,9,0,1,1,-1
1528442081428520,-1,0,2,-3,0,5,4,5
1528442081443229,-2,0,2,0,-1,1,-1,-3
1528442081443229,0,0,-4,-4,-4,-4,-3,-2
1528442081459187,-2,1,0,-2,-3,-2,-2,-1
1528442081459187,-2,1,1,-4,-2,-2,-1,0
1528442081473787,-1,0,7,12,4,2,1,-2
1528442081473787,-3,4,5,0,-2,-1,0,-2
1528442081480328,-2,1,-1,-6,-3,-2,-3,-1
1528442081480328,-3,3,0,-5,-2,-2,-1,-1
1528442081495695,-2,2,1,-6,-3,-3,-1,-1
1528442081495695,-2,3,-2,3,3,1,1,0
1528442081510251,-2,-5,-11,-3,-1,0,-2,-1
1528442081510251,-1,-6,-7,-6,-2,0,-1,-3
1528442081526316,-1,-5,-7,1,-3,0,-2,1
1528442081526316,-3,-9,-11,-3,-3,-1,-2,-1
1528442081533770,1,-1,-4,-3,-3,-1,1,0
1528442081533770,2,5,0,5,-1,-2,0,-1
1528442081547794,-1,4,1,8,7,1,0,-1
1528442081547794,0,1,8,-13,-7,0,-3,-2
1528442081556027,-2,-3,11,6,0,-2,0,0
1528442081556027,1,-2,9,-1,-1,-2,-2,0
1528442081570714,-1,-7,2,0,-5,-2,0,-1
1528442081570714,1,-7,1,8,3,0,-1,-3
1528442081577700,-1,-11,-9,-24,-2,0,0,-2
1528442081577700,0,-5,3,-1,-2,-1,0,1
1528442081593147,-2,-2,-2,1,-2,-2,-1,-3
1528442081593147,-2,-1,-4,-2,0,-2,-2,-1
1528442081608874,-2,-2,-6,-6,-4,2,-2,0
1528442081608874,-1,-4,-5,-3,0,0,-1,-1
1528442081616155,1,-1,1,12,4,-1,-2,0
1528442081616155,-5,-8,-12,0,0,0,0,-1
1528442081630821,1,-3,-8,-20,-5,0,-1,0
1528442081630821,0,0,-1,5,-1,-1,-1,-1
1528442081645976,0,-1,-1,-4,-1,-2,-2,-2
1528442081645976,-2,2,-3,1,-1,-1,-2,-2
1528442081653386,-1,0,4,12,1,-2,0,0
1528442081653386,-3,-3,0,-5,-1,-1,-3,0
1528442081667914,-1,2,1,-2,-4,-2,-1,-1
1528442081667914,-2,-4,-7,-8,-2,0,-3,-3
1528442081675894,0,0,1,15,6,2,0,-1
1528442081675894,0,0,-5,-5,-2,-1,-1,-1
1528442081690309,-2,0,-4,-6,-3,-2,-1,-1
1528442081690309,-2,-4,-3,3,0,0,3,1
1528442081706049,-1,-2,-5,-3,0,1,1,2
1528442081706049,-1,0,3,-2,0,-1,1,1
1528442081713030,1,1,0,2,1,2,1,-1
1528442081713030,2,4,4,-1,3,2,-1,0
1528442081727987,0,-1,-2,-2,0,-1,-2,-1
1528442081727987,2,0,-1,-2,-2,-1,0,0
1528442081736018,1,1,3,4,0,-2,-2,1
1528442081736018,-1,0,-2,-3,-2,0,-1,-1
1528442081750929,-2,-2,-2,-1,-2,-3,0,-1
1528442081750929,-1,-1,-1,-1,-1,-1,-2,-1
1528442081765629,-1,0,0,0,-2,-3,-1,-3
1528442081765629,1,0,0,0,0,-1,-3,-1
1528442081773367,-1,0,1,-2,-3,0,0,-1
1528442081773367,-1,0,-1,-1,0,-3,-2,-2
1528442081788665,-2,1,1,-1,-1,-3,-2,-2
1528442081788665,-2,-6,0,-2,0,-1,2,0
1528442081795619,0,-1,-2,-2,-1,0,0,-1
1528442081795619,0,-3,-1,-1,0,0,0,-2
1528442081810299,-3,0,-1,1,0,-1,-1,0
1528442081810299,0,1,0,1,-4,-3,-2,0
1528442081818629,-2,0,-1,-1,-2,-2,1,-1
1528442081818629,0,1,2,0,-2,-1,0,-1
1528442081833553,-2,-3,-3,-1,-2,0,-1,-1
1528442081833553,1,2,0,0,0,0,-1,0
1528442081847899,0,-3,-6,-3,-3,-2,-1,-1
1528442081847899,-1,1,0,-2,1,0,-1,-2
1528442081856270,-2,0,-2,-1,-1,-2,-1,-1
1528442081856270,-1,-2,1,-3,-2,-1,-1,0
1528442081870844,0,-1,0,1,0,-1,-2,-2
1528442081870844,1,1,-3,-3,0,-1,0,-3
1528442081878822,-1,-2,-3,-3,-2,-2,0,0
1528442081878822,-1,1,0,-2,-2,-3,-2,-3
1528442081893891,-3,-3,-4,-1,-1,-2,-1,-1
1528442081893891,-1,-1,-1,0,0,0,-1,-1
1528442081907794,0,-3,-1,-1,-1,-1,0,-1
1528442081907794,0,-1,-1,-1,0,-1,1,0
1528442081915755,0,2,3,-1,0,0,-1,-2
1528442081915755,-3,-5,-5,-1,0,0,-1,-1
1528442081930717,-2,0,-2,-3,0,-2,-2,-1
1528442081930717,-1,1,0,1,-1,-1,-1,-3
1528442081937662,0,-1,-2,-2,-1,-1,-1,-1
1528442081937662,-2,-1,-1,0,1,-1,-2,0
1528442081953624,0,0,0,1,-2,-1,-1,-1
1528442081953624,-1,-1,-3,-2,-2,0,-1,-2
1528442081968703,-2,-2,-3,-2,-1,-1,0,-1
1528442081968703,-1,1,0,1,0,0,-1,-2
1528442081975689,-1,1,0,-1,-1,0,-2,-2
1528442081975689,0,0,0,-1,-1,-1,-1,-1
1528442081990903,0,-1,1,-1,-2,0,0,-1
1528442081990903,-1,-3,-1,-2,-1,-1,-2,0
1528442081998665,-1,1,2,0,0,-2,0,-1
1528442081998665,-1,0,0,-2,-1,-1,-1,0
1528442082012683,-2,1,3,1,-1,1,-1,-1
1528442082012683,-1,-1,-2,-4,-1,-1,-2,-2
1528442082020659,-1,1,1,0,1,-3,-1,-2
1528442082020659,-1,1,1,0,-2,-2,0,-1
1528442082042847,-1,-1,-2,-1,-1,-1,-2,-2
1528442082042847,-2,-2,-1,0,1,0,0,0
1528442082050875,-1,-6,-2,0,-1,-2,0,-1
1528442082050875,-1,-1,-1,-1,-2,-2,0,-2
1528442082065588,0,1,1,-1,-2,0,0,-1
1528442082065588,-1,-1,1,2,-1,-1,-2,-1
1528442082081160,0,0,-1,-2,-2,1,-1,1
1528442082081160,-2,0,0,-1,-2,-2,-1,0
1528442082088142,-2,-4,-3,-4,-1,0,0,0
1528442082088142,-1,0,-1,-1,0,1,-1,0
1528442082096115,-1,-3,-3,-1,0,-1,-3,-1
1528442082096115,0,-1,-2,1,-1,-1,-1,0
1528442082103074,-1,-1,1,-1,0,-1,0,-1
1528442082103074,-2,-2,-1,-1,0,-1,0,-1
1528442082118045,-1,0,-2,-2,-3,1,0,-2
1528442082118045,-1,0,-2,-1,0,-3,-1,0
1528442082132807,-2,0,0,0,-2,-3,-2,0
1528442082132807,1,-1,1,-1,-2,0,-2,-2
1528442082141314,-1,-1,-1,0,-1,1,-1,-2
1528442082141314,-1,-1,-1,-1,-1,1,-1,-1
1528442082155565,-1,-2,-1,-2,-2,-3,-1,0
1528442082155565,-1,0,-1,-1,-1,0,0,-1
1528442082163558,-1,-1,-1,-2,-2,-2,0,-1
1528442082163558,0,-2,1,0,1,-1,0,0
1528442082177914,-1,0,0,2,-3,-2,-3,2
1528442082177914,0,0,-2,-1,0,0,-1,0
1528442082193233,1,-1,-2,-1,-2,-1,0,-1
1528442082193233,0,-3,-1,-2,-1,-2,-1,-1
1528442082201310,-1,0,-1,-2,0,-2,0,0
1528442082201310,-4,-1,-3,-3,-1,0,0,-2
1528442082215857,-1,-2,-1,-2,0,0,-1,0
1528442082215857,-3,-1,-3,-1,0,0,1,-1
1528442082223831,0,-1,0,-1,-1,-2,-2,-2
1528442082223831,1,-1,-1,-2,-2,0,-2,-2
1528442082238862,-2,-2,-1,-2,-3,-1,-2,-1
1528442082238862,-2,-3,-3,-1,-3,-2,-1,-2
1528442082253848,0,0,0,1,0,0,0,-1
1528442082253848,-2,-1,-3,-2,-1,1,-3,0
1528442082261066,0,-1,-3,-2,0,0,-1,-2
1528442082261066,0,-1,1,-1,-2,-1,-2,-1
1528442082275766,-1,0,2,0,-3,-1,0,-1
1528442082275766,1,0,1,-1,-1,-3,-2,-1
1528442082283791,-1,-1,-2,0,1,1,-1,0
1528442082283791,0,-1,-2,-3,-1,0,-1,-2
1528442082297944,-1,-2,-1,0,-2,-1,-1,-1
1528442082297944,-1,0,1,0,-1,-3,0,-1
1528442082312667,0,-2,-1,-2,-1,-2,-1,-1
1528442082312667,-2,-1,-1,-2,-2,0,0,0
1528442082321291,-1,0,0,0,-1,-2,-1,0
1528442082321291,-1,-1,-1,-1,0,0,0,1
1528442082336292,0,-2,-2,-1,-1,-1,0,-1
1528442082336292,0,-2,0,-1,-2,-1,0,1
1528442082343371,-2,-4,-6,-5,-2,1,-1,0
1528442082343371,-2,-1,-2,-2,-1,-1,-2,-2
1528442082358332,1,2,0,-1,0,-1,-1,-1
1528442082358332,1,2,1,1,1,1,-2,-1
