timestamp,emg1,emg2,emg3,emg4,emg5,emg6,emg7,emg8
1528881242433716,1,-1,1,-2,0,-1,-3,-1
1528881242433716,-2,-2,-3,-1,-2,-1,-1,-3
1528881242441695,-2,-2,-3,0,0,0,0,-1
1528881242441695,-1,1,0,0,-3,-1,0,1
1528881242448675,0,-2,-2,1,0,0,1,-2
1528881242448675,-1,-9,-2,0,0,-2,-2,-2
1528881242456655,-1,15,2,-2,0,-1,-2,-1
1528881242456655,-1,-4,-1,1,-1,-1,-2,-2
1528881242474606,-1,3,0,-3,-1,0,-1,0
1528881242474606,-3,-12,0,-3,-1,-2,-1,-1
1528881242478597,0,-5,-2,-1,-1,-1,-1,-2
1528881242478597,0,2,1,-1,1,-1,-1,-1
1528881242493555,-2,-3,-2,-2,-1,-2,0,-2
1528881242493555,-1,5,-1,1,0,-1,-1,-1
1528881242501533,-1,-3,-3,-3,-1,-1,0,-2
1528881242501533,-2,-1,-2,-3,-1,-1,-2,-1
1528881242516494,0,1,0,-2,-2,-1,-2,1
1528881242516494,2,2,-1,-2,-1,-1,-1,-2
1528881242526467,1,-3,1,1,-1,-2,-3,-2
1528881242526467,0,-5,-3,-2,-1,-2,-1,-2
1528881242539433,-2,-4,-1,-1,-3,0,-2,-2
1528881242539433,0,-2,0,-1,-2,-1,-1,-1
1528881242553396,-3,-2,-1,-6,-2,-1,-2,-2
1528881242553396,2,0,-1,8,0,0,-2,-2
1528881242561375,-1,-1,1,-8,-3,-1,-1,2
1528881242561375,-2,3,7,8,-1,-1,-2,-3
1528881242576334,-3,-5,-9,5,2,-2,1,-3
1528881242576334,-3,6,-3,-6,-2,-1,0,0
1528881242584314,-1,3,-2,-3,-2,0,0,-1
1528881242584314,0,-4,-2,-6,-3,-1,-1,-2
1528881242599273,-1,-4,-3,1,-1,0,-2,-1
1528881242599273,-7,-14,1,0,0,1,-3,-2
1528881242614232,-2,13,2,5,2,2,-1,0
1528881242614232,-1,1,-2,-5,-2,0,-1,-1
1528881242624206,-1,0,0,-3,-2,-2,-2,-1
1528881242624206,2,-2,-6,-4,-2,-1,1,0
1528881242636175,1,-1,2,-7,-1,-1,0,-1
1528881242636175,-4,-6,-3,7,-1,-2,-1,-2
1528881242644153,0,-3,-2,3,1,-1,1,1
1528881242644153,-1,3,0,-2,-1,1,0,-1
1528881242660110,-1,-6,0,0,4,2,1,-1
1528881242660110,3,6,0,13,18,2,1,1
1528881242674072,1,2,3,7,3,1,-1,-1
1528881242674072,-1,-5,-2,-6,-6,-5,-1,-2
1528881242696043,-2,-2,-2,-8,-8,-3,-2,-2
1528881242696043,-2,-1,0,2,-1,-1,0,-1
1528881242704021,0,2,0,-3,-2,-1,1,-1
1528881242704021,-2,3,7,6,-1,-1,-1,0
1528881242711002,-1,-9,-8,3,1,-1,-1,-1
1528881242711002,-1,-5,-5,-8,-5,-3,-2,-1
1528881242718954,-1,-5,6,-3,1,3,0,0
1528881242718954,0,16,3,21,13,4,0,0
1528881242733914,-1,-10,-24,-8,-5,0,-1,-2
1528881242733914,-1,4,2,-8,0,-4,-4,-1
1528881242740895,-2,3,-3,-5,-9,-5,-4,-3
1528881242740895,0,-9,6,-4,-7,2,2,-2
1528881242755859,0,-5,12,8,3,-1,-1,1
1528881242755859,0,12,-10,-8,1,-3,-2,-1
1528881242763835,-1,-2,3,9,4,2,2,0
1528881242763835,-2,7,0,-9,-4,-6,-3,-1
1528881242778793,-4,-19,-1,-3,-12,-2,-1,-4
1528881242778793,0,-4,-7,-10,-4,0,-1,-1
1528881242786773,-1,-6,0,15,14,4,0,-1
1528881242786773,-2,3,0,9,13,2,3,-2
1528881242793789,-1,8,-3,-4,-9,-10,-6,-1
1528881242793789,-2,-3,-2,-12,-17,0,0,-2
1528881242801738,-1,-14,-4,-16,-9,-2,-2,1
1528881242801738,0,-2,0,18,20,11,-1,0
1528881242816692,0,2,0,-14,4,4,2,0
1528881242816692,-3,1,2,24,-1,-5,-2,-1
1528881242823674,0,1,-3,-16,-15,-7,0,-2
1528881242823674,2,9,2,-4,-1,-1,0,0
1528881242838633,0,-3,-1,18,25,7,1,1
1528881242838633,3,5,0,-10,-5,-5,-2,2
1528881242846612,-3,4,-4,-3,0,-5,-1,-1
1528881242846612,-2,-10,-1,-4,-22,-9,-8,-2
1528881242853630,-2,0,-1,-9,-9,6,4,-1
1528881242853630,1,-2,-1,13,9,-5,-4,-1
1528881242861608,-1,2,2,-5,4,10,6,0
1528881242861608,-2,-6,0,-12,2,-4,-4,-2
1528881242876564,1,1,-2,12,0,-3,-1,0
1528881242876564,-2,-1,0,-4,-6,0,-1,0
1528881242883550,-1,2,-5,9,9,-3,-2,-1
1528881242883550,0,5,-6,-14,-16,-8,-6,-2
1528881242898473,-6,-16,-2,-5,-13,1,0,-5
1528881242898473,3,1,2,-5,7,4,3,1
1528881242906460,3,0,-1,2,3,-24,-12,-1
1528881242906460,-7,3,-7,-5,-21,5,5,-6
1528881242913433,3,8,3,4,25,29,2,2
1528881242913433,1,-2,3,8,15,2,13,5
1528881242921453,-1,-4,2,7,-14,-2,-12,1
1528881242921453,-1,-11,-4,2,2,-6,1,-3
1528881242936372,-3,0,-6,-1,2,-14,-7,-4
1528881242936372,-4,-4,-5,-23,-22,4,3,-5
1528881242943407,-2,6,2,-9,-11,-3,6,-1
1528881242943407,-2,-3,-5,2,5,-15,-4,0
1528881242958370,6,4,7,13,-1,2,-3,2
1528881242958370,-2,0,-1,14,30,17,4,-1
1528881242966292,6,6,0,-1,-7,-17,0,2
1528881242966292,2,-3,1,-19,-17,27,1,-1
1528881242973274,-18,-5,0,-11,-18,-18,10,1
1528881242973274,3,-2,-4,11,19,-8,-24,-8
1528881242981252,-4,2,-2,-7,5,25,4,1
1528881242981252,3,-2,-4,-7,-13,-29,-9,-4
1528881242996212,5,4,4,-1,-2,10,1,-2
1528881242996212,-6,-7,-5,-7,-2,0,0,-2
1528881243004191,0,-1,0,0,-4,-9,4,0
1528881243004191,3,1,4,6,9,12,2,4
1528881243011173,-3,-4,-8,-13,-13,-21,-2,-1
1528881243011173,-5,-6,3,-4,-26,-6,-6,-3
1528881243019151,1,7,-2,0,24,18,3,-1
1528881243019151,0,-2,4,24,20,1,4,3
1528881243034145,-4,0,-4,-16,-12,-1,-10,-2
1528881243034145,-3,-3,-7,-1,5,-12,-1,-3
1528881243041092,-1,-4,-5,-25,-36,10,2,-4
1528881243041092,-5,-1,0,-9,26,-13,3,-1
1528881243056052,0,3,5,54,27,23,6,-1
1528881243056052,1,-2,1,-2,-14,-12,-10,4
1528881243064031,-3,-5,-4,0,-9,-13,-4,-5
1528881243064031,-1,-2,-5,-41,-12,5,0,-1
1528881243071049,-1,-8,3,2,5,5,1,-1
1528881243071049,5,4,-4,9,1,-1,3,-1
1528881243079028,-13,-1,2,7,5,-6,-6,-2
1528881243079028,-2,-3,-4,2,-6,-7,-3,-2
1528881243093998,2,1,-5,-19,1,-5,0,0
1528881243093998,0,2,4,0,-18,4,3,0
1528881243100933,7,2,-2,4,17,1,0,1
1528881243100933,2,7,2,0,-2,2,-1,-1
1528881243117916,1,-16,0,25,1,-6,-4,-1
1528881243117916,-12,0,-6,-17,-8,-2,0,-2
1528881243123872,13,12,-1,-11,-6,-5,-3,-2
1528881243123872,2,-1,-6,-10,2,0,0,1
1528881243130874,-16,-11,-1,5,-3,-9,-6,-7
1528881243130874,2,-3,-7,5,-11,2,1,-2
1528881243145857,-11,5,1,-9,-1,-5,-3,-2
1528881243145857,8,-2,2,3,5,4,2,0
1528881243153821,-4,0,-2,-1,4,3,0,0
1528881243153821,6,6,6,-4,-7,-3,-2,-1
1528881243168751,-5,8,-3,-9,-2,-5,-2,0
1528881243168751,2,7,0,-8,8,3,2,0
1528881243176766,0,-4,1,5,-5,0,1,-2
1528881243176766,1,1,-4,23,-1,-3,-3,0
1528881243191739,0,5,1,-13,-8,-5,-4,-1
1528881243191739,-8,-8,2,-1,1,2,4,1
1528881243206668,12,5,5,0,8,2,0,1
1528881243206668,-1,-5,-7,-5,-6,-4,-6,-1
1528881243213631,-8,-10,-1,-4,-1,0,-2,-1
1528881243213631,-3,8,2,-3,-1,-3,-1,-3
1528881243228592,-11,-7,-2,0,1,-1,2,-1
1528881243228592,-1,19,8,-33,-4,2,5,0
1528881243236586,20,-8,0,23,4,0,-10,1
1528881243236586,2,-22,-4,2,-7,-6,-2,0
1528881243251678,-15,-6,-19,-24,-7,0,-6,-7
1528881243251678,-5,0,-7,36,10,3,26,4
1528881243258511,-4,9,36,-16,-4,-5,-28,-3
1528881243258511,-12,-6,8,0,1,0,-4,-7
1528881243273510,-3,-41,-6,-3,-1,-1,16,1
1528881243273510,-8,-2,-12,18,7,0,3,-3
1528881243288459,-14,0,5,-7,-8,-3,-12,-7
1528881243288459,28,-1,-20,-4,0,2,1,0
1528881243296410,-9,11,7,-17,0,1,27,5
1528881243296410,-16,-10,4,21,3,-3,-34,3
1528881243311397,-9,-21,-2,1,-4,-5,15,-4
1528881243311397,-26,5,5,-13,0,-2,-9,-10
1528881243318352,1,15,-26,8,0,-1,-22,0
1528881243318352,95,20,8,6,3,-3,-6,8
1528881243333310,-28,6,-26,5,-4,-2,2,-10
1528881243333310,3,2,-19,-9,1,2,14,3
1528881243349310,42,-16,25,10,7,3,-9,0
1528881243349310,28,15,-29,0,2,3,1,8
1528881243364350,-12,-1,4,-3,-2,-4,2,0
1528881243364350,-23,-38,-13,-12,-14,-6,2,-5
1528881243379346,-10,-10,5,23,5,-8,0,5
1528881243379346,-24,8,11,5,4,-6,-3,-10
1528881243386331,60,-1,-2,1,1,19,19,15
1528881243386331,-41,7,6,-17,3,6,-1,-17
1528881243401411,-20,-2,0,-4,-6,-12,-16,-8
1528881243401411,12,3,3,-5,7,11,12,2
1528881243416569,1,42,-3,-31,-5,-5,17,-5
1528881243416569,-13,-24,9,46,-1,5,5,1
1528881243431504,22,1,-13,-25,-4,0,2,3
1528881243431504,-3,8,-3,24,9,-2,-19,0
1528881243439377,5,-14,-2,0,6,16,11,-1
1528881243439377,-20,8,-5,-5,-7,-11,17,-2
1528881243453309,-26,22,10,-7,-5,-9,-12,-5
1528881243453309,-6,-6,0,-2,-3,-4,-14,-1
1528881243469269,15,-25,-11,8,1,5,40,8
1528881243469269,3,17,6,-16,-8,0,-7,0
1528881243476247,2,-7,-7,-14,-7,-7,-26,-2
1528881243476247,-4,18,10,21,10,-6,2,-4
1528881243491247,5,27,7,8,4,8,-5,-4
1528881243491247,-18,-15,-6,8,5,6,5,-9
1528881243499225,0,-24,1,-3,0,-12,-12,-1
1528881243499225,22,11,-3,-8,-9,-9,17,6
1528881243514181,-8,-4,7,16,-1,-1,4,-3
1528881243514181,26,-19,-5,-30,-11,-9,-3,3
1528881243529277,-12,13,2,4,-6,-15,-3,-1
1528881243529277,-19,-17,-5,9,0,6,10,-5
1528881243536328,-19,-18,-12,-9,-1,-3,-13,-3
1528881243536328,-1,2,7,-14,3,3,1,-1
1528881243551463,10,7,-9,-2,-3,0,8,-3
1528881243551463,5,-1,11,21,-2,-2,-11,0
1528881243558589,3,-1,7,19,-3,-1,8,1
1528881243558589,-7,15,-7,-1,14,4,-7,5
1528881243574415,20,2,-3,-2,-6,-6,4,4
1528881243574415,-16,-8,-7,-14,-16,0,-7,-5
1528881243589391,-1,-45,-6,0,-4,-7,-13,-3
1528881243589391,23,19,6,-11,-3,-4,10,9
1528881243596482,-40,-27,-7,6,-1,4,4,-14
1528881243596482,1,7,0,-23,-11,-3,-11,4
1528881243611309,5,-6,-6,23,10,-2,0,7
1528881243611309,15,12,8,-2,7,11,7,4
1528881243618441,1,-11,-6,-16,-5,-3,31,0
1528881243618441,-8,0,0,27,2,1,-56,-8
1528881243634366,13,15,5,17,23,6,-14,0
1528881243634366,-24,-1,-1,-19,-7,-4,-3,-9
1528881243649228,9,13,3,3,-3,-9,8,3
1528881243649228,-10,-30,-13,-28,-23,1,-9,-9
1528881243656186,26,7,2,9,8,-1,7,6
1528881243656186,8,8,3,7,8,-5,5,5
1528881243671146,-3,15,-3,-12,-2,6,0,-7
1528881243671146,-16,-1,0,1,-1,-4,-5,-1
1528881243679132,15,-7,-6,-10,-14,-1,-7,-4
1528881243679132,-3,-4,-1,-20,-8,3,-1,-3
1528881243694086,-11,11,-3,22,7,-3,9,0
1528881243694086,-3,-6,2,3,4,0,-1,0
1528881243701067,-10,1,-2,-25,-16,-4,-12,-2
1528881243701067,0,2,1,25,15,1,8,4
1528881243716025,-13,-24,-7,-16,-7,-5,-16,-5
1528881243716025,9,9,0,3,5,1,13,0
1528881243730991,-3,1,-7,-14,-12,-4,-4,-3
1528881243730991,-5,1,-6,5,4,-4,5,0
1528881243738963,8,8,4,-3,-7,1,-13,-3
1528881243738963,-23,10,0,7,-6,-3,3,-1
1528881243753924,12,-5,-10,-8,5,1,-13,-2
1528881243753924,10,9,-3,-21,-7,-3,12,0
1528881243760905,7,23,9,12,7,4,7,1
1528881243760905,-17,-17,-10,-25,-12,-2,-8,-3
1528881243775865,1,-13,-18,-13,-3,0,17,0
1528881243775865,24,4,9,62,11,0,-11,-1
1528881243790853,-2,16,10,-9,3,-1,3,3
1528881243790853,-14,-2,-13,-7,-6,-1,-8,-6
1528881243798838,2,2,3,1,-4,-3,2,1
1528881243798838,-11,-24,-9,-22,-3,-1,6,-2
1528881243813822,-3,9,3,12,1,-1,-3,-4
1528881243813822,11,4,5,-7,-6,1,-1,3
1528881243821781,-1,16,0,18,12,-2,-2,-4
1528881243821781,-2,-10,-9,-10,-9,-2,0,-4
1528881243836755,5,-12,-4,0,-3,3,12,2
1528881243836755,-3,12,-1,-21,-10,-6,2,0
1528881243851691,-5,-1,4,22,9,-3,-41,-6
1528881243851691,-2,-23,4,13,2,-5,-3,-3
1528881243858701,-7,4,4,12,0,-3,-10,2
1528881243858701,6,-16,-19,-17,6,7,32,-2
1528881243873659,10,18,-3,-14,-4,2,-3,3
1528881243873659,-22,-32,-13,-5,-5,2,-5,-2
1528881243881638,19,17,1,-7,-7,-3,13,4
1528881243881638,0,-17,8,8,3,-1,-5,-4
1528881243896544,4,-10,-8,-9,-3,-1,7,4
1528881243896544,17,-11,-2,-27,-5,-2,-9,1
1528881243903531,-7,-21,-4,30,7,1,-9,-3
1528881243903531,-7,17,3,4,3,-1,2,-5
1528881243918485,-7,-12,2,-16,-1,2,6,-1
1528881243918485,5,17,4,13,5,0,-15,1
1528881243933497,5,1,4,3,-3,4,16,-1
1528881243933497,1,16,4,1,8,0,1,2
1528881243941460,-24,4,-4,3,4,-3,-1,-6
1528881243941460,0,-12,-3,-1,-10,-12,-34,-2
1528881243956423,-3,-11,0,-12,-4,3,18,-1
1528881243956423,-9,-5,-8,-1,-10,-10,-23,-6
1528881243963401,14,2,4,-4,2,6,10,4
1528881243963401,-10,51,17,14,7,5,15,0
1528881243978378,-22,20,11,25,9,1,-1,-1
1528881243978378,13,-56,-13,-17,-2,-2,-5,3
1528881243993332,10,-18,-11,-8,-7,-7,-7,-7
1528881243993332,-19,10,8,6,3,-1,2,-2
1528881244001407,-11,-5,-8,-4,-3,-3,-3,-1
1528881244001407,30,21,6,0,0,0,2,2
1528881244016380,-16,16,9,6,4,2,14,4
1528881244016380,-3,-43,-17,-12,-9,-6,-16,-3
1528881244024346,-5,-7,-3,-37,-11,-3,-6,-6
1528881244024346,0,-6,5,37,-1,-1,4,1
1528881244038520,14,-16,-13,-13,-4,-5,-5,2
1528881244038520,-7,4,-3,-3,3,4,13,2
1528881244053666,4,-19,3,3,-4,-6,-20,-2
1528881244053666,-5,16,1,1,0,-5,-4,-5
1528881244061639,-4,2,1,3,1,2,22,2
1528881244061639,17,8,5,-17,-4,4,-25,1
1528881244076596,-20,-58,-15,-1,-3,-2,14,-2
1528881244076596,-2,24,-2,-4,-5,-2,1,-6
1528881244083577,-4,-17,1,7,-1,-9,-19,-3
1528881244083577,-8,5,-3,-11,-3,4,14,-1
1528881244099012,-4,-2,-4,8,-4,-5,-14,-3
1528881244099012,-13,-9,-7,-8,-8,-16,11,2
1528881244113857,34,23,1,-4,-3,1,-19,0
1528881244113857,-18,-35,-6,-3,6,16,10,-4
1528881244121840,-1,12,0,-4,-2,1,-7,-2
1528881244121840,19,-12,-6,-6,-5,-5,9,4
1528881244135751,-24,-1,-4,4,5,-1,3,-8
1528881244135751,9,15,8,3,1,-7,-18,4
1528881244143891,7,21,10,12,10,5,4,0
1528881244143891,-3,-65,-23,-6,-5,-4,-2,-1
1528881244158835,-10,-1,-1,-3,0,2,11,-1
1528881244158835,-9,-6,2,-10,-5,-7,-25,-6
1528881244173806,-7,3,-2,6,-3,4,7,0
1528881244173806,18,-2,0,2,6,3,-2,3
1528881244181784,11,-2,-7,0,-4,-5,-6,6
1528881244181784,-26,5,5,-10,0,4,7,-6
1528881244196592,0,5,3,4,-6,-3,4,-1
1528881244196592,20,21,4,10,6,6,3,7
1528881244203906,-14,-8,-3,-9,-3,-5,12,-3
1528881244203906,-3,23,5,-8,0,-6,-24,-2
1528881244218733,-27,-6,-4,-4,-7,-1,-4,-4
1528881244218733,0,14,1,-7,10,8,4,-1
1528881244234021,6,-22,16,0,6,0,13,2
1528881244234021,1,-3,-14,8,0,-4,-2,-4
1528881244241001,18,9,0,-1,-1,-1,-10,2
1528881244241001,-15,5,0,-3,-10,-4,7,-6
1528881244256306,-4,0,-3,-38,-13,-6,-11,-3
1528881244256306,-13,-4,2,6,-4,-2,1,-3
1528881244263613,13,11,5,5,3,3,-3,4
1528881244263613,7,-12,-8,-22,-8,3,13,1
1528881244278571,-8,-15,-8,-1,-6,-4,-8,-6
1528881244278571,28,20,8,15,4,1,1,5
1528881244293736,0,1,-10,-35,-6,9,21,3
1528881244293736,-6,-7,-4,0,1,-10,-14,-4
1528881244301688,6,-1,11,18,8,-2,-22,-4
1528881244301688,-9,-33,-25,-14,-13,-3,5,-6
1528881244316844,4,28,0,10,-4,-3,-21,-3
1528881244316844,-5,-6,-3,-11,7,1,18,4
1528881244323700,0,31,-4,5,-4,4,19,-4
1528881244323700,5,-36,-7,-13,-9,-14,-23,-4
1528881244338649,-3,10,0,-3,15,-2,-3,3
1528881244338649,-11,0,7,24,5,6,3,-3
1528881244353940,-2,-20,-12,-11,-7,-6,-4,-3
1528881244353940,0,-3,3,-14,-12,-1,10,0
1528881244361827,13,9,7,12,2,-2,-7,2
1528881244361827,0,1,-6,10,7,-2,9,2
1528881244376096,1,-14,0,1,-6,-5,-10,-2
1528881244376096,-3,-9,-8,-24,-6,0,-1,-2
1528881244383932,6,-39,-7,11,-1,-3,6,1
1528881244383932,-12,55,19,-2,0,2,24,-4
1528881244399034,33,31,-3,-16,-9,-1,-3,2
1528881244399034,-27,-37,-4,8,0,3,16,-4
1528881244413995,-12,-1,2,-5,-1,-3,-8,-2
1528881244413995,-2,15,2,-4,-3,-3,5,-1
1528881244421867,-6,-28,-9,12,-6,-2,-2,-1
1528881244421867,11,5,4,2,6,7,-6,2
1528881244435978,4,0,-3,1,7,-2,-3,1
1528881244435978,-8,12,-7,1,1,-3,8,-1
1528881244444316,21,-28,4,-54,-23,-5,2,1
1528881244444316,1,19,6,38,9,-2,5,1
1528881244458830,6,41,5,-35,-11,-8,-34,-3
1528881244458830,-30,-12,-9,-11,-17,-12,-3,-2
1528881244473786,-4,0,1,0,8,11,18,-3
1528881244473786,13,9,11,15,6,12,0,1
1528881244481761,-15,-32,-11,13,12,1,18,3
1528881244481761,5,-19,-2,-8,1,5,-28,-6
1528881244496613,-20,2,-3,-8,-10,-7,7,-3
1528881244496613,2,-31,-6,-13,-11,-14,-4,-2
1528881244503804,-11,13,6,7,1,7,3,0
1528881244503804,30,35,7,-2,3,-1,-2,7
1528881244518653,5,-1,1,21,4,0,-6,-2
1528881244518653,4,10,2,-11,1,2,0,5
1528881244533773,8,13,4,-4,-4,-5,-3,0
1528881244533773,-11,-20,-10,16,2,-2,2,1
1528881244541832,-1,6,5,27,8,5,5,0
1528881244541832,-10,7,0,-5,6,-1,5,0
1528881244556819,3,22,7,6,3,-4,-19,0
1528881244556819,3,-11,2,-9,-1,14,15,-2
1528881244563820,-8,9,-4,-35,-14,-2,-6,-4
1528881244563820,-17,-22,-5,20,5,2,9,-4
1528881244578806,-2,-5,-14,-16,-3,3,3,-3
1528881244578806,1,11,4,-2,0,0,17,1
1528881244593766,-10,-43,-11,-6,-2,-4,-25,-7
1528881244593766,-12,3,0,-4,-1,0,2,-3
1528881244600933,-6,-18,1,0,-5,-4,1,-3
1528881244600933,36,12,1,-1,3,2,0,3
1528881244616897,-20,-5,1,11,6,4,10,1
1528881244616897,29,17,-3,5,2,1,1,3
1528881244624029,-21,-8,1,-1,1,-4,-4,-3
1528881244624029,-17,-18,-1,-8,-6,-6,-19,-5
1528881244639032,-9,-14,-7,12,3,-2,-20,-5
1528881244639032,1,16,1,-8,-10,-5,-9,-1
1528881244654356,-23,-31,-5,-11,-9,0,3,-7
1528881244654356,-2,4,3,-1,7,3,19,4
1528881244661257,2,-15,0,8,4,-5,-25,-5
1528881244661257,0,-30,-14,-13,-9,-1,-5,-4
1528881244676723,9,13,1,11,1,-7,1,2
1528881244676723,-7,-12,-4,-21,-3,-2,1,-5
1528881244683702,-5,-5,0,15,2,3,31,2
1528881244683702,-2,-4,4,10,3,-3,-43,-3
1528881244698881,-1,7,-7,-1,-1,-3,-2,-1
1528881244698881,9,3,-3,-21,-6,-6,15,3
1528881244713912,1,15,5,14,3,8,6,1
1528881244713912,-9,-6,-6,-4,1,-1,-12,-2
1528881244721001,11,0,1,4,-2,1,2,-2
1528881244721001,-14,2,-2,1,0,2,18,1
1528881244736843,8,-19,-9,-14,-3,-5,-18,2
1528881244736843,-9,16,1,-8,-12,-8,-11,-8
1528881244743940,-2,-21,-7,-2,4,4,27,1
1528881244743940,-34,-4,3,6,-1,1,-16,-8
1528881244758899,12,-2,0,-8,-2,-6,-3,5
1528881244758899,14,-2,6,-13,-14,-2,5,-2
1528881244773877,-13,-35,-13,16,9,11,7,-6
1528881244773877,11,-5,2,-8,9,-2,-3,1
1528881244781816,-1,47,-1,-19,-8,0,-15,1
1528881244781816,12,5,-3,5,1,-3,9,2
1528881244796825,-11,8,3,-6,-11,-14,-14,-7
1528881244796825,17,-16,-2,3,0,2,5,5
1528881244803797,-16,19,11,10,9,6,-10,-4
1528881244803797,0,-17,-7,-2,0,-14,5,0
1528881244819043,12,6,4,8,1,0,-10,3
1528881244819043,0,-5,-3,-4,-7,11,23,1
1528881244826387,-15,-22,0,-3,-1,2,0,-4
1528881244826387,15,8,-3,-7,-3,1,-9,-1
1528881244841552,-10,-12,2,2,1,4,2,-1
1528881244841552,12,14,0,-7,-6,6,10,0
1528881244856504,17,16,4,2,1,1,19,1
1528881244856504,3,-1,4,0,-11,-16,-5,0
1528881244863819,-24,2,-2,-9,6,9,5,-4
1528881244863819,-9,-13,-1,13,7,-7,-15,-5
1528881244878825,0,12,-3,10,-2,-9,-18,-1
1528881244878825,22,1,6,-8,-9,10,12,0
1528881244886847,-13,-11,2,10,14,4,12,1
1528881244886847,8,10,5,-6,2,6,9,5
1528881244900925,0,21,-4,-20,-16,-9,-8,0
1528881244900925,-6,-10,-5,3,2,-8,-2,-3
1528881244915952,6,4,1,6,1,19,-5,-1
1528881244915952,-8,26,7,-1,-1,-10,7,-1
1528881244923932,0,-57,-7,-9,-4,-2,-4,-1
1528881244923932,10,8,-3,11,0,-6,-12,0
1528881244938949,7,10,1,-19,-5,1,7,-1
1528881244938949,-23,-7,-1,3,6,3,0,1
1528881244945926,28,-7,1,17,4,-2,4,8
1528881244945926,-23,-2,-7,-7,-4,-1,0,-4
1528881244961834,-17,6,-3,0,1,-2,-8,-4
1528881244961834,12,9,-2,-8,1,8,-7,0
1528881244975836,-6,-16,8,2,-5,-2,1,0
1528881244975836,-12,-3,-5,-9,-1,-4,-7,-6
1528881244983815,8,25,-11,-4,-11,-6,26,1
1528881244983815,-2,-6,4,6,10,9,-37,-5
1528881244998774,-8,3,-3,-7,-9,-6,1,-2
1528881244998774,4,-12,2,-5,-8,-8,-1,1
1528881245006783,15,2,2,10,-2,0,-6,-2
1528881245006783,-21,-2,0,13,7,6,16,-1
1528881245021722,-7,-9,1,9,-3,-6,-4,-4
1528881245021722,5,10,0,-6,-5,-3,5,1
1528881245036637,-10,5,3,-2,3,5,3,-2
1528881245036637,9,-10,-10,6,2,-1,6,3
1528881245043619,-2,-6,2,-36,-14,-8,-24,-6
1528881245043619,-7,-3,-3,8,-1,-4,1,-4
1528881245058579,15,-3,4,21,-4,-1,-2,1
1528881245058579,-10,23,-6,-1,8,8,4,0
1528881245066591,14,-9,2,7,4,-2,-2,-1
1528881245066591,-14,-8,-3,-30,-11,0,1,-3
1528881245081679,5,5,6,-8,-2,-1,3,2
1528881245081679,1,2,-2,7,7,3,5,1
1528881245096633,0,12,3,16,3,3,3,-1
1528881245096633,2,-25,-6,-11,-9,-11,-7,-3
1528881245103833,-21,4,-2,2,3,4,-4,-6
1528881245103833,15,4,-2,-6,-7,2,6,5
1528881245118772,-8,2,7,8,11,-2,3,-1
1528881245118772,-15,-17,-3,-21,-6,1,-5,-2
1528881245126798,10,12,-3,-2,-4,-1,-2,1
1528881245126798,-3,-4,4,10,4,-1,-6,-4
1528881245141850,-2,16,5,-9,-1,-3,5,1
1528881245141850,8,-1,3,25,-1,-5,4,2
1528881245156810,13,10,-5,-2,0,4,-2,1
1528881245156810,-10,-22,-1,1,6,7,13,-2
1528881245164087,-5,5,1,-2,-4,-7,-16,-3
1528881245164087,-3,-5,2,-10,-9,-8,-1,0
1528881245179125,0,6,0,4,5,5,1,1
1528881245179125,-15,4,3,18,6,-1,0,-3
1528881245186321,12,-7,-4,-6,0,2,5,3
1528881245186321,7,-1,-5,-27,-15,-4,-1,-2
1528881245201444,3,14,9,21,8,2,7,-1
1528881245201444,7,-3,-19,-17,-6,2,15,5
1528881245216636,-2,10,4,-16,-5,-2,-26,-4
1528881245216636,-4,-22,-9,-8,-8,-8,-20,-3
1528881245223615,-7,5,0,0,-3,-6,10,-2
1528881245223615,-1,8,3,3,5,2,13,0
1528881245238837,-3,-9,-2,-2,-2,-2,-15,1
1528881245238837,16,12,7,8,3,7,13,1
1528881245246816,-6,-24,-8,-3,-1,3,12,-2
1528881245246816,0,-3,-4,3,-1,-6,-21,-2
1528881245261855,0,2,-1,7,1,3,4,3
1528881245261855,3,7,8,-6,5,6,7,1
1528881245276845,0,-14,-8,26,10,-4,-1,0
1528881245276845,5,14,1,-12,-3,-3,-3,1
1528881245283917,2,-6,0,9,-4,-2,-1,-3
1528881245283917,-18,-1,-1,1,-3,-1,-6,-3
1528881245298880,8,-4,-2,-13,-3,5,0,2
1528881245298880,4,5,0,1,-1,-4,8,1
1528881245306842,3,-3,-4,-3,-1,-2,-8,1
1528881245306842,-3,9,7,5,1,0,-7,-1
1528881245321671,-2,-10,-6,-9,-4,-4,-11,0
1528881245321671,-5,-3,-2,3,-2,-1,-2,0
1528881245336621,3,3,-1,-11,-4,0,10,-2
1528881245336621,0,8,5,6,-1,-1,-6,-1
1528881245343643,-2,-2,-4,-7,0,-2,-8,-3
1528881245343643,-2,-10,-1,8,4,2,5,-1
1528881245358717,1,1,-5,-6,-3,-3,1,1
1528881245358717,4,7,4,3,-4,-5,-5,-2
1528881245366700,-9,-13,-5,-2,-4,0,0,-4
1528881245366700,0,-6,-14,-7,-1,2,0,-1
1528881245381875,-3,2,5,-3,-2,-1,1,-2
1528881245381875,-3,5,0,1,-1,-3,-2,-1
1528881245396004,0,-6,-2,-1,0,0,-1,-1
1528881245396004,2,0,-8,-6,-6,-5,-2,-1
1528881245403983,-2,1,2,2,0,0,-2,1
1528881245403983,-4,-4,3,3,2,2,-1,-2
1528881245418778,1,5,1,-1,-1,1,1,1
1528881245418778,2,3,-5,-3,-1,-4,-1,-1
1528881245426852,2,-4,-6,-4,-2,-1,-2,-1
1528881245426852,-2,-3,-2,1,0,0,0,-1
1528881245441824,1,-2,-5,-1,-3,0,-2,-1
1528881245441824,0,4,7,-5,-1,-3,-2,1
1528881245456817,2,-8,-11,3,-2,-1,0,-2
1528881245456817,0,-2,4,-3,-4,-11,-4,1
1528881245463815,-3,1,16,3,7,12,3,-2
1528881245463815,-1,0,-5,4,0,0,-1,-3
1528881245479075,2,5,9,0,-1,-7,0,11
1528881245479075,-6,-17,-31,-6,-3,17,3,-3
1528881245486097,3,7,-4,-1,-1,3,3,1
1528881245486097,2,-6,5,-2,-4,-3,-3,-2
1528881245501398,-6,-10,-30,-4,-6,-13,-6,-1
1528881245501398,-4,-6,-7,1,7,19,4,-4
1528881245516602,-5,2,3,1,3,-3,1,-4
1528881245516602,0,8,21,7,7,6,-1,-2
1528881245523403,2,1,-1,-2,-6,2,5,5
1528881245523403,-6,-11,-63,-14,-12,-14,-7,-3
1528881245538356,0,1,10,0,-1,-5,-2,-1
1528881245538356,-2,-2,-20,-6,-2,-1,-3,-3
1528881245546373,-3,-8,-8,-1,0,2,1,-2
1528881245546373,3,8,-5,8,4,-12,-4,4
1528881245561595,-1,0,-56,-1,1,-12,-14,-3
1528881245561595,-3,-7,-13,-12,-10,11,7,-3
1528881245576417,0,2,-8,5,1,-16,-12,-3
1528881245576417,10,17,-13,14,9,-6,-4,6
1528881245583537,0,1,102,5,3,4,5,1
1528881245583537,-11,-25,-52,-28,-14,-18,-10,-9
1528881245599354,-6,-15,-69,-16,-9,2,-6,-4
1528881245599354,0,-1,11,0,-3,-13,-6,2
1528881245606492,2,6,-10,5,1,6,3,1
1528881245606492,6,14,46,16,8,-15,-9,5
1528881245621451,1,5,7,-1,-4,-10,-4,-2
1528881245621451,3,7,22,3,1,3,0,1
1528881245636444,-1,-4,-10,-3,-5,2,4,-2
1528881245636444,-4,-8,-8,-5,-5,-16,-12,-4
1528881245643546,-1,3,24,7,5,3,-1,-1
1528881245643546,5,7,30,15,12,4,-1,2
1528881245658544,-3,-12,-4,-20,-9,0,-2,-4
1528881245658544,-2,-2,-7,-1,-2,-9,-4,-1
1528881245666676,-4,-5,15,-10,-9,-6,-4,-4
1528881245666676,-3,-1,8,-4,-5,6,0,-3
1528881245681877,-3,-8,-56,-9,-3,0,-1,-3
1528881245681877,2,7,22,8,3,1,2,1
1528881245695960,-1,-1,-3,-2,-1,-1,-2,0
1528881245695960,2,0,-23,-1,-1,-7,-9,-2
1528881245703938,1,0,-3,5,3,4,1,0
1528881245703938,-1,-2,3,1,2,2,2,0
1528881245718741,-1,4,-8,-4,-5,-5,-5,0
1528881245718741,-1,-1,-13,2,1,-1,0,1
1528881245726089,-3,-8,11,-2,1,-2,1,-1
1528881245726089,0,-2,-4,-4,-6,-1,-1,-2
1528881245749070,-2,-8,-49,-14,-5,-2,-3,-1
1528881245749070,0,-2,-44,-5,-4,-4,0,-1
1528881245764151,-1,-3,41,4,0,0,0,-1
1528881245764151,-3,-2,-20,-6,0,-1,-3,-3
1528881245779145,-1,2,-2,2,-1,1,0,0
1528881245779145,-1,0,16,1,-1,-2,-1,1
1528881245785977,-2,-3,-8,-4,0,5,0,-2
1528881245785977,0,0,-10,2,0,0,3,0
1528881245793653,1,2,12,2,-3,-3,-2,-1
1528881245793653,-2,-1,-4,-2,-2,1,3,0
1528881245801481,0,0,5,0,1,-1,-3,-1
1528881245801481,0,-1,-8,-2,-1,0,-1,1
1528881245808606,0,1,-2,-3,-2,-4,-4,-2
1528881245808606,-1,-1,13,0,-2,2,1,-2
1528881245816584,-1,-2,-2,-1,-5,-4,-1,0
1528881245816584,-1,-2,-10,-2,0,1,-1,-2
1528881245831544,-1,2,9,2,0,-3,-1,-1
1528881245831544,-2,-2,2,0,0,2,-1,-1
1528881245838729,-2,-1,1,0,-1,-2,-1,-1
1528881245838729,0,2,9,2,-3,-3,0,-1
1528881245853690,0,-1,-4,-3,0,0,2,-1
1528881245853690,-1,-3,-11,-1,-1,4,-2,-1
1528881245861669,0,0,-7,-3,-1,-12,-17,-2
1528881245861669,0,1,2,-1,-1,4,11,1
1528881245868488,-4,0,13,-3,-4,-25,7,-6
1528881245868488,-5,-3,2,1,-1,22,-13,-5
1528881245876626,0,2,-1,2,1,-9,5,0
1528881245876626,2,-1,0,-1,0,-6,-10,1
1528881245891821,2,0,1,-1,-1,-8,-11,0
1528881245891821,-1,-1,-2,-2,-1,-6,3,1
1528881245898803,-1,0,1,0,-2,-2,-5,-1
1528881245898803,-2,-3,-4,-3,-2,-1,0,-2
1528881245913759,0,0,-6,0,1,8,4,2
1528881245913759,0,-2,5,-1,-2,-6,-1,0
1528881245928597,0,-1,0,-1,-1,12,-1,1
1528881245928597,0,0,5,-1,-1,-4,0,-2
1528881245936696,1,-1,-3,-1,-2,-4,0,-1
1528881245936696,-2,-1,-5,-1,-1,2,-2,-2
1528881245951695,-1,0,0,-1,-1,1,-4,-1
1528881245951695,1,-2,2,-1,0,-7,-1,0
1528881245958833,-1,-1,-3,-4,-1,2,3,-3
1528881245958833,-1,0,-2,-1,-1,0,-3,-2
1528881245973777,-1,1,1,0,1,4,-1,-1
1528881245973777,-2,0,-1,-1,-1,-5,3,-1
1528881245988599,-1,-1,2,-2,-1,-1,-2,-2
1528881245988599,0,0,-2,-2,0,1,2,0
1528881245996736,-2,-1,-1,-2,-1,-3,0,-1
1528881245996736,-1,-1,1,-1,-1,-2,-3,-1
1528881246011692,-1,-1,-3,0,-2,2,1,1
1528881246011692,-2,0,0,2,-1,-1,-2,-2
1528881246018525,-1,1,-2,0,-1,0,0,-1
1528881246018525,-4,-2,-2,-3,-1,-2,-2,0
1528881246033634,0,0,-1,0,-1,2,-1,-1
1528881246033634,-2,-2,0,-2,-1,-2,-2,0
1528881246048593,-2,0,-3,-3,0,-1,-3,0
1528881246048593,-3,-2,1,-2,-1,-2,1,-1
1528881246056576,-1,-1,-1,0,0,0,0,-1
1528881246056576,-1,-7,-2,-3,-2,-3,-3,-2
1528881246071536,0,-3,-4,-1,-2,-1,0,-2
1528881246071536,0,1,-1,-1,-2,-3,-2,-1
1528881246079354,-2,-2,-4,-2,-1,-1,1,-1
1528881246079354,0,3,3,0,-2,-1,0,-1
1528881246093732,0,0,2,1,-1,-1,-1,-1
1528881246093732,-3,-2,-3,-2,-1,0,0,-2
1528881246109015,-1,-3,-1,-1,0,0,0,-2
1528881246109015,0,0,-1,0,-1,0,-1,-1
1528881246115840,-1,-4,0,-3,0,-1,-2,-1
1528881246115840,-1,-1,-3,-1,-4,-1,0,0
1528881246131867,-2,-3,-1,-2,-1,-1,-1,-1
1528881246131867,-1,0,1,0,0,-1,-2,-1
1528881246138935,-1,-2,-2,-1,0,-3,0,0
1528881246138935,-1,0,-2,-1,-1,0,0,-1
1528881246154224,0,2,-1,-1,-2,0,-1,-2
1528881246154224,1,-1,0,0,-1,-1,-1,0
1528881246161398,-2,-3,-7,-3,-1,-1,-1,-1
1528881246161398,-1,0,-2,-5,0,-1,-1,-1
1528881246169226,-3,0,1,1,0,0,-2,-1
1528881246169226,5,1,-2,-4,-2,0,0,3
1528881246176347,-9,0,6,4,2,2,0,-5
1528881246176347,1,-4,-3,-1,-1,-1,-1,-1
1528881246191484,-1,1,1,1,0,-1,-1,0
1528881246191484,1,-9,-2,-1,-4,-1,-2,1
1528881246198671,2,28,11,7,4,2,1,2
1528881246198671,1,-1,-2,-3,-1,-1,-1,-2
1528881246213631,-4,-5,0,1,2,-2,-1,-2
1528881246213631,-1,-4,-3,-4,-1,-2,-2,0
1528881246228593,4,1,-3,-2,-3,-2,-2,0
1528881246228593,-5,-2,1,1,1,0,-1,-4
1528881246236572,-3,-1,-2,-1,-2,-2,-2,-4
1528881246236572,17,5,-1,-1,0,-1,0,27
1528881246251434,-13,-16,-7,-4,-4,-2,-5,-29
1528881246251434,-2,-8,-2,0,-1,-1,0,-2
1528881246258547,-1,-3,-5,-4,-3,-1,-2,-5
1528881246258547,-2,-3,-2,0,-1,-2,-1,-1
1528881246273668,4,2,0,-3,-1,0,2,8
1528881246273668,-3,0,-1,-2,-2,-2,0,-4
1528881246288629,2,2,-1,0,0,-2,-2,5
1528881246288629,-4,2,-1,0,0,-1,-2,-4
1528881246296607,3,-4,-4,-3,-3,-1,-1,3
1528881246296607,-3,-1,2,-1,-2,-1,-2,-5
1528881246311769,0,1,2,0,-2,0,1,-1
1528881246311769,-2,0,-3,-1,-1,-2,-2,4
1528881246318588,-2,-6,-5,-4,-2,-2,-3,-7
1528881246318588,-2,0,-2,2,1,3,7,0
1528881246333704,2,4,0,1,0,2,2,6
1528881246333704,-4,3,-1,0,-2,-3,-12,-4
1528881246348664,-2,1,-1,-1,-1,0,1,4
1528881246348664,6,3,2,0,0,0,6,1
1528881246356642,-2,-3,-2,-1,0,1,1,-1
1528881246356642,-4,-1,-1,-1,-2,0,-7,-5
1528881246371468,2,0,-1,0,0,-2,-1,1
1528881246371468,-3,-3,-1,-1,-1,-1,1,-4
1528881246378474,0,2,1,-2,-2,-1,0,0
1528881246378474,-3,1,-1,-1,1,-1,-2,-1
1528881246393389,-1,-1,-1,-1,-1,0,0,-2
1528881246393389,0,-2,-2,0,-1,0,0,-1
1528881246408349,-2,-1,1,-3,-1,-2,-14,-2
1528881246408349,1,2,-1,0,-1,-1,0,0
1528881246416469,-1,-1,0,-1,-1,1,-1,0
1528881246416469,-2,-3,-2,0,0,0,-2,-3
1528881246431661,0,0,-1,0,-2,-1,2,-2
1528881246431661,-1,0,-2,-2,0,-1,-1,0
1528881246438636,-2,-2,-2,-1,-3,-2,0,0
1528881246438636,-3,0,-1,-3,-2,-2,-1,-3
