timestamp,emg1,emg2,emg3,emg4,emg5,emg6,emg7,emg8
1528882991331574,-3,-1,-5,-7,-18,-8,-1,3
1528882991331574,-3,-1,-6,-8,-11,-5,-3,-6
1528882991338573,-1,-6,-1,-6,-4,-4,-1,-2
1528882991338573,-1,2,-12,-4,-1,-3,-1,-2
1528882991346534,-3,-4,-7,-2,-4,-4,-3,-2
1528882991346534,0,1,-3,-4,0,-2,-2,1
1528882991353514,-4,-6,10,-1,-7,-3,-1,-2
1528882991353514,-1,3,13,12,5,-1,-5,-3
1528882991368474,-6,-5,-14,-9,-6,-5,-1,-5
1528882991368474,2,2,-22,-5,2,-3,-2,2
1528882991376452,2,0,10,-6,-7,5,2,1
1528882991376452,0,-7,-13,2,-10,-1,2,1
1528882991391453,2,4,0,8,24,11,2,0
1528882991391453,-1,0,21,1,7,-3,-4,-3
1528882991398394,-10,-22,-24,-4,-6,-7,-6,-8
1528882991398394,5,8,17,-3,-13,2,1,0
1528882991406411,-5,4,5,3,-13,-13,-6,-4
1528882991406411,5,18,-8,-27,-17,-11,-2,-2
1528882991413354,2,-22,-19,-3,-21,1,6,5
1528882991413354,-2,16,23,34,69,21,0,-2
1528882991428349,-4,-17,-21,24,37,17,3,0
1528882991428349,-4,-9,-20,-19,-3,1,1,-2
1528882991436294,5,22,24,-29,-29,-8,-3,0
1528882991436294,-4,-19,-41,-37,-35,-12,-3,1
1528882991451262,-2,2,22,30,17,-7,-5,-1
1528882991451262,-2,-4,10,10,-36,-11,-5,-5
1528882991459232,-2,-8,5,12,11,-8,-1,4
1528882991459232,4,7,-27,-39,10,21,8,2
1528882991466213,3,8,31,15,11,10,2,0
1528882991466213,-2,-13,-28,0,11,-5,-2,-3
1528882991474195,3,8,6,13,-4,-3,-3,2
1528882991474195,-7,-4,11,-6,-2,-23,-6,-6
1528882991488156,0,0,8,-14,-56,-10,-2,-1
1528882991488156,4,6,-3,1,-40,-14,3,6
1528882991496133,0,2,6,11,73,34,13,1
1528882991496133,4,-8,-13,12,12,7,-7,4
1528882991511094,-2,-1,-8,-8,43,18,9,-2
1528882991511094,-1,-4,12,25,0,9,1,1
1528882991519073,-5,6,41,2,-30,-22,-12,-9
1528882991519073,-1,-1,8,6,-18,-12,3,-1
1528882991526055,1,0,-26,-1,-7,2,-2,2
1528882991526055,0,2,18,-4,10,-5,-6,-1
1528882991534030,-9,-5,-8,19,9,-6,-10,-17
1528882991534030,-3,-2,6,-11,-36,-15,-4,-5
1528882991549019,0,-1,0,-7,-44,-11,-3,-1
1528882991549019,-8,-11,-32,-28,47,2,-7,-7
1528882991555973,1,1,2,8,-7,9,5,3
1528882991555973,2,4,23,18,4,4,-2,-1
1528882991570967,1,0,-16,-18,25,10,7,3
1528882991570967,-4,-2,16,17,-27,-3,-3,-4
1528882991578946,-4,-5,-26,-5,24,-11,-2,-1
1528882991578946,2,8,25,13,1,7,-2,-3
1528882991585930,-3,-8,-37,7,19,17,2,-2
1528882991585930,8,17,68,11,7,7,4,4
1528882991593871,-7,-25,-53,-32,-22,-9,-5,-3
1528882991593871,-5,-5,-17,-4,-10,-14,-4,-4
1528882991608831,-2,4,28,8,-30,-24,-11,-5
1528882991608831,-1,-5,-1,2,4,5,5,-2
1528882991615812,1,7,-4,6,4,5,-1,-4
1528882991615812,2,-1,-16,-19,7,4,0,-4
1528882991630773,1,0,4,-8,-1,-2,-1,1
1528882991630773,-3,1,-16,-9,-2,-2,-3,-2
1528882991638790,2,5,22,12,6,24,8,4
1528882991638790,-5,-7,6,8,-7,-8,-3,-3
1528882991645732,3,3,19,6,-7,-7,-3,0
1528882991645732,2,-1,-4,-2,1,2,6,4
1528882991653711,2,-4,-5,-21,-9,-11,-6,0
1528882991653711,-2,-2,-17,-6,12,3,3,0
1528882991668671,0,-2,5,3,-14,-7,-1,1
1528882991668671,-3,-5,6,7,6,6,-2,0
1528882991676651,2,8,-15,-17,9,2,-2,9
1528882991676651,-2,-6,31,25,2,-1,-10,-7
1528882991691609,4,4,2,5,0,-18,-2,4
1528882991691609,1,-1,-35,-35,-14,5,-2,-2
1528882991698590,4,7,2,0,-1,2,7,3
1528882991698590,-6,-1,-6,7,3,1,12,6
1528882991706568,1,1,-4,-20,-9,-7,-10,-4
1528882991706568,5,10,42,34,4,-9,-7,2
1528882991713550,-4,-4,-3,-10,-2,-6,-1,-4
1528882991713550,-2,-8,-40,-23,-19,-5,-7,-3
1528882991728510,-5,-2,17,-14,2,1,3,-4
1528882991728510,-2,-8,-35,19,10,11,3,0
1528882991736489,-4,6,48,6,-1,-5,-7,-4
1528882991736489,0,-6,-9,-4,1,-4,-1,5
1528882991751449,-6,-16,-13,-3,0,7,0,-5
1528882991751449,-4,-21,-23,-13,3,-6,-4,0
1528882991758430,3,-1,-40,-13,-12,-1,2,2
1528882991758430,-3,-4,4,-2,-5,-9,-2,-1
1528882991766409,-2,-40,-42,-15,-9,-3,-3,-1
1528882991766409,-7,12,19,12,1,-1,2,-6
1528882991773390,9,-6,5,-4,0,-17,-20,7
1528882991773390,4,3,5,-3,1,19,14,-4
1528882991796329,-3,4,-6,-8,-2,6,6,-1
1528882991796329,2,-3,4,15,-1,11,7,0
1528882991803310,-7,-9,-19,-12,-6,-4,-5,-3
1528882991803310,3,17,7,1,6,-4,-1,1
1528882991818272,-2,4,4,12,-15,-20,-9,-3
1528882991818272,-2,2,10,-24,-1,-3,1,0
1528882991826268,-1,5,-10,0,-9,-9,-8,-4
1528882991826268,1,-3,4,9,12,-2,-7,-3
1528882991833232,0,8,22,-16,-11,4,8,-3
1528882991833232,4,16,28,33,30,11,-1,4
1528882991848191,0,11,32,31,0,5,-1,-2
1528882991848191,-4,-10,-52,-40,-23,-20,-13,-5
1528882991856222,1,5,21,17,4,7,5,-2
1528882991856222,-5,-7,-11,5,-8,8,6,-2
1528882991871131,-1,6,1,-30,-11,-2,-2,3
1528882991871131,0,-7,0,3,21,-28,-9,0
1528882991879163,-2,-8,-21,0,17,55,18,-1
1528882991879163,-2,4,39,23,-6,20,17,-3
1528882991886091,1,-6,-29,-8,-2,-3,-4,2
1528882991886091,-2,7,27,13,-19,5,6,-1
1528882991894124,0,-3,-37,-11,6,-17,-3,3
1528882991894124,1,2,22,17,15,-8,-12,1
1528882991909083,8,-18,-22,-24,7,-8,1,2
1528882991909083,-15,23,8,-10,-6,-7,-7,-5
1528882991916069,3,0,12,6,-12,-11,-10,3
1528882991916069,-4,-2,-8,1,6,32,19,-7
1528882991930983,2,7,6,1,-4,-16,-4,6
1528882991930983,2,-15,-17,3,3,20,-2,-8
1528882991938950,5,3,-15,-8,-26,-28,-3,3
1528882991938950,-5,6,32,-4,1,13,10,5
1528882991946183,4,7,-10,-5,-2,1,3,4
1528882991946183,-5,-10,-4,4,15,-8,-2,-2
1528882991953908,-3,10,22,16,-3,20,4,-5
1528882991953908,3,-10,-32,-14,1,-32,-23,-2
1528882991969142,-7,6,31,38,5,4,1,-4
1528882991969142,6,-6,-66,-60,-20,-28,-19,6
1528882991976374,-3,-6,5,16,38,34,36,-1
1528882991976374,-1,-2,-10,1,-13,2,-27,-5
1528882991999307,-5,-2,-34,-54,-8,-65,-38,-9
1528882991999307,-1,-2,14,22,2,104,59,-4
1528882992006288,-6,-6,0,-8,-3,-17,-16,-8
1528882992006288,-1,-1,-14,-11,4,-8,5,2
1528882992013349,-1,10,25,38,-3,2,-1,1
1528882992013349,1,-10,3,-17,-12,-43,-26,-1
1528882992021661,-3,-13,-21,-3,-17,-23,-5,-3
1528882992021661,1,-1,2,-13,-3,-2,0,-4
1528882992036287,-6,-13,-2,-16,0,12,-2,-4
1528882992036287,5,17,27,21,17,-4,1,5
1528882992044552,-5,-11,5,-18,2,17,6,2
1528882992044552,0,1,-22,8,-9,-23,-3,2
1528882992051585,-8,0,20,11,2,10,-1,-5
1528882992051585,1,-5,-8,6,0,-4,1,-1
1528882992059039,6,6,2,-4,-9,-5,-3,1
1528882992059039,-7,-13,3,1,-11,-9,-5,-10
1528882992073663,1,7,-8,0,13,10,7,-1
1528882992073663,3,3,2,-28,-16,-4,0,3
1528882992081642,-4,1,20,21,9,-29,-18,-6
1528882992081642,5,11,15,6,21,32,22,8
1528882992096601,1,-3,-27,10,3,24,12,0
1528882992096601,-5,-12,-4,4,-2,-15,-11,-5
1528882992103669,-2,5,1,-8,-10,-9,-5,-1
1528882992103669,-1,-5,-6,-13,-5,-5,-5,1
1528882992119207,-2,-2,18,-11,-18,-8,-2,-6
1528882992119207,-1,2,11,34,14,0,-2,1
1528882992126465,-1,-3,-2,4,-7,1,-2,-1
1528882992126465,1,2,7,-30,-23,-14,-4,-4
1528882992134226,-2,-3,-4,14,11,22,9,1
1528882992134226,0,-3,-15,-17,9,-4,-3,1
1528882992149173,0,-5,-16,-6,-16,-1,0,-1
1528882992149173,-3,-7,-14,13,11,6,-1,-1
1528882992156155,0,9,7,-1,-4,-3,-1,1
1528882992156155,-5,-21,-63,-45,-25,-11,-4,-3
1528882992171115,-2,15,62,67,8,3,2,0
1528882992171115,1,3,9,-20,-16,-7,-2,-4
1528882992179001,-9,4,0,-18,-1,-2,-2,-3
1528882992179001,3,6,3,3,-5,-1,-2,2
1528882992186243,-3,-5,-22,-13,19,5,1,-1
1528882992186243,-9,-13,8,9,-7,-4,-5,-5
1528882992194338,-14,-37,-6,-15,-26,-6,-2,-8
1528882992194338,1,-1,7,4,23,5,4,2
1528882992209584,0,-2,-23,-18,8,0,-2,-3
1528882992209584,1,-2,18,12,2,5,6,4
1528882992216563,9,23,18,31,16,-10,-10,2
1528882992216563,-11,-19,-20,-51,-39,-8,0,-6
1528882992231941,2,-5,-18,-7,0,0,-3,1
1528882992231941,3,7,8,9,12,6,4,2
1528882992246814,6,16,20,18,10,7,-3,0
1528882992246814,0,-5,7,36,16,7,10,1
1528882992254052,-1,2,-2,-1,-13,-2,-3,-3
1528882992254052,3,3,-9,-33,-15,-5,-2,0
1528882992283899,-7,-15,-22,-57,-10,24,18,-3
1528882992283899,-4,-9,-10,9,-7,-11,2,-2
1528882992298620,0,0,7,-4,-13,26,-1,-3
1528882992298620,-1,-3,-2,-5,22,4,-1,-2
1528882992306599,-3,0,12,24,2,-7,8,1
1528882992306599,-1,-2,-29,-4,1,-25,-19,-3
1528882992328541,4,6,11,16,20,-1,0,2
1528882992328541,-8,-12,11,12,5,-1,-7,-5
1528882992344556,-4,0,21,15,16,26,25,-3
1528882992344556,3,7,-1,3,17,23,15,3
1528882992358990,3,5,8,16,24,3,-15,-4
1528882992358990,-3,-3,-3,-4,-1,2,7,5
1528882992366886,-2,-7,-50,-28,-20,-32,-31,-10
1528882992366886,-3,-3,19,28,-8,-18,-2,0
1528882992388901,3,2,-3,-8,-6,-6,-6,3
1528882992388901,-1,-3,-7,6,5,11,6,3
1528882992403889,1,1,-4,-10,1,12,10,1
1528882992403889,3,7,6,10,39,17,5,3
1528882992419165,0,-2,4,11,3,-6,-1,0
1528882992419165,0,6,7,0,-3,1,-2,-4
1528882992426396,-4,-6,6,-3,-19,-30,-15,-1
1528882992426396,-3,-6,-45,-29,-8,2,1,1
1528882992441438,0,3,8,5,1,8,-3,1
1528882992441438,0,-1,-10,-9,-24,-11,-5,-3
1528882992456360,3,4,12,8,18,54,39,5
1528882992456360,0,3,-2,1,-10,-18,-19,-7
1528882992471320,-1,-4,-19,-5,11,-13,-14,-2
1528882992471320,-2,0,16,20,-13,-5,-2,-5
1528882992493314,-3,-3,3,-23,-1,-7,-2,-1
1528882992493314,7,-3,-11,-10,-8,-3,-5,-3
1528882992501268,-2,2,8,22,7,2,-1,-1
1528882992501268,-4,-1,9,-3,1,4,3,0
1528882992516201,-1,-1,3,-18,-14,-13,-11,-2
1528882992516201,2,-4,-29,-12,17,6,8,2
1528882992539139,-2,1,6,-13,-18,5,13,0
1528882992539139,0,-5,-15,-17,5,-3,1,1
1528882992569061,1,-1,-11,4,4,-1,-4,1
1528882992569061,0,4,13,25,14,13,8,0
1528882992576042,-3,1,-5,-27,-14,-15,-13,-2
1528882992576042,-2,-9,-5,-7,-17,6,-3,3
1528882992591001,-1,-1,3,17,5,-4,-7,-2
1528882992591001,-4,-6,-2,-22,-8,-3,-2,-1
1528882992614204,2,1,-3,-16,8,5,1,1
1528882992614204,-3,4,37,28,2,2,-5,-4
1528882992621425,-6,-3,21,16,-1,11,5,-5
1528882992621425,4,-7,-7,-2,-1,0,-3,-2
1528882992636384,-4,-7,-18,-15,-2,-8,-10,-1
1528882992636384,3,5,4,3,-5,1,3,0
1528882992651411,-1,1,4,-3,-2,3,5,1
1528882992651411,-2,-8,-8,-13,-4,-5,-2,-2
1528882992659420,0,-1,0,10,1,-6,-6,0
1528882992659420,-2,3,9,4,1,4,5,-3
1528882992674482,-2,7,13,11,4,-2,-1,-1
1528882992674482,9,2,-15,-17,-5,-1,-2,7
1528882992696300,-3,-10,-8,-3,-1,-3,-5,-7
1528882992696300,-3,2,-3,-5,-1,-5,-3,-2
1528882992711599,4,6,2,1,0,-1,-3,0
1528882992711599,2,-3,2,-3,-3,2,5,0
1528882992719463,-2,-19,-6,1,-1,-5,-5,-1
1528882992719463,-2,2,-1,-1,-1,-1,-2,-3
1528882992733798,-1,-10,2,-4,1,0,3,0
1528882992733798,-9,8,11,7,0,0,1,-4
1528882992741985,0,-10,-14,-2,-4,-6,-4,1
1528882992741985,-2,-2,1,-3,-2,0,-2,-4
1528882992749015,-8,7,12,7,0,-2,-1,-3
1528882992749015,-5,11,12,-4,-2,3,-1,-4
1528882992763721,-2,1,-5,11,1,-1,0,0
1528882992763721,2,-6,-3,-7,-4,-1,-2,-2
1528882992771969,2,-1,-26,-12,0,-3,-3,1
1528882992771969,-2,-8,-7,-3,-4,-2,-2,-1
1528882992786557,0,6,33,8,-1,1,0,0
1528882992786557,-2,-5,-10,-7,-3,0,-2,-2
1528882992793868,4,13,5,9,-1,-3,1,5
1528882992793868,3,2,6,1,2,0,0,6
1528882992809175,2,-4,-8,-10,-5,-2,-3,1
1528882992809175,0,3,7,3,2,0,2,0
1528882992816268,0,-9,-11,-6,-3,-3,-2,-2
1528882992816268,-4,9,2,-1,-3,-2,-2,-5
1528882992831488,0,17,8,1,-1,-4,-4,-3
1528882992831488,2,2,-2,-2,-1,0,-2,1
1528882992846525,-4,-15,-14,-4,-3,-1,-3,-2
1528882992846525,0,5,0,-3,0,-1,0,0
1528882992853475,-5,-6,1,0,-2,0,0,-3
1528882992853475,-4,-20,-17,1,0,-1,1,-1
1528882992868787,0,29,17,3,0,-1,-1,-3
1528882992868787,-2,-10,-8,-7,-3,-1,-1,-4
1528882992876754,2,-6,-1,2,-4,-3,-2,1
1528882992876754,0,8,-6,-6,0,1,0,-1
1528882992891411,0,8,-14,-17,-8,-3,-2,1
1528882992891411,-6,-16,-15,1,2,0,-1,-4
1528882992906597,3,8,1,6,-3,-1,-1,4
1528882992906597,-2,-1,-15,-17,-6,0,1,1
1528882992913618,1,-27,-19,0,6,0,1,-1
1528882992913618,-3,25,26,0,-4,-1,-2,-2
1528882992929384,-3,-12,-13,-9,-3,-1,-1,-2
1528882992929384,2,5,10,3,1,-2,-1,-2
1528882992936598,-3,-6,6,6,3,-1,-2,-3
1528882992936598,-2,-23,-15,-5,-2,-3,0,-1
1528882992951327,6,4,1,6,5,10,4,4
1528882992951327,-1,-11,-1,9,26,5,2,-2
1528882992966288,-7,3,-10,-7,-11,-5,-2,-3
1528882992966288,-4,-3,-22,-17,-2,-5,-4,-1
1528882992973268,4,13,0,-1,-12,-3,2,4
1528882992973268,-3,8,53,27,2,3,-3,-3
1528882992989228,2,-10,-11,-8,8,4,1,2
1528882992989228,2,-6,-1,8,5,3,1,2
1528882992996209,-5,7,1,-4,-2,-1,-2,-4
1528882992996209,6,14,-5,-9,-16,-7,-3,1
1528882993011223,2,-1,3,4,5,0,-1,3
1528882993011223,-2,2,1,-5,-6,-2,-3,-1
1528882993026182,-1,-5,-12,-16,-4,1,0,-1
1528882993026182,0,14,6,-4,0,-1,0,-1
1528882993034161,-2,-10,-2,-3,0,-4,-2,-1
1528882993034161,-2,-8,-6,3,-2,1,0,-1
1528882993049121,7,20,17,7,-2,4,1,2
1528882993049121,-5,-25,-14,7,14,0,-1,-1
1528882993056100,-5,-6,-19,-5,-9,-10,-4,-3
1528882993056100,-7,-5,6,2,8,0,-2,-4
1528882993071059,-1,5,11,-2,14,5,0,-1
1528882993071059,2,7,-10,-2,-3,-4,-2,1
1528882993086023,-5,-23,-29,-5,1,-4,-4,-2
1528882993086023,-8,4,3,-5,-13,-4,-2,-1
1528882993094001,4,3,4,1,-4,-3,-4,-2
1528882993094001,-2,0,-5,-7,-6,-2,-2,0
1528882993108957,-8,-12,5,-1,-1,-2,-2,-4
1528882993108957,-12,-23,-11,-11,-4,1,0,-5
1528882993115887,-1,3,-3,-3,-2,-2,-2,0
1528882993115887,1,-3,-5,-5,-3,-4,1,0
1528882993130849,-7,-3,3,0,-3,-2,-4,-5
1528882993130849,-10,-1,-8,-4,-4,0,-1,-2
1528882993145842,-1,6,5,-4,1,-3,-2,-2
1528882993145842,2,-1,2,1,1,-3,-1,0
1528882993153839,-1,13,12,6,2,-1,-1,-1
1528882993153839,3,-8,-5,-6,-3,-3,-2,-1
1528882993168747,-5,-4,-16,-10,-3,-2,-3,-3
1528882993168747,1,-6,4,1,-3,0,0,0
1528882993176726,3,-1,4,2,-4,0,0,1
1528882993176726,-2,5,-4,-1,1,1,0,-1
1528882993191686,-3,-2,1,-6,-4,-2,-1,-2
1528882993191686,3,-1,2,2,2,-1,0,1
1528882993206646,-11,-7,8,5,3,2,1,-7
1528882993206646,-5,-8,-10,-10,-6,-2,-3,0
1528882993213627,4,2,1,0,-2,0,2,-4
1528882993213627,-14,10,8,4,5,3,3,-5
1528882993228587,3,-6,4,-2,-4,-2,-1,0
1528882993228587,0,1,6,2,2,0,1,-2
1528882993236566,-8,7,15,-1,-1,-1,-2,-3
1528882993236566,-2,-35,-24,-2,-3,-3,-4,-5
1528882993251527,2,-6,0,-1,1,-2,-1,0
1528882993251527,3,-2,6,5,-3,0,-1,-1
1528882993266486,-6,-6,-8,-4,-1,-1,-3,-8
1528882993266486,1,-11,-7,-4,-1,0,0,2
1528882993273771,1,1,-7,0,1,1,1,7
1528882993273771,0,5,0,-8,-5,-1,2,-1
1528882993289211,9,10,6,5,2,0,-4,-6
1528882993289211,-2,3,3,-1,0,-2,-1,-2
1528882993296438,2,-4,-3,1,1,1,1,3
1528882993296438,0,2,-5,-7,-1,-5,1,6
1528882993311398,6,-2,-1,3,1,-12,-2,-9
