timestamp,emg1,emg2,emg3,emg4,emg5,emg6,emg7,emg8
1528442775027736,4,0,3,3,1,-5,3,-2
1528442775027736,-2,1,0,-2,0,0,1,-2
1528442775031724,-6,-1,-3,-4,-2,4,-4,-1
1528442775031724,5,-2,2,4,4,-3,3,-4
1528442775039703,-2,-2,-4,-5,-8,0,-1,-2
1528442775039703,-3,-2,-2,2,2,1,-2,2
1528442775041697,0,0,0,-2,-3,-5,2,1
1528442775041697,-1,-2,-1,1,3,-3,1,2
1528442775046684,-2,3,3,-3,-3,1,-2,-2
1528442775046684,-1,0,-2,-1,-1,2,-2,0
1528442775054663,4,-1,3,1,2,-3,2,-1
1528442775054663,-5,-1,-3,-1,-2,0,-1,-1
1528442775063639,-6,-2,-2,-2,0,2,0,1
1528442775063639,5,2,2,0,-1,-3,1,-2
1528442775078600,1,-3,-3,1,1,-1,-2,-1
1528442775078600,-2,-1,-2,-2,-3,2,-3,0
1528442775084584,0,-2,-2,-2,-3,-2,-1,0
1528442775084584,0,-2,0,0,0,-1,-1,0
1528442775102535,-2,2,0,-1,0,1,1,-1
1528442775102535,-2,1,0,-2,-2,0,-2,0
1528442775105528,1,-1,0,7,5,-1,-1,-2
1528442775105528,-2,-2,-2,-6,0,-1,-1,0
1528442775134450,-3,0,2,-2,-1,2,-2,1
1528442775134450,1,1,-1,-2,-2,2,0,-1
1528442775135447,-1,-3,-2,3,0,0,0,-2
1528442775135447,0,0,-2,1,-3,-1,1,-1
1528442775138439,0,-3,-1,2,5,-3,-1,0
1528442775138439,0,1,1,-1,-5,-2,0,-1
1528442775146418,-3,-1,-6,-1,0,-1,-2,2
1528442775146418,-2,-2,-2,0,-2,2,-2,-1
1528442775152402,0,1,0,0,-2,-2,0,0
1528442775152402,-1,2,1,1,0,1,-2,0
1528442775205260,5,-1,2,3,2,-6,3,-1
1528442775205260,1,-2,-2,1,1,0,2,-2
1528442775206257,-7,0,-4,-6,-6,5,-3,1
1528442775206257,3,0,1,1,0,-2,1,1
1528442775207254,0,0,2,1,0,-1,0,-1
1528442775207254,-1,1,-1,2,2,2,-3,0
1528442775207254,1,-1,0,-3,-2,0,0,1
1528442775207254,1,1,-2,-1,-2,-1,1,-3
1528442775212242,-5,0,-2,-3,-1,1,-2,0
1528442775212242,-3,-3,-2,-3,-1,-1,-3,1
1528442775218226,3,-1,-1,7,10,-4,1,-2
1528442775218226,-6,-3,-2,-3,-7,0,-3,0
1528442775226204,-2,0,-1,-3,-1,5,-3,-2
1528442775226204,3,2,2,2,2,-4,1,0
1528442775241165,1,0,-1,-1,-2,-2,-2,-3
1528442775241165,-1,-4,-2,-2,1,2,1,-1
1528442775265100,-1,-2,-3,-1,-1,-1,-1,0
1528442775265100,0,0,-1,-2,-2,-1,1,0
1528442775266098,-1,1,5,0,-2,-2,0,0
1528442775266098,-1,0,-1,0,0,1,-1,2
1528442775272082,1,-2,0,1,0,-2,0,-1
1528442775272082,-2,-2,-1,-1,-2,-2,-2,-1
1528442775278066,-1,-1,-3,-1,-1,-2,-1,-1
1528442775278066,0,-1,1,-1,0,0,0,0
1528442775286044,-1,-2,-1,-2,0,0,1,1
1528442775286044,-1,0,-1,-2,-2,0,-1,0
1528442775301004,-1,-1,-1,-1,-4,3,-2,2
1528442775301004,1,1,1,0,1,-2,-1,0
1528442775309980,0,1,-1,-3,-3,0,-3,1
1528442775309980,-1,-2,-1,1,0,0,-1,-1
1528442775315964,1,1,0,-2,-3,-2,-1,-1
1528442775315964,-1,-1,-4,-1,-1,-1,-1,-1
1528442775330924,-1,-1,0,2,3,0,-1,0
1528442775330924,1,1,0,-5,-7,-1,-1,-1
1528442775337952,0,1,-1,0,0,0,0,-1
1528442775337952,-1,1,1,2,-2,0,-1,-3
1528442775346883,-1,-2,-2,1,0,-1,2,-2
1528442775346883,0,-1,0,1,3,1,1,-1
1528442775360890,1,0,-2,3,3,0,-2,0
1528442775360890,0,2,1,-6,-4,-3,-1,-2
1528442775368849,1,0,-1,2,-1,-1,-3,1
1528442775368849,-1,-2,-2,-2,-2,2,-1,0
1528442775375845,-1,0,-3,-1,1,0,1,0
1528442775375845,-1,-1,1,4,2,0,-1,1
1528442775391762,-1,0,-1,-3,0,-1,-3,-1
1528442775391762,-1,-2,0,-2,-5,-2,-2,0
1528442775397746,0,0,0,1,-1,-2,-2,-3
1528442775397746,-1,-2,-1,-1,1,-2,-1,-1
1528442775414700,-2,-1,0,-4,-3,-2,-1,-1
1528442775414700,1,0,-2,-1,2,-1,1,-1
1528442775420684,0,-1,0,-1,-2,-1,0,-1
1528442775420684,-1,-3,-1,1,0,0,-2,1
1528442775429668,-2,-1,-2,-2,-2,0,0,1
1528442775429668,-2,-2,1,0,1,-1,-1,-2
1528442775435644,0,-1,0,-3,-2,-1,1,0
1528442775435644,0,0,-2,0,-1,-1,0,-2
1528442775452628,1,-2,-3,2,3,1,1,1
1528442775452628,-1,2,2,-3,-6,0,-1,0
1528442775458583,-2,-1,1,-2,-1,1,-2,-1
1528442775458583,0,-1,-2,1,0,-2,-1,-1
1528442775474546,-3,-2,-2,1,4,0,0,-1
1528442775474546,2,1,0,-2,-4,-1,-2,-1
1528442775489501,-3,-4,-2,0,-1,0,-1,-1
1528442775489501,2,2,-2,0,2,1,0,-1
1528442775491496,-1,1,2,1,-1,0,1,-2
1528442775491496,0,-1,-2,0,3,0,-1,0
1528442775503462,0,0,0,-1,-1,-3,-1,-1
1528442775503462,0,-1,1,0,0,-1,-1,2
1528442775512441,0,-2,-2,-2,-2,-3,-2,-2
1528442775512441,-1,2,1,1,0,0,1,0
1528442775518425,-2,-1,-2,1,0,0,-1,-2
1528442775518425,-1,-2,-3,-1,-1,-1,0,-1
1528442775534407,2,2,2,3,1,1,0,0
1528442775534407,-1,-2,-4,-8,-8,-4,-1,-1
1528442775540405,-3,-3,-1,1,2,-1,-2,-1
1528442775540405,-1,-2,-1,-2,-1,2,0,-1
1528442775549341,0,1,0,-2,-6,-2,0,-2
1528442775549341,-1,-2,-1,2,2,0,-1,-2
1528442775563303,-1,-1,-2,1,1,0,1,1
1528442775563303,-1,-1,3,-1,0,-2,-2,-2
1528442775572280,-1,0,0,-1,-2,1,-1,-1
1528442775572280,-1,-1,-2,1,2,2,1,1
1528442775578303,0,2,-1,-2,-2,-1,-1,-1
1528442775578303,1,-1,-1,1,2,-1,-1,-1
1528442775595218,-1,0,1,-3,0,0,-1,1
1528442775595218,-1,-3,-1,-1,0,-2,-1,-1
1528442775601202,-1,0,-1,-2,-2,-1,1,1
1528442775601202,-3,-2,-4,-4,-3,-4,-2,-2
1528442775610228,0,-2,0,0,-1,-1,-2,-1
1528442775610228,-1,0,1,0,1,0,-1,-1
1528442775623143,-1,-3,-2,-2,-1,-1,-1,-2
1528442775623143,-2,-1,-1,1,-1,1,0,-1
1528442775632119,0,0,1,-1,3,0,1,0
1528442775632119,1,5,0,3,1,0,-1,1
1528442775638152,0,0,0,-4,-8,0,-2,-1
1528442775638152,-2,-2,-1,-6,-2,-2,-1,1
1528442775655058,-1,-3,-1,0,0,0,0,-1
1528442775655058,-1,-2,-2,-1,-4,1,-1,-1
1528442775661050,1,1,2,0,3,0,-1,1
1528442775661050,1,-1,0,1,-2,0,1,-1
1528442775670057,-2,-3,-1,-1,0,-1,-2,-1
1528442775670057,-1,-1,0,-2,1,0,-1,-3
1528442775682997,0,0,0,1,0,-2,-1,-2
1528442775682997,0,-1,-2,1,-2,-1,-1,0
1528442775691960,0,2,0,-1,-1,-1,-1,1
1528442775691960,-3,-1,-2,1,-1,0,-1,-2
1528442775698996,1,0,2,-1,1,0,1,0
1528442775698996,0,1,0,0,0,1,-2,0
1528442775715468,-4,-1,-3,0,-1,1,-1,-3
1528442775715468,-1,-3,-2,-1,-1,-4,-1,1
1528442775721195,-1,-2,0,1,3,1,-1,1
1528442775721195,-3,-1,0,-8,-7,-2,-1,-1
1528442775730169,1,-2,-2,0,-2,-2,0,-2
1528442775730169,0,-3,-1,0,2,-2,-2,-1
1528442775743133,-1,-3,-3,0,-2,1,0,-1
1528442775743133,0,4,0,3,4,-1,0,0
1528442775752183,-1,1,-4,-1,-3,-2,1,0
1528442775752183,-1,2,-1,1,1,-2,0,0
1528442775758353,0,-1,2,-2,-1,-2,-1,-1
1528442775758353,-1,2,-1,1,1,0,-1,-1
1528442775783138,-2,-2,-1,-3,0,0,-1,0
1528442775783138,0,0,1,0,-3,-2,-2,-2
1528442775783138,-2,-2,-2,0,0,1,0,0
1528442775783138,-2,-2,-1,1,-1,-2,0,0
1528442775790117,1,0,1,0,2,-1,0,0
1528442775790117,-2,-1,-1,-3,3,0,-1,1
1528442775812025,1,-1,-2,-1,-2,-2,0,-1
1528442775812025,0,2,1,3,3,-2,1,0
1528442775814020,0,3,3,-1,-3,0,-1,-1
1528442775814020,0,-2,0,-6,-6,-2,0,-1
1528442775818009,-2,-1,-3,3,2,-1,0,-1
1528442775818009,-2,-3,0,-4,-5,1,0,-1
1528442775842951,1,5,1,3,2,-3,-1,-1
1528442775842951,-3,1,2,1,-1,-1,0,0
1528442775843940,-1,-1,1,-1,-1,-1,-3,0
1528442775843940,1,-3,-3,0,0,-1,0,-1
1528442775849924,-1,-5,-3,-5,-1,-2,1,0
1528442775849924,2,0,-1,0,0,2,1,-3
1528442775879897,0,2,0,1,1,-1,-2,-2
1528442775879897,0,1,2,2,0,1,-1,0
1528442775881855,0,0,-2,-1,-2,0,-1,0
1528442775881855,-1,-2,0,0,2,1,-1,0
1528442775895083,-1,-3,0,-4,-2,-1,-1,-1
1528442775895083,0,-2,0,1,-2,-2,1,-2
1528442775896855,-1,-2,-1,0,-2,1,-1,-1
1528442775896855,1,1,2,5,3,1,0,1
1528442775900848,-1,1,-2,-7,-4,-1,-1,-2
1528442775900848,-1,-1,0,-3,-5,-2,-2,1
1528442775916025,-1,-1,-3,-2,-1,1,1,0
1528442775916025,-1,0,-2,2,2,0,-2,-1
1528442775931969,1,2,0,3,-1,0,1,-1
1528442775931969,-3,-2,-2,-2,0,2,0,0
1528442775933757,0,-3,-1,-1,-2,-3,-3,-2
1528442775933757,-1,-3,0,0,1,-1,0,-1
1528442775937749,-1,-2,-3,0,2,-2,-1,2
1528442775937749,1,1,-1,-1,1,0,0,-2
1528442775962177,1,1,1,0,-1,-1,-1,1
1528442775962177,-3,-2,-3,-2,0,0,-1,-1
1528442775962177,-1,-1,-2,-2,-2,3,2,1
1528442775962177,1,1,0,1,0,-1,-1,1
1528442775969977,-2,0,3,-2,-1,-1,-2,0
1528442775969977,-3,-1,-4,-2,-2,-3,-1,2
1528442775984078,1,-1,-2,0,-1,0,-1,0
1528442775984078,-2,-5,0,-3,0,-3,-1,0
1528442775992936,1,-2,-1,5,3,1,1,-1
1528442775992936,1,1,1,-4,-4,1,0,-1
1528442775997891,1,0,0,1,1,-1,2,-1
1528442775997891,0,2,0,-1,-2,-1,-2,0
1528442776012851,-2,-3,-3,0,0,1,-2,0
1528442776012851,1,-3,0,1,0,-2,1,0
1528442776030028,0,0,-2,3,4,-2,-1,0
1528442776030028,-2,1,0,-2,-2,-1,-1,-2
1528442776031903,-1,0,0,-1,-3,-1,-1,-2
1528442776031903,-1,-1,-3,2,1,1,1,-1
1528442776042796,-3,1,3,-3,-2,-3,0,0
1528442776042796,1,-1,-3,-1,-1,-2,1,-1
1528442776067872,0,-2,-3,-2,0,0,0,0
1528442776067872,2,0,2,-2,0,-1,-1,-1
1528442776067872,-1,3,1,0,1,2,-1,2
1528442776067872,0,-2,-1,0,0,-2,-1,-2
1528442776073940,-3,-2,-1,-4,-1,0,-1,-2
1528442776073940,-2,-2,-3,-1,-7,-3,0,-2
1528442776089645,0,1,0,0,-2,2,-1,0
1528442776089645,-1,0,0,0,1,1,0,0
1528442776091664,-1,1,-3,-3,-5,-2,0,-2
1528442776091664,1,0,2,0,3,-1,-2,0
1528442776102912,-1,-3,-3,-2,-3,-4,-3,-3
1528442776102912,-3,-2,0,2,0,1,-1,-2
1528442776120627,-3,-2,0,3,5,1,0,-1
1528442776120627,0,1,-1,-6,-9,0,-1,-1
1528442776121863,0,2,0,0,-2,0,0,-2
1528442776121863,1,-1,2,1,1,0,1,1
1528442776133827,-1,-1,-3,0,-3,1,-2,-1
1528442776133827,-1,0,-1,-1,2,3,0,-3
1528442776149814,-1,-2,-3,0,-2,0,-2,2
1528442776149814,-1,-1,-1,-1,0,-1,-1,0
1528442776151575,1,0,2,4,-1,1,0,0
1528442776151575,-1,-1,0,-9,-8,0,0,1
1528442776163546,0,-3,-2,1,1,-1,0,0
1528442776163546,-2,2,-1,2,2,0,0,-1
1528442776172489,-1,1,1,-2,-1,0,-1,1
1528442776172489,-1,0,-5,3,2,-2,-2,-1
1528442776186490,-1,-4,0,-1,-1,-2,1,1
1528442776186490,-1,2,2,-2,-2,-2,0,-2
1528442776193433,0,-1,-1,2,6,0,0,-1
1528442776193433,0,1,-1,0,-1,-3,-2,0
1528442776209392,0,0,0,-4,-2,0,1,-1
1528442776209392,-2,-4,-2,1,2,0,-2,-2
1528442776211385,-1,-3,0,-5,-4,-3,0,-1
1528442776211385,2,0,-2,1,5,1,1,-1
1528442776223353,0,3,0,0,1,1,-1,1
1528442776223353,-1,0,-2,-2,-6,-1,-1,-2
1528442776239355,-2,1,0,-1,-2,0,1,0
1528442776239355,-1,-4,-1,1,0,-1,-1,-2
1528442776246292,-2,-2,2,-3,0,0,-1,-4
1528442776246292,0,-3,-4,-3,-3,-1,-3,0
1528442776253275,2,3,1,2,-2,-5,-2,-1
1528442776253275,-1,4,2,4,5,-1,-1,0
1528442776268271,-2,-2,-1,-7,-10,-1,1,0
1528442776268271,1,-2,0,1,2,-1,1,1
1528442776285188,0,-2,-3,-4,-3,-1,-1,0
1528442776285188,-1,1,0,1,2,1,0,0
1528442776286185,-1,-2,-1,2,3,-2,-4,-2
1528442776286185,0,-2,-2,-3,-6,2,-1,-1
1528442776292170,-1,-3,0,-2,0,1,-2,0
1528442776292170,-2,0,2,-1,-1,-1,-1,-1
1528442776306132,-1,-4,-5,3,3,-1,-1,-2
1528442776306132,-1,-1,-2,4,3,-1,0,0
1528442776313147,0,2,0,-9,-10,1,0,-1
1528442776313147,1,-1,0,2,2,-3,-2,0
1528442776329122,0,-2,-1,-3,-3,-1,0,0
1528442776329122,0,-1,-2,1,2,1,-1,0
1528442776336104,-3,3,3,1,2,0,-1,0
1528442776336104,-2,-4,-2,-3,-5,-1,-2,0
1528442776343087,0,-1,1,0,0,0,-2,-2
1528442776343087,-1,-2,0,-3,-2,-2,-1,-1
1528442776352010,1,-2,-1,6,6,-1,1,-1
1528442776352010,-1,-1,-2,-8,-10,1,1,1
1528442776366026,0,0,-1,5,1,-2,-2,1
1528442776366026,-2,1,0,-1,0,-1,-1,-1
1528442776373008,-3,-2,-6,-1,-2,-2,-2,0
1528442776373008,2,0,3,2,1,-2,-1,0
1528442776396944,-1,0,-1,-1,-1,0,0,-1
1528442776396944,-2,-2,-1,-3,-2,-2,-2,1
1528442776398884,-2,-3,-3,0,-1,-1,0,-2
1528442776398884,-1,-3,-2,-1,0,0,0,-1
1528442776402873,-1,1,-3,-5,-6,0,-1,-1
1528442776402873,-1,-1,1,1,0,1,0,-3
1528442776411849,0,0,-2,-1,-2,1,-2,-1
1528442776411849,1,1,-1,0,1,0,-2,-1
1528442776426861,0,1,1,-1,-2,0,1,-1
1528442776426861,1,-1,-3,2,2,1,0,1
1528442776432795,-1,-4,-2,-3,-5,-1,-1,-1
1528442776432795,-2,0,-2,-1,2,0,2,-3
1528442776449800,0,1,1,2,-3,0,-1,1
1528442776449800,-1,-1,-1,0,1,0,-1,-1
1528442776455732,1,1,2,1,2,0,1,2
1528442776455732,0,-1,0,0,1,-1,-1,1
1528442776463711,-3,-4,-1,-1,0,0,-2,-1
1528442776463711,0,-2,-1,0,-1,-2,0,-1
1528442776472716,0,1,0,0,-1,1,-1,0
1528442776472716,-1,-2,-1,-2,-1,2,-1,-2
1528442776486710,-1,0,2,-1,0,1,0,2
1528442776486710,0,2,0,-2,-4,1,-1,-2
1528442776493685,-2,-3,-2,-1,1,-5,-2,-2
1528442776493685,0,-1,1,0,-1,0,1,0
1528442776517612,0,1,-1,1,1,-1,0,-2
1528442776517612,-2,1,0,-1,1,0,0,1
1528442776518565,-2,-7,-6,-4,-2,1,-3,-2
1528442776518565,-1,0,-1,5,3,-1,-1,-1
1528442776523605,1,5,2,-3,-6,-2,-1,-1
1528442776523605,1,-1,1,3,0,0,0,-2
1528442776532582,-1,-6,-3,-3,-3,0,1,-1
1528442776532582,-4,2,-1,-2,-3,-1,0,0
1528442776545548,-2,-1,-2,2,4,-1,1,1
1528442776545548,-2,-1,0,-3,-3,-1,-2,-2
1528442776562446,1,4,2,5,2,1,1,-1
1528442776562446,-1,-5,-4,-6,-2,2,-2,-1
1528442776570260,0,-1,1,-1,-1,0,1,-1
1528442776570260,0,1,-2,0,-1,-1,0,1
1528442776571145,0,-2,-2,2,2,0,1,-3
1528442776571145,-1,0,-2,-3,-2,-2,0,0
1528442776592093,-2,0,-1,3,1,0,0,-1
1528442776592093,0,-2,0,-8,-9,-2,0,2
1528442776594088,0,0,-2,2,3,-1,1,0
1528442776594088,0,0,-1,-6,-9,2,-2,-2
1528442776615276,-1,-1,0,0,1,-4,0,-1
1528442776615276,1,0,1,3,3,-1,0,0
1528442776616030,-2,2,0,-2,-2,-1,0,2
1528442776616030,1,-4,-2,1,5,2,1,-2
1528442776630235,-1,-4,-1,-4,-6,-1,-2,-1
1528442776630235,-2,-1,-3,-1,1,-2,-2,-2
1528442776631234,1,2,2,-2,-4,0,0,1
1528442776631234,0,2,3,4,3,-2,-1,0
1528442776643793,0,-3,-3,2,3,1,-1,-2
1528442776643793,-1,-1,-3,-7,-3,-1,-2,-4
1528442776652501,-2,0,1,-2,-2,1,0,0
1528442776652501,-1,-2,-3,0,-2,-2,-3,-1
1528442776666464,-1,-1,-1,-1,-1,0,-1,0
1528442776666464,-1,-2,-1,0,0,-1,1,-1
1528442776675439,1,1,0,-1,1,-1,0,-2
1528442776675439,-2,-1,1,-3,-1,-1,0,1
1528442776689452,0,2,-2,-1,-1,-2,0,-1
1528442776689452,-1,-1,-1,5,6,0,0,0
1528442776691456,0,-3,-2,-10,-10,-2,-1,-1
1528442776691456,-2,-1,1,2,0,0,0,-2
1528442776703682,0,-1,-2,-3,-1,-3,0,0
1528442776703682,-1,0,-1,1,0,-1,-1,2
1528442776712658,0,2,1,1,2,0,-2,1
1528442776712658,0,-3,-3,0,-3,-2,0,-1
1528442776734599,0,-2,-1,-1,-2,-1,-1,-1
1528442776734599,-1,1,-1,-1,1,1,1,2
1528442776736593,2,-1,-1,1,0,-3,2,-1
1528442776736593,0,-1,-2,-2,-2,-3,0,-1
1528442776750137,-4,-2,-3,0,1,2,-2,-1
1528442776750137,0,-1,0,1,-2,-1,1,-2
1528442776751135,-3,0,2,4,4,1,-2,-1
1528442776751135,-2,-1,-1,-5,-3,-2,-2,0
1528442776762829,-1,-1,-1,0,2,1,0,-1
1528442776762829,-2,-1,-1,-6,-6,-3,-1,0
1528442776771809,-2,-1,-3,0,-2,-1,-1,1
1528442776771809,-1,-1,-2,3,1,1,0,-1
1528442776786060,0,2,1,0,-1,-1,0,0
1528442776786060,-1,2,1,-1,0,-1,-3,0
1528442776794745,0,1,-2,-1,0,-3,-1,-2
1528442776794745,1,-1,-1,1,1,-1,0,3
1528442776808945,0,-3,-2,-8,-8,0,-1,-2
1528442776808945,-1,-2,0,3,0,-1,-2,0
1528442776815932,-1,-2,-1,-1,0,0,0,-1
1528442776815932,0,1,1,-1,-2,1,-2,-2
1528442776831649,-3,1,0,2,2,-1,-2,1
1528442776831649,0,-2,-2,-1,-1,-3,1,2
1528442776833640,0,-2,-1,1,1,2,0,0
1528442776833640,-2,-3,-1,-5,-3,-2,-1,-1
1528442776845608,1,1,2,0,1,0,-2,-2
1528442776845608,0,-1,0,-2,-2,2,0,-1
1528442776854588,1,-1,-2,0,1,-1,0,1
1528442776854588,-2,0,-1,3,1,0,-1,-1
1528442776868550,-1,-1,-1,-4,-4,-1,1,2
1528442776868550,0,0,0,0,2,1,0,-2
1528442776875529,0,-2,1,0,-1,0,-1,0
1528442776875529,-1,-1,-1,0,-2,2,-2,-1
1528442776892522,0,-1,-3,0,3,-2,0,-1
1528442776892522,-1,1,0,3,2,-1,0,-2
1528442776893622,0,3,2,-7,-10,-1,-1,1
1528442776893622,0,-3,0,0,0,-3,0,-1
1528442776906708,-1,-3,-2,-1,1,0,0,-1
1528442776906708,0,-1,-1,-1,0,-1,-2,0
1528442776920970,-2,-1,-4,-1,-1,0,-1,-1
1528442776920970,-1,1,1,3,3,-1,0,0
1528442776929193,-1,-4,-2,-4,-4,0,-1,1
1528442776929193,-3,-1,-1,0,-3,1,-2,1
1528442776936170,-1,-1,1,1,1,-3,-1,-1
1528442776936170,-1,-1,-3,1,-1,0,1,-2
1528442776951868,1,4,1,-3,-2,-2,0,-2
1528442776951868,0,0,0,-1,-1,0,1,0
1528442776953860,0,-1,0,-1,-1,-1,1,0
1528442776953860,-3,-4,-1,-2,0,-1,0,1
1528442776967111,-3,-3,-3,1,0,-1,-2,0
1528442776967111,2,1,1,-2,0,-1,0,0
1528442776981531,0,1,-2,1,-2,-3,-3,0
1528442776981531,0,0,-1,-2,2,0,0,0
1528442776989375,1,-1,0,-2,-7,-2,-2,-1
1528442776989375,0,-2,0,0,0,-2,-1,-2
1528442776996470,0,2,-3,-1,0,1,-1,-2
1528442776996470,-2,2,-1,0,2,-1,-2,0
1528442777012140,-2,0,1,1,1,-2,0,-2
1528442777012140,-2,-4,-1,1,0,0,-1,0
1528442777013874,-2,-1,2,-5,-4,-1,-1,-1
1528442777013874,2,1,2,0,-2,0,0,-2
1528442777026849,-2,-2,-2,2,1,1,1,-2
1528442777026849,-2,-2,-2,0,-2,-1,-1,-1
1528442777033947,-2,-3,-1,-1,2,2,0,-1
1528442777033947,0,1,1,-1,0,-1,-1,-1
1528442777048798,-1,-1,0,-1,-3,-3,-3,-1
