timestamp,emg1,emg2,emg3,emg4,emg5,emg6,emg7,emg8
1529311290405250,-2,-2,-1,-1,-1,1,-3,0
1529311290405250,-1,-2,-1,1,0,0,0,0
1529311290412231,-2,0,0,-1,0,-1,0,0
1529311290412231,1,-2,0,-1,0,-2,-2,0
1529311290420212,0,1,0,1,-1,-1,-1,0
1529311290420212,0,-1,-1,-2,-1,0,-1,-1
1529311290427193,1,0,-1,-2,-1,0,-2,0
1529311290427193,1,0,-2,0,1,-1,-1,-2
1529311290442151,-2,-2,0,-1,0,1,0,-2
1529311290442151,0,0,0,-1,-2,-1,-1,2
1529311290450156,-1,-2,1,-1,-1,-1,-1,0
1529311290450156,0,0,1,0,-2,0,2,-2
1529311290465116,-1,0,1,-1,0,-2,0,0
1529311290465116,-2,0,0,-1,-1,-1,-2,-1
1529311290472119,0,-2,-1,0,1,0,-3,-1
1529311290472119,-2,-3,-1,0,-1,0,0,0
1529311290480051,-1,0,-1,0,-1,0,0,0
1529311290480051,-1,-1,-1,-2,-2,-2,-1,0
1529311290487030,0,0,-1,-1,-2,-1,0,-1
1529311290487030,1,0,0,1,0,1,0,0
1529311290501993,1,-2,0,-2,1,0,-1,-1
1529311290501993,1,-1,0,-2,0,-1,-2,-1
1529311290509969,-1,1,-1,0,-1,1,-1,-2
1529311290509969,-3,-1,-2,-3,-2,-2,-2,0
1529311290524929,0,0,0,3,1,-1,0,-1
1529311290524929,1,-1,-2,0,-1,0,-1,-1
1529311290532908,0,0,1,1,-2,-2,1,-2
1529311290532908,0,-1,0,-1,-1,-1,-1,-1
1529311290539889,0,1,0,1,-1,-1,-1,-1
1529311290539889,-1,1,0,0,0,-1,0,-1
1529311290547868,0,-1,-2,0,0,-2,-1,0
1529311290547868,-1,1,-2,1,2,0,-1,0
1529311290562829,0,-1,-1,0,-1,-2,-1,1
1529311290562829,1,-1,-2,-1,-2,-1,-1,0
1529311290569811,-1,-1,-1,-2,-4,1,0,1
1529311290569811,0,-1,0,1,0,1,0,-2
1529311290584768,0,-1,-1,0,-1,-1,0,-1
1529311290584768,-2,-2,0,-1,1,0,-1,0
1529311290599729,-1,-1,-2,-2,-2,1,-2,0
1529311290599729,0,0,-1,0,-1,0,0,-1
1529311290614688,-1,0,-1,-1,0,0,-1,0
1529311290614688,1,1,0,-1,0,-1,-2,-1
1529311290622669,0,-2,1,2,0,-1,-1,-2
1529311290622669,0,1,-1,0,-1,-2,0,1
1529311290637628,0,-1,0,-1,-2,-3,1,-1
1529311290637628,0,0,0,-1,-2,1,0,0
1529311290644624,0,0,-2,-3,1,1,-1,-3
1529311290644624,-1,-2,2,0,-2,-2,1,-1
1529311290659570,0,-2,-1,-2,-1,0,-2,1
1529311290659570,0,-1,-1,1,1,2,-1,-2
1529311290674529,-1,-1,-2,-1,1,-3,0,0
1529311290674529,-1,-1,-2,0,-1,-2,-1,-2
1529311290682508,0,0,-1,-1,0,-2,-1,0
1529311290682508,0,0,0,0,0,0,-1,0
1529311290697475,-1,-1,0,0,0,0,1,0
1529311290697475,0,-1,0,0,0,-2,-2,0
1529311290705446,1,0,1,-3,-2,-1,0,-1
1529311290705446,-1,0,-1,-2,-1,-2,-1,0
1529311290720462,-1,-2,0,-1,1,-1,0,2
1529311290720462,0,-2,-1,-2,0,-1,-1,-1
1529311290735422,0,-2,-1,0,0,0,-1,-2
1529311290735422,-1,-2,0,0,-1,0,-1,-2
1529311290742402,-1,-1,0,-1,-1,-2,-1,-2
1529311290742402,0,0,-1,0,0,0,0,-2
1529311290757342,-1,0,-1,1,0,-1,-2,0
1529311290757342,1,-1,-1,-1,2,-1,-2,-1
1529311290765286,-1,-1,1,-1,-3,0,1,0
1529311290765286,0,-2,0,1,0,-1,-2,0
1529311290780249,0,0,1,1,0,1,1,-2
1529311290780249,-1,1,-1,-1,-1,0,-2,-1
1529311290802240,-1,0,-1,-1,-1,-2,-1,-1
1529311290802240,0,-2,0,0,1,0,0,-1
1529311290810211,0,-1,-2,-2,0,0,-1,-1
1529311290810211,-2,1,1,0,-1,-1,1,0
1529311290825128,-1,2,1,1,0,-1,0,0
1529311290825128,-1,-1,-1,0,0,1,0,1
1529311290832109,0,1,-3,-1,-2,0,-2,-1
1529311290832109,0,0,-2,-2,-1,-1,-2,0
1529311290855048,-2,0,-1,-1,-2,-1,0,-1
1529311290855048,0,-2,-2,-1,0,-2,0,-1
1529311290862273,0,-1,0,1,2,-1,1,-1
1529311290862273,0,0,0,-2,-1,-1,0,1
1529311290878130,-2,1,0,-1,-3,1,-4,-1
1529311290878130,-1,1,0,0,-2,-2,-2,0
1529311290885243,-1,0,-1,-1,-2,-1,-1,0
1529311290885243,0,1,-1,1,1,-1,1,0
1529311290900524,-1,-1,-1,1,-2,-2,-1,0
1529311290900524,-2,-1,-2,-1,0,0,0,0
1529311290915615,-1,0,-1,-1,1,-1,-2,-1
1529311290915615,-1,-1,-2,-1,0,-1,-1,-1
1529311290922597,1,-1,-1,-1,0,0,0,1
1529311290922597,0,-2,-1,-1,0,0,-3,0
1529311290937560,0,-1,-1,-2,-2,-1,-1,0
1529311290937560,1,-1,0,-1,0,0,-4,-1
1529311290945538,-2,0,-1,0,-2,-2,2,-1
1529311290945538,-1,-2,0,-1,-1,-2,-1,-2
1529311290960499,-1,0,1,0,1,1,-2,-2
1529311290960499,-2,0,-1,-1,-1,0,0,-3
1529311290975457,-1,-1,-1,-1,0,-2,0,0
1529311290975457,0,0,0,0,0,0,0,0
1529311290983243,-1,-2,-2,0,-2,-2,1,-1
1529311290983243,0,-1,0,0,-2,-1,-1,0
1529311290998121,-3,-1,0,0,-1,0,-2,-2
1529311290998121,-2,0,-1,-1,0,-2,-2,-1
1529311291005858,-1,-1,-1,-1,1,-1,-1,-1
1529311291005858,-2,-1,0,1,0,-1,1,-2
1529311291020293,-1,0,0,-3,2,1,0,0
1529311291020293,1,-1,-1,-2,-2,0,-1,-1
1529311291034991,0,-1,1,0,-1,-2,1,-2
1529311291034991,1,-1,-2,-2,0,1,2,0
1529311291042969,0,-1,-1,0,-2,-1,-1,0
1529311291042969,1,-2,0,0,-2,-1,0,0
1529311291057960,1,-1,0,0,0,0,-1,0
1529311291057960,-1,-1,1,-1,-2,-2,0,-2
1529311291064950,-2,0,-1,0,-1,0,1,0
1529311291064950,-1,-1,0,0,2,0,-1,-1
1529311291079871,0,3,-1,-2,1,0,-3,-1
1529311291079871,-1,-1,0,-3,-7,-1,0,0
1529311291095075,0,1,-2,-3,-1,0,1,-1
1529311291095075,-2,0,-2,-1,-1,0,-3,-1
1529311291103249,-1,-2,-1,1,-3,0,-1,0
1529311291103249,0,1,-1,3,3,2,0,0
1529311291117462,-1,-2,1,0,-1,0,1,-1
1529311291117462,1,0,1,0,0,-1,0,-2
1529311291125441,-1,-1,-1,-2,0,-2,-2,0
1529311291125441,-1,0,-2,-1,2,0,-2,0
1529311291140401,0,-1,0,-1,-1,-1,-1,0
1529311291140401,0,-1,0,-1,-2,-1,0,1
1529311291154930,-1,0,0,-1,-2,0,-1,0
1529311291154930,0,-1,0,-1,2,0,1,1
1529311291162909,0,1,-2,-1,-2,-1,0,-2
1529311291162909,-1,-1,-1,-1,-1,0,0,0
1529311291177439,-1,2,-1,-1,0,1,-2,1
1529311291177439,1,1,-1,0,-2,-2,-1,-1
1529311291185478,-2,-1,-1,0,-1,0,0,-2
1529311291185478,0,-1,0,2,2,0,-1,-1
1529311291200673,-1,-3,1,0,1,0,0,0
1529311291200673,0,0,-2,-3,-4,0,0,-1
1529311291215632,-1,-1,-1,-1,0,-3,-2,-2
1529311291215632,-1,-2,-1,-3,-4,-1,-2,-1
1529311291222616,-1,0,0,1,1,0,-1,0
1529311291222616,-1,0,-1,-1,-1,-2,-1,-1
1529311291237316,-1,1,-1,-2,0,-1,0,1
1529311291237316,0,-1,-2,-1,0,-1,1,0
1529311291245524,0,-1,0,0,0,0,1,-2
1529311291245524,1,-2,0,-1,-1,0,-1,-1
1529311291260490,-2,-1,1,0,0,-1,0,2
1529311291260490,-2,-2,0,-1,0,-3,-1,-1
1529311291267479,0,-1,-2,-1,-1,0,-2,1
1529311291267479,0,0,-3,-1,0,-2,-1,-1
1529311291283221,0,-1,0,0,-1,0,2,0
1529311291283221,0,1,0,0,0,-1,-1,-2
1529311291298243,1,-2,0,-1,1,0,0,0
1529311291298243,1,-1,-1,-2,-7,0,-3,-2
1529311291305708,-1,-1,-1,-3,-2,-1,-1,-1
1529311291305708,-1,1,-2,-1,1,-1,0,-2
1529311291320426,0,-1,-1,1,-2,-2,-1,-1
1529311291320426,0,1,1,1,2,0,0,0
1529311291327376,0,-3,-1,2,1,0,-1,-2
1529311291327376,-2,-1,0,-3,-2,-1,-1,1
1529311291342367,-1,0,-1,-1,-1,-1,-1,-2
1529311291342367,0,-3,-1,-2,1,-1,0,0
1529311291357535,-1,0,0,1,-1,0,-1,0
1529311291357535,-2,-1,-1,1,0,0,-1,-1
1529311291365514,1,0,-1,0,1,0,-1,-1
1529311291365514,0,-1,-1,-2,2,1,0,-3
1529311291380235,0,-1,-1,-1,0,0,0,-1
1529311291380235,0,0,-1,0,1,-2,-1,1
1529311291387455,-1,-1,-1,0,0,-1,-1,0
1529311291387455,-1,0,0,-1,-2,-1,-1,0
1529311291402454,-1,0,2,-1,-3,-2,-1,-2
1529311291402454,0,2,-1,0,1,0,-2,-1
1529311291417414,0,0,-2,-1,-1,0,-2,1
1529311291417414,-1,-1,-1,0,0,0,0,-2
1529311291425662,-2,1,-1,0,-1,-1,0,-1
1529311291425662,-2,-2,0,1,1,-1,1,-1
1529311291440721,-1,-2,-2,0,1,2,0,1
1529311291440721,1,0,1,-2,0,2,0,0
1529311291447621,0,-2,-1,-1,-5,-2,-2,-1
1529311291447621,0,1,0,0,-1,-1,0,1
1529311291462580,0,0,-1,-2,0,0,0,-3
1529311291462580,-1,-1,0,-1,-2,0,-2,-1
1529311291477903,0,-1,-1,-2,1,-4,1,-1
1529311291477903,0,-1,0,0,-1,0,-2,-1
1529311291485538,-1,-2,-2,0,-1,-2,0,1
1529311291485538,0,-1,-2,-1,-1,-1,-1,0
1529311291500856,0,0,-1,1,-2,-1,0,0
1529311291500856,-3,0,-2,1,-1,-1,0,-2
1529311291508051,0,0,1,-2,1,-1,1,0
1529311291508051,0,0,-1,1,-1,-1,0,-2
1529311291522998,0,-1,0,0,-1,-1,-1,0
1529311291522998,0,1,-1,0,1,-2,0,0
1529311291537965,2,1,-2,-1,-1,1,0,2
1529311291537965,-1,-1,0,-1,-1,0,0,0
1529311291545717,1,0,0,0,0,0,-3,-1
1529311291545717,0,-1,-1,-1,0,0,-1,-1
1529311291560766,-1,-1,0,-1,-2,-2,0,-2
1529311291560766,-1,-1,-1,-3,-2,-1,1,0
1529311291567845,-2,0,-1,0,0,0,-2,-1
1529311291567845,-2,-1,-1,3,2,-1,0,-1
1529311291582803,-2,-1,0,-1,1,1,-3,0
1529311291582803,-1,-1,-1,-3,-1,-2,-1,0
1529311291598232,-2,1,-1,1,1,0,-1,0
1529311291598232,0,0,0,1,0,1,-1,-3
1529311291612784,-1,0,-3,-1,0,-2,-2,-2
1529311291612784,-1,-1,0,1,1,-1,0,-1
1529311291628005,1,-1,0,0,-1,-1,-1,0
1529311291628005,0,-1,1,0,0,0,0,1
1529311291635300,-1,-1,-1,-2,1,0,0,-1
1529311291635300,-1,-3,-2,-3,-4,0,-2,-1
1529311291650241,-3,-1,-1,0,-1,-1,-1,-1
1529311291650241,0,1,1,1,-1,-2,2,-1
1529311291665344,0,1,0,0,-2,1,0,0
1529311291665344,0,-1,0,-1,0,0,0,1
1529311291680238,-1,0,-1,-3,-1,-1,-1,0
1529311291680238,0,2,-3,-1,-1,0,-3,-1
1529311291688363,0,0,-1,0,-1,0,-1,-1
1529311291688363,0,-2,1,2,1,-1,-1,0
1529311291703219,1,-1,-1,-2,3,-1,0,0
1529311291703219,0,-2,-2,-3,-2,-1,-1,-1
1529311291718107,-1,-2,-1,2,0,0,0,0
1529311291718107,0,-1,0,1,-1,0,1,1
1529311291725652,0,-1,1,0,-1,-1,0,0
1529311291725652,0,0,0,0,0,-2,-1,1
1529311291740730,-3,0,-1,-1,-2,-2,-2,0
1529311291740730,1,-1,-2,-2,-2,0,0,0
1529311291747952,1,-1,0,0,-1,0,0,-1
1529311291747952,1,1,-1,-2,-1,-1,0,-1
1529311291762659,-1,-2,0,1,-1,0,-1,-1
1529311291762659,0,0,0,2,2,0,-1,0
1529311291777942,-1,0,1,-1,-1,0,0,0
1529311291777942,-2,-1,0,0,3,0,0,1
1529311291784850,-2,0,0,-3,-8,-3,-1,-2
1529311291784850,-2,0,1,-1,-2,-2,0,0
1529311291800639,-2,-1,0,1,-1,-3,0,-1
1529311291800639,0,-1,-2,-1,-1,0,0,0
1529311291807528,-1,0,-1,-1,1,0,0,-2
1529311291807528,0,-1,-1,0,-1,1,0,0
1529311291823222,0,-2,0,-1,1,1,0,-2
1529311291823222,-2,-1,0,-1,0,-1,0,0
1529311291838133,1,0,-1,-1,0,0,-1,0
1529311291838133,-2,-1,-1,0,-2,0,1,-1
1529311291845129,-1,-1,-2,-1,-1,0,0,-1
1529311291845129,-1,0,0,0,-1,-2,-2,-1
1529311291867837,0,0,-3,0,-1,-2,0,1
1529311291867837,0,0,-1,-1,-1,-2,0,-1
1529311291874809,0,-1,-1,-1,2,-1,1,1
1529311291874809,0,0,-1,1,1,-2,-1,-1
1529311291889769,2,0,0,-3,-5,-1,-1,0
1529311291889769,0,-2,0,-1,-2,0,0,0
1529311291904784,0,-1,-1,1,0,0,-2,0
1529311291904784,0,-2,-2,-1,-1,-2,1,-1
1529311291919752,-1,-2,-1,0,0,0,0,-2
1529311291919752,0,0,-1,0,0,-1,0,-2
1529311291927725,-1,-2,0,0,0,-2,-2,-1
1529311291927725,-1,-2,0,-1,-1,0,-1,-1
1529311291942683,-1,0,-1,-4,-1,0,1,0
1529311291942683,-1,-1,0,1,0,0,-1,0
1529311291957642,-1,-1,0,-2,0,-2,-1,-1
1529311291957642,-1,-1,-2,-3,1,1,-2,1
1529311291964625,0,0,1,0,-3,1,-1,0
1529311291964625,0,0,-2,-1,-1,-1,-1,0
1529311291979530,-2,0,0,-1,-1,-1,1,-2
1529311291979530,0,1,1,2,0,-2,1,-1
1529311291987562,0,2,0,0,1,0,0,0
1529311291987562,-1,0,-2,-1,0,1,1,1
1529311292002529,-4,-4,-2,4,2,1,-2,-1
1529311292002529,1,-1,-3,-3,-6,-1,0,-1
1529311292017481,0,-1,1,0,0,-1,-1,-1
1529311292017481,-2,0,0,0,2,0,-1,0
1529311292025460,-1,-3,0,0,0,-1,0,0
1529311292025460,0,-1,0,-2,1,-1,-2,-1
1529311292040419,0,0,-3,1,-1,0,-1,-1
1529311292040419,0,-2,1,0,0,-1,-2,-1
1529311292047400,0,-1,-3,-1,0,0,0,1
1529311292047400,-1,-2,-2,1,0,-1,1,-1
1529311292062309,-1,-1,-1,-2,1,-1,0,-2
1529311292062309,1,0,-1,-4,-7,-2,-2,-1
1529311292070339,-2,1,1,1,4,0,0,-1
1529311292070339,-2,0,-1,2,0,0,0,-1
1529311292077323,0,0,1,0,1,1,1,2
1529311292077323,-1,1,-1,-1,1,1,0,0
1529311292085247,0,-2,0,0,-1,-1,0,-3
1529311292085247,-2,-3,0,-2,-2,0,-1,-1
1529311292100262,0,-2,-2,-2,-1,-3,0,0
1529311292100262,-3,-2,1,1,0,-1,-1,-2
1529311292107243,-1,0,-2,0,0,0,0,-1
1529311292107243,-1,0,0,0,0,-1,-2,0
1529311292122191,0,-1,-2,-1,-1,0,-1,0
1529311292122191,-1,-1,-1,0,0,-1,0,2
1529311292130179,0,0,2,2,-2,-1,-1,-1
1529311292130179,-1,-1,0,-3,0,-1,0,0
1529311292137157,0,0,-3,-2,-1,0,-1,2
1529311292137157,1,-1,-1,-1,1,0,1,-2
1529311292145143,-1,-2,-2,-1,-1,1,-1,0
1529311292145143,0,-1,0,-2,-2,0,-2,0
1529311292160101,0,0,0,-1,-1,0,0,-1
1529311292160101,-1,1,1,1,1,0,0,-2
1529311292167083,-1,-1,-2,-2,2,0,-1,-1
1529311292167083,-1,-2,-3,-1,-5,-1,0,0
1529311292183169,-1,-2,-2,-1,-1,0,-3,-1
1529311292183169,0,-1,-2,1,0,-2,-2,0
1529311292190206,-1,0,0,-3,-1,-3,0,0
1529311292190206,0,0,0,4,3,-1,-1,-2
1529311292198135,-1,-1,0,-1,0,-1,-1,0
1529311292198135,-2,-1,0,0,0,1,0,1
1529311292205168,0,-1,0,-1,-1,-3,1,-1
1529311292205168,0,0,-2,-2,0,0,0,-1
1529311292220129,0,0,-1,2,-1,0,2,-1
1529311292220129,1,0,0,0,-2,-2,-2,-3
1529311292227401,-1,-1,-2,-2,0,0,-1,0
1529311292227401,-1,-1,0,1,0,0,1,-1
1529311292243243,-1,-1,0,-1,-2,-1,0,-2
1529311292243243,-1,-1,-2,-1,0,-1,-1,-1
1529311292250092,1,0,-1,0,-2,-3,0,1
1529311292250092,0,-1,1,1,1,-3,-1,-1
1529311292258241,-1,0,-1,0,2,-1,0,-2
1529311292258241,0,-1,1,-1,-3,0,-1,0
1529311292265053,1,0,-2,-1,-1,0,-1,-1
1529311292265053,-2,-1,-2,-1,-1,0,0,1
1529311292280014,-2,-1,-1,0,-1,0,0,1
1529311292280014,-2,-1,-1,1,1,-1,0,0
1529311292288027,-1,-1,0,-1,0,0,0,-2
1529311292288027,0,-1,-2,0,-1,-1,-1,1
1529311292302300,0,-1,1,-3,-5,-1,-1,-1
1529311292302300,2,2,-1,-2,1,-1,1,1
1529311292310537,-1,0,0,-1,-3,0,1,0
1529311292310537,-2,-1,-1,-1,0,0,-1,1
1529311292317554,-2,-2,0,0,-1,0,-1,1
1529311292317554,-1,-2,-3,-1,-1,0,-1,1
1529311292325509,-1,0,-1,2,0,-1,-2,0
1529311292325509,0,0,-2,0,-1,-3,-1,0
1529311292340494,0,0,0,-1,-3,-2,1,0
1529311292340494,-1,-3,-1,-1,-1,0,1,-2
1529311292348326,0,-2,0,-1,-1,0,-1,0
1529311292348326,-2,0,0,0,-1,-1,0,-1
1529311292362464,-2,-1,-1,2,1,-2,0,0
1529311292362464,0,1,-1,-2,-1,0,0,-1
1529311292370442,-3,0,-1,0,0,-1,-1,0
1529311292370442,0,1,-1,-1,0,0,0,-1
1529311292377744,-2,0,0,0,0,-1,-2,-3
1529311292377744,-1,0,-1,0,1,-1,-1,1
1529311292385753,-1,-1,-2,-1,-2,-1,0,1
1529311292385753,1,-2,0,-2,-3,0,-1,-1
1529311292400772,0,-1,2,-2,-1,-1,0,1
1529311292400772,-1,-1,0,-2,-2,-1,-1,0
1529311292407934,0,1,-2,1,0,-2,0,-3
1529311292407934,0,-1,-1,1,2,1,0,0
1529311292422887,-2,-2,-2,-2,-2,0,-1,-1
1529311292422887,0,-1,0,-3,-6,-2,0,0
1529311292430749,0,-1,0,0,1,1,0,0
1529311292430749,-2,1,-1,-2,-2,0,-1,-2
1529311292445596,-1,0,-1,0,0,1,1,0
1529311292445596,-1,0,-1,1,1,-2,-1,-2
1529311292452549,0,-1,-1,0,-1,1,-1,-1
1529311292452549,-1,-2,0,1,-2,-1,-1,-1
1529311292467545,0,0,-3,1,0,0,-1,-1
1529311292467545,-1,0,-1,0,-1,-1,0,0
1529311292475718,-1,0,-2,-2,-2,-1,0,2
1529311292475718,0,-1,1,-2,0,0,0,-1
1529311292490695,1,-1,0,0,-1,-2,-1,1
1529311292490695,0,-1,-1,-1,0,0,0,0
1529311292497689,0,-1,1,0,-2,-1,0,-1
1529311292497689,-1,-2,0,1,0,0,-1,0
1529311292505673,0,0,1,1,-2,0,-1,0
1529311292505673,-1,-1,-1,0,0,-2,0,-1
1529311292520365,1,1,0,1,0,-1,-1,-2
1529311292520365,-1,1,-1,2,1,0,-2,-1
1529311292527596,-1,0,-1,0,-1,0,-2,-2
1529311292527596,0,-1,0,1,0,1,-1,-1
1529311292542563,-1,-2,-2,-2,2,-1,-1,-1
1529311292542563,0,0,-1,-3,-1,0,0,0
1529311292550541,-2,0,-2,-1,0,1,0,-2
1529311292550541,-1,-1,1,-1,-4,-1,0,0
1529311292557529,0,2,1,0,0,-1,-2,0
1529311292557529,-1,-1,-1,-1,-1,-2,-3,0
1529311292565507,-3,-2,1,-4,1,-2,0,-1
1529311292565507,0,0,1,-2,-1,0,0,0
1529311292580206,-2,-1,0,1,-1,1,0,1
1529311292580206,-1,-2,1,0,-2,-1,0,-1
1529311292588246,0,1,0,-2,-2,-2,0,0
1529311292588246,-1,-1,0,1,-2,-1,0,-3
1529311292603012,1,-1,-1,-2,0,-1,0,0
1529311292603012,-3,-2,-1,0,0,-1,-1,-1
1529311292610864,-1,-1,-2,0,1,-1,-1,0
1529311292610864,0,0,-3,-1,1,0,0,0
1529311292617973,2,0,0,-1,-1,0,-1,-1
1529311292617973,1,-2,-1,-1,-2,1,2,-1
1529311292632925,1,-3,1,-1,-2,-2,0,-2
1529311292632925,-1,-2,-1,-1,0,0,-1,0
1529311292647897,-1,0,-2,1,-2,-1,-2,0
1529311292647897,0,0,-1,1,-1,-1,0,0
1529311292654611,-1,-2,-1,0,0,-2,-1,0
1529311292654611,-1,0,-1,-2,-1,-1,0,1
1529311292669874,0,0,-2,-1,0,-1,0,0
1529311292669874,-1,0,1,-1,4,-1,-2,0
1529311292677893,-2,-1,-1,-2,-2,-3,-1,0
1529311292677893,-1,0,-2,-2,0,-1,-1,0
1529311292685838,0,1,0,-3,1,0,-1,0
1529311292685838,0,0,-1,0,1,-1,-2,-1
1529311292700742,-1,-1,0,-3,-3,-1,2,-1
1529311292700742,-2,-1,-2,1,-1,-1,-1,0
1529311292707731,0,-3,-1,-2,-3,0,0,1
1529311292707731,-1,1,-1,2,1,-1,-1,-2
1529311292722910,-3,-1,0,1,-2,0,-2,-2
1529311292722910,-1,1,0,0,-1,0,0,-1
1529311292730741,1,0,0,0,-2,1,0,-2
1529311292730741,-1,-1,-1,-3,-1,0,2,0
1529311292737698,0,-2,-2,-1,0,0,2,1
1529311292737698,-2,-1,-4,-3,-1,0,1,-1
1529311292745674,-2,0,-1,1,-2,-2,-1,0
1529311292745674,-1,-1,0,-2,0,0,-2,-1
1529311292760834,0,-2,0,0,-2,0,0,-2
1529311292760834,0,-1,-1,1,0,1,-1,0
1529311292767618,0,0,-2,-1,0,0,0,0
1529311292767618,-1,-3,-1,-1,0,0,0,2
1529311292782609,0,-1,-2,-2,0,1,-1,2
1529311292782609,0,-1,-1,-2,2,0,2,-1
1529311292789557,0,-2,-1,1,1,0,-2,0
1529311292789557,0,1,-1,-1,-1,-1,2,-1
1529311292797895,-2,-1,0,3,-1,-2,-3,0
1529311292797895,0,1,-1,0,-2,1,2,-1
1529311292805783,-1,0,-1,2,-4,-1,0,1
1529311292805783,-1,1,-2,-1,-2,0,0,-1
1529311292819748,-1,-1,-1,1,0,-2,-2,-1
1529311292819748,-2,0,0,-1,0,-1,0,-1
1529311292827725,-1,-2,0,-3,0,0,0,-1
1529311292827725,-1,-2,-1,0,0,-1,-1,0
1529311292842685,-2,0,0,0,0,1,0,-1
1529311292842685,-1,-1,0,-2,-2,0,-2,0
1529311292849666,-3,-1,-2,0,-1,0,-1,-1
1529311292849666,-2,-2,2,-1,-2,-1,-2,-1
1529311292857648,-1,1,-1,-1,-1,-2,-1,1
1529311292857648,-1,-1,-2,-2,0,-1,1,2
1529311292865689,1,1,-1,-2,0,-2,-2,0
1529311292865689,1,1,-1,0,0,-1,0,-1
1529311292879654,0,-2,-1,-1,-3,-2,1,0
1529311292879654,0,-2,-2,2,0,-1,-2,-1
1529311292887633,-1,0,-1,0,1,1,-1,0
1529311292887633,-1,1,-2,1,1,-1,0,1
1529311292902844,1,0,-1,-3,0,0,-1,-2
1529311292902844,-1,-1,-1,-2,-2,0,0,-1
1529311292910085,1,0,0,0,1,-3,-1,-2
1529311292910085,-2,-3,-1,-2,-1,-1,-2,-1
1529311292918062,-1,0,-1,1,2,1,2,-1
1529311292918062,-2,-1,2,1,-2,-1,-2,1
1529311292925043,0,-1,-1,-1,-2,0,1,0
1529311292925043,0,1,1,-1,-1,-1,-1,-1
1529311292940745,0,0,-1,-2,0,0,-4,-1
1529311292940745,1,-2,2,-2,-3,-1,-2,1
1529311292947986,-1,-1,-1,0,1,1,1,0
1529311292947986,-1,-2,-1,0,0,0,0,-1
1529311292962684,-1,-2,-3,-1,1,0,0,0
1529311292962684,-1,0,-1,1,1,-1,1,-1
1529311292970662,-2,0,0,0,-2,-2,0,0
1529311292970662,0,1,-2,0,-4,-1,0,1
1529311292977993,-1,0,0,2,0,0,0,-2
1529311292977993,1,0,-2,0,1,2,-1,0
1529311292984751,-1,-1,-4,1,2,1,-2,-1
1529311292984751,0,-5,-1,0,0,0,0,-2
1529311292999711,-2,-3,-1,-1,-2,-1,-2,1
1529311292999711,0,-1,-1,-1,0,-2,0,-1
1529311293007937,-1,-1,1,-1,1,0,-1,1
1529311293007937,0,0,0,0,2,0,0,0
1529311293022649,0,1,-1,1,0,1,2,0
1529311293022649,0,2,0,-1,-1,1,1,-1
1529311293030668,0,2,0,0,-2,-1,0,1
1529311293030668,0,1,0,-2,-2,-1,1,-1
1529311293038028,0,-1,1,1,-2,-1,0,0
1529311293038028,-2,-1,-2,-1,0,-2,0,0
1529311293044840,-2,0,1,-1,1,-1,-1,-2
1529311293044840,-2,-2,-1,-2,0,0,0,-1
1529311293059714,-1,-1,-1,0,0,-1,1,-1
1529311293059714,1,0,0,2,0,-2,0,-1
1529311293067711,-1,-2,-2,0,-1,-1,-1,-1
1529311293067711,0,1,-1,-1,0,-2,-1,1
1529311293081960,1,0,-1,-1,-1,-1,-2,-1
1529311293081960,2,0,0,-1,-2,0,-1,-1
1529311293089965,0,-1,0,-3,-1,-2,0,0
1529311293089965,0,-2,-2,-3,-3,-1,-1,-2
1529311293098160,-2,1,-2,-1,-1,-2,0,-1
1529311293098160,-1,-1,-1,0,0,-1,0,-1
1529311293104900,0,1,-1,-1,-1,0,0,0
1529311293104900,0,-2,0,6,2,-1,-2,0
1529311293120171,1,-4,-1,-3,2,0,0,0
1529311293120171,-1,-2,-2,-6,-8,-2,-1,-1
1529311293128118,-2,0,-3,-3,-3,-1,0,-2
1529311293128118,-3,1,1,1,0,-1,-1,-2
1529311293142803,0,1,1,0,-2,-1,0,-2
1529311293142803,0,-2,-1,0,1,-1,-2,-2
1529311293149777,-1,-2,-1,-2,0,-1,-2,0
1529311293149777,-1,1,-1,-2,-1,-2,-2,-1
1529311293157786,-1,0,1,3,0,0,-1,0
1529311293157786,-1,0,-2,0,0,1,-3,1
1529311293164737,-1,1,-1,2,-3,0,-1,1
1529311293164737,-2,-1,0,-2,-1,0,0,-1
1529311293179732,-1,0,0,1,-3,1,-3,1
1529311293179732,0,-1,0,-2,-1,-1,0,0
1529311293187679,1,-2,-1,1,2,0,0,-1
1529311293187679,0,0,-1,1,-1,-2,0,0
1529311293202891,0,-2,-2,-1,0,-1,0,-2
1529311293202891,1,-3,1,1,0,0,-1,-1
1529311293209872,-2,-1,1,-2,1,-2,-2,-1
1529311293209872,-2,1,0,-4,-3,0,-2,-2
1529311293217850,-2,2,1,-2,-3,-2,-1,-1
1529311293217850,0,1,0,1,1,0,-1,0
1529311293225092,0,0,-1,-1,-2,0,-2,0
1529311293225092,-1,-3,0,0,-1,1,0,0
1529311293248240,-1,-4,-3,0,0,-1,0,-1
1529311293248240,-2,0,-2,0,2,2,1,-2
1529311293255076,-1,-1,2,2,-1,0,-1,-1
1529311293255076,2,1,-1,0,-2,1,0,-1
1529311293270036,1,-1,0,-3,-3,-1,0,-1
1529311293270036,0,-1,-1,-4,0,0,-2,-1
1529311293277007,-1,0,-1,-3,0,-2,-3,3
1529311293277007,0,-1,-2,1,0,0,-2,-1
1529311293284989,-2,1,-1,1,0,-3,0,1
1529311293284989,-1,0,-1,0,-2,-2,-1,-1
1529311293293217,1,-1,0,1,-1,2,-1,-1
1529311293293217,-1,-1,-1,1,-1,-1,-1,-2
1529311293299964,-1,0,1,-2,-2,-2,2,0
1529311293299964,-1,-3,-1,-3,-2,-2,0,0
1529311293308192,-1,0,-1,-3,-3,-2,-2,-2
1529311293308192,-1,-1,-1,0,-2,0,-2,0
1529311293322436,-2,-1,-3,1,1,0,-1,-1
1529311293322436,-3,-1,0,2,1,-1,-1,-1
1529311293330474,1,-3,-1,-2,-2,-1,1,-1
1529311293330474,0,-1,0,1,1,2,1,0
1529311293338222,0,-2,-2,-2,1,2,-2,1
1529311293338222,1,0,-1,1,1,0,1,-1
1529311293345460,0,2,-2,1,0,-2,-1,-1
1529311293345460,0,0,0,-3,0,-1,-1,-1
1529311293360136,2,1,1,-1,-2,-3,-2,-1
1529311293360136,0,0,-3,0,-3,0,1,0
1529311293368243,-2,0,-2,-2,-1,2,-1,2
1529311293368243,0,-3,-1,-1,0,-2,-2,-1
1529311293382647,-2,-1,0,-1,-1,0,-2,-1
1529311293382647,0,-1,-1,0,-2,-1,-1,0
1529311293390576,-1,2,0,2,2,0,1,0
