timestamp,emg1,emg2,emg3,emg4,emg5,emg6,emg7,emg8
1528180147182746,-2,0,-1,-1,-1,1,1,-1
1528180147182746,1,-1,0,0,-1,1,-1,0
1528180147183744,-1,0,0,-1,0,-1,-1,-1
1528180147183744,0,1,-1,-1,-1,1,-1,-1
1528180147183744,-2,1,-1,-2,-1,0,-1,-2
1528180147183744,-2,-1,-1,-1,-1,-2,-2,0
1528180147184741,-2,-1,-2,0,-2,0,-2,1
1528180147184741,-3,0,-1,0,-1,0,-1,0
1528180147195711,0,-3,0,1,0,0,0,-1
1528180147195711,-1,-1,0,-1,-1,-1,0,-2
1528180147204687,-1,-3,0,-1,0,-3,-1,0
1528180147204687,0,-1,-1,-1,0,-2,-1,-2
1528180147210670,0,-2,-3,1,-1,-2,-1,-1
1528180147210670,0,-1,0,-1,0,0,0,-1
1528180147226629,1,1,-1,-1,0,-1,-1,0
1528180147226629,0,-1,0,-1,0,-1,2,0
1528180147235605,2,1,1,-1,1,-1,-2,0
1528180147235605,0,-1,-1,0,-1,-1,0,-1
1528180147250566,0,-1,-1,1,0,1,-1,-2
1528180147250566,-2,-2,0,-1,-1,-1,-1,-1
1528180147257546,0,1,1,-1,-1,-1,0,1
1528180147257546,-1,-1,-1,0,0,-3,-1,-1
1528180147277492,-1,0,0,1,0,-1,0,-2
1528180147277492,0,-1,0,1,-1,-1,0,-1
1528180147312399,-2,-1,0,-1,-3,0,-1,-1
1528180147312399,1,-1,-2,0,-1,-1,-1,0
1528180147313397,-1,-1,-2,-3,1,-1,0,-1
1528180147313397,-1,0,-2,-1,1,-1,-1,-1
1528180147316389,1,0,-1,-1,2,0,-1,0
1528180147316389,0,-1,0,-2,-3,1,1,-1
1528180147316389,1,1,-2,-1,-2,0,-1,-1
1528180147316389,1,-2,-1,-2,-3,1,-4,0
1528180147323370,0,-1,-1,0,-1,-1,-2,0
1528180147323370,-1,-2,0,-2,0,-1,-2,-1
1528180147330354,-1,-1,0,-1,0,0,-1,1
1528180147330354,0,1,0,-1,0,0,0,-1
1528180147338330,0,-1,-2,1,-3,-2,0,-1
1528180147338330,0,-1,1,-1,0,-1,-1,0
1528180147353289,0,-2,0,-1,-1,0,-1,1
1528180147353289,1,-1,1,-1,0,0,-2,0
1528180147368249,-2,-1,0,0,1,-1,-1,1
1528180147368249,-1,2,-1,-1,0,-2,-1,-1
1528180147384207,-1,0,0,1,0,-2,0,0
1528180147384207,0,-1,1,0,-3,1,-1,-1
1528180147385204,0,0,-2,-1,0,-1,0,-1
1528180147385204,1,-1,0,-1,-1,-1,2,-2
1528180147398169,-2,-2,-1,0,-2,0,0,-2
1528180147398169,0,0,-1,0,1,-1,-1,0
1528180147399168,0,-1,-1,-1,1,-1,-1,0
1528180147399168,-1,0,0,1,1,1,-2,-1
1528180147429087,0,-1,0,0,-2,1,-2,-2
1528180147429087,-2,-2,-1,0,-3,-1,0,0
1528180147430084,-2,-1,-1,-1,-3,0,-1,0
1528180147430084,-2,-1,0,-1,-1,0,-2,1
1528180147444048,-1,1,-2,0,0,-1,-1,1
1528180147444048,-2,0,-1,-1,-3,-1,0,1
1528180147445056,0,0,2,1,0,1,0,1
1528180147445056,1,-1,0,0,-2,-1,-1,0
1528180147459015,1,0,0,-2,-2,-1,-1,-2
1528180147459015,-1,-2,-2,0,1,-1,0,-2
1528180147459015,-1,1,2,-2,0,-1,0,-3
1528180147459015,-1,-2,-1,1,0,-1,-1,1
1528180147480949,-1,-1,0,1,2,-1,-1,-1
1528180147480949,1,-1,0,0,1,-2,0,-1
1528180147481946,0,-2,-2,-1,-2,-1,0,-1
1528180147481946,-3,-2,-1,1,-2,-1,0,0
1528180147503915,0,-2,0,-2,-1,-1,-2,-1
1528180147503915,-1,2,-1,0,-1,1,-2,-1
1528180147504885,0,0,1,0,-1,0,-1,-3
1528180147504885,0,-1,-1,-2,-3,0,0,-1
1528180147518884,-1,-1,-1,-1,-2,-1,-1,-1
1528180147518884,-1,-1,0,-1,0,-2,-1,-1
1528180147519846,0,-2,-1,0,0,-1,-1,1
1528180147519846,1,1,-1,0,-1,0,-1,1
1528180147540825,0,1,-1,1,0,-1,-1,0
1528180147540825,0,0,0,-1,0,-2,1,0
1528180147541786,0,0,0,0,0,-2,-3,-1
1528180147541786,0,-3,0,-1,0,-2,-2,-1
1528180147571716,1,-1,-2,-1,-1,0,0,1
1528180147571716,0,0,0,1,1,-2,-1,0
1528180147572714,-2,2,-1,0,0,-1,2,0
1528180147572714,-2,3,-1,0,1,1,-1,-1
1528180147578728,-1,0,1,-2,0,-1,0,-2
1528180147578728,-1,-4,1,-1,1,0,0,-1
1528180147579685,0,-2,-1,-2,0,1,0,-1
1528180147579685,-1,-2,0,-1,0,-1,1,0
1528180147600631,0,1,-1,1,-1,-1,0,0
1528180147600631,-1,0,-2,0,-4,-1,-1,-3
1528180147601626,-1,1,-1,0,0,-1,0,2
1528180147601626,-1,1,1,0,0,-1,0,-2
1528180147624604,-1,0,-1,-2,1,-1,-1,-2
1528180147624604,-1,-1,-1,-1,-1,1,-1,-1
1528180147624604,0,-2,-3,0,-1,-1,-2,3
1528180147624604,1,0,-2,0,-1,-2,-1,-1
1528180147637583,1,-1,0,0,1,1,0,-1
1528180147637583,-1,-1,-1,0,0,0,-1,-1
1528180147646543,1,1,1,-1,1,0,-1,-2
1528180147646543,-1,0,0,0,-1,-1,-1,0
1528180147661481,0,-1,-1,-1,-1,-1,-1,-1
1528180147661481,-1,-2,0,-1,-3,2,-1,0
1528180147661481,-1,-2,0,0,-1,0,0,0
1528180147661481,0,-1,1,0,0,-2,-1,-1
1528180147684405,-1,-1,0,-1,-1,-1,-3,-3
1528180147684405,-1,-1,-1,-2,0,-1,-1,-3
1528180147685402,-1,0,0,-2,-2,-2,-1,-2
1528180147685402,-1,-1,-3,-1,-2,-1,-1,0
1528180147698409,-1,-1,0,-1,-2,0,0,0
1528180147698409,0,-1,0,0,-1,-1,0,0
1528180147699374,1,-1,1,0,0,-1,-2,-3
1528180147699374,-1,-1,-1,-2,0,-1,-2,-1
1528180147721310,-1,-1,-1,-2,1,-2,-1,1
1528180147721310,0,1,0,0,1,1,-2,0
1528180147722321,-1,-1,-2,0,1,-1,-2,1
1528180147722321,0,-1,-2,-1,-1,-1,0,-1
1528180147743248,-1,0,-2,-1,-1,-1,-1,0
1528180147743248,-1,1,-1,0,0,-1,-1,0
1528180147751281,-3,0,0,-1,1,1,0,0
1528180147751281,-1,1,0,-1,0,-1,0,-1
1528180147758263,-1,0,0,-1,0,-2,0,0
1528180147758263,1,0,-2,-1,-1,-1,-1,-1
1528180147766240,-1,-1,-2,-1,-2,1,-2,-2
1528180147766240,-2,-2,-1,0,1,-1,-1,-2
1528180147781147,0,-1,0,1,0,-1,0,0
1528180147781147,-1,0,1,0,-1,-1,0,-2
1528180147782144,-1,-1,-1,-1,-1,0,0,-2
1528180147782144,0,0,-1,-1,-2,0,-1,0
1528180147804123,-2,0,0,-1,-1,0,-1,0
1528180147804123,-1,1,0,1,0,0,-1,2
1528180147805082,1,0,0,0,-1,-2,-2,0
1528180147805082,-2,-1,0,-2,0,0,-2,-1
1528180147818048,-1,0,-2,-1,0,0,-1,0
1528180147818048,-1,-2,0,-1,1,-1,0,0
1528180147826064,-2,2,-1,-2,0,0,-1,-1
1528180147826064,-1,0,1,-1,-1,0,-1,-1
1528180147841022,0,-1,0,0,0,-1,-2,-1
1528180147841022,1,-2,-2,-1,-1,-1,-1,-1
1528180147841984,1,-2,-1,1,1,-2,0,-1
1528180147841984,-2,0,-2,-2,0,-1,-1,-1
1528180147863925,0,-2,0,0,-2,-4,0,-2
1528180147863925,0,-1,0,0,-2,-1,1,-1
1528180147864925,0,-2,-2,-1,-2,0,-1,-1
1528180147864925,0,2,-1,0,0,1,0,-1
1528180147877889,-1,2,0,0,-1,0,1,0
1528180147877889,0,2,-1,1,0,-3,-1,-1
1528180147885912,-1,0,-2,-2,0,0,-1,-1
1528180147885912,-1,-2,-1,-4,-2,0,0,-2
1528180147900879,0,0,-1,-1,1,-1,0,1
1528180147900879,0,0,-2,-1,1,-1,-1,-1
1528180147901824,-1,0,-1,-1,1,-2,1,-1
1528180147901824,-2,-2,1,1,0,-2,0,1
1528180147923767,0,-2,-1,-1,0,0,-1,0
1528180147923767,-3,0,0,-3,0,-1,-1,1
1528180147924764,-1,-1,-2,-1,-3,1,-2,0
1528180147924764,-1,-1,0,0,-1,-2,0,1
1528180147937729,0,-2,0,0,-2,-2,-2,-2
1528180147937729,-1,-1,-2,0,0,0,0,-3
1528180147945748,1,0,1,-1,-1,-2,-1,-1
1528180147945748,0,-2,-1,-1,-1,1,-1,-1
1528180147960711,0,0,-1,-2,-2,-1,0,-2
1528180147960711,-1,-1,-1,-2,0,1,-2,0
1528180147961663,1,-1,-1,0,0,-1,-2,-1
1528180147961663,1,1,0,0,0,0,0,0
1528180147984642,1,-1,0,-1,1,-2,-1,-1
1528180147984642,0,-1,0,1,-1,-2,0,1
1528180147984642,-1,-2,1,0,1,0,2,1
1528180147984642,0,-2,1,0,2,0,-1,0
1528180147997607,-1,-1,0,1,-1,1,-4,-1
1528180147997607,0,-1,-2,-8,-2,-1,-2,-3
1528180148006543,0,0,-1,-1,-1,-2,0,-1
1528180148006543,-1,0,0,0,-2,0,-2,-2
1528180148021504,-1,-1,-1,-1,2,-1,0,1
1528180148021504,-2,-1,0,0,0,1,-1,0
1528180148021504,-2,-1,0,-1,-1,0,1,-1
1528180148021504,-1,-1,-2,-2,0,0,0,-1
1528180148044470,0,0,-2,0,-2,0,-1,-2
1528180148044470,1,1,-2,1,-1,-2,-1,-1
1528180148045467,-1,1,-1,-1,0,-1,0,-1
1528180148045467,-1,0,-1,0,-2,-1,0,0
1528180148057409,-3,0,-2,-1,-1,-2,-1,-2
1528180148057409,-1,-1,-2,2,-1,-1,-4,-2
1528180148067384,-2,-2,-2,0,0,0,-1,-2
1528180148067384,1,-1,0,-2,-1,-2,-1,-3
1528180148080347,-1,-2,1,-4,-1,-1,0,2
1528180148080347,-1,-1,0,-2,-1,0,-1,0
1528180148097302,0,0,0,0,-1,-1,-1,2
1528180148097302,-3,-1,-2,-1,0,-1,0,0
1528180148111265,1,0,-1,-2,0,0,0,-2
1528180148111265,0,1,1,-1,0,-2,0,0
1528180148113269,2,-2,1,-1,1,1,-1,0
1528180148113269,1,-2,-2,0,0,-2,-2,0
1528180148118246,1,0,0,-1,1,1,0,0
1528180148118246,-1,-2,-2,0,-1,0,-2,-2
1528180148127222,0,0,0,-2,-2,-1,-3,-1
1528180148127222,-2,0,-1,0,0,-2,-1,-2
1528180148140191,-2,-2,-2,-1,-1,-2,0,2
1528180148140191,0,-1,1,-1,-1,-2,0,-2
1528180148149171,-2,-1,-2,0,-2,-1,-1,-1
1528180148149171,0,-1,0,0,1,1,-1,0
1528180148164175,-1,0,-2,1,-1,0,-1,0
1528180148164175,-2,-1,-1,0,1,0,0,0
1528180148170160,-2,0,-2,-1,0,0,-1,0
1528180148170160,0,-1,0,-1,-2,1,-3,-3
1528180148187061,-2,-2,-1,0,-1,1,-1,-2
1528180148187061,0,-3,-1,-2,-1,0,-2,1
1528180148188060,1,-1,0,-1,1,-2,-1,0
1528180148188060,0,0,-1,0,0,1,2,-1
1528180148200027,-1,-1,0,1,0,-3,0,1
1528180148200027,-1,-2,-1,-2,1,-1,-1,-2
1528180148209142,-1,-1,-1,1,0,2,1,0
1528180148209142,-2,0,0,-1,-1,-2,-1,0
1528180148232100,-1,-1,-1,1,0,0,-1,0
1528180148232100,-2,0,0,0,1,-1,1,1
1528180148233936,-2,-3,0,-1,-1,-3,1,0
1528180148233936,1,-2,-1,-1,-1,-2,1,2
1528180148246901,1,1,0,0,-1,-2,0,-2
1528180148246901,1,0,0,2,1,-1,0,2
1528180148248896,-1,0,0,0,-1,-1,-2,-2
1528180148248896,0,-1,-1,-2,1,0,-1,-2
1528180148261021,-2,-1,0,1,1,-1,0,0
1528180148261021,0,-1,-2,0,0,-1,-2,-2
1528180148268004,-1,0,0,-1,-1,0,0,-1
1528180148268004,0,-1,-1,0,-2,-1,-2,1
1528180148282997,0,1,0,0,0,-1,-1,0
1528180148282997,-1,0,0,1,1,-1,1,0
1528180148291782,0,0,-2,-2,0,-2,0,-1
1528180148291782,1,1,0,0,1,1,0,-1
1528180148306742,1,0,-2,-5,-3,-2,-1,-2
1528180148306742,2,-2,-1,-1,-2,-1,1,-2
1528180148308757,0,0,-2,-1,-1,-1,1,-2
1528180148308757,-1,-1,-1,-1,0,-2,-1,-3
1528180148329867,0,-1,-2,1,-1,-2,-2,1
1528180148329867,0,-2,0,-1,-2,-1,-2,1
1528180148330678,1,-2,-1,1,-2,0,-2,1
1528180148330678,-1,0,0,-1,-1,-2,-1,0
1528180148342804,-1,0,1,-2,-2,2,2,-2
1528180148342804,0,0,-2,1,-1,0,0,-2
1528180148351688,0,-2,-1,0,0,1,1,-2
1528180148351688,-1,0,-1,0,-1,-2,-1,-1
1528180148366744,-2,-1,0,-1,1,1,-3,-1
1528180148366744,-1,-1,1,-3,-2,1,0,-1
1528180148368576,0,-3,-1,-2,-1,-1,-1,0
1528180148368576,0,0,0,-1,1,0,0,0
1528180148389538,-2,0,0,0,0,-1,0,-2
1528180148389538,-2,1,-1,0,-2,0,-2,-1
1528180148390517,0,1,-1,1,-2,0,-3,-2
1528180148390517,-1,-2,0,-1,0,-1,0,0
1528180148403482,0,0,-1,-1,0,-1,0,-1
1528180148403482,0,0,1,-1,0,-1,-1,-1
1528180148419448,0,-1,1,-1,1,-1,-1,-1
1528180148419448,0,1,-1,-2,-2,1,-1,-1
1528180148427391,0,-2,-2,-1,0,1,-1,-3
1528180148427391,-1,0,-2,-2,0,-1,1,0
1528180148428408,-1,-2,-2,-2,-2,0,-1,0
1528180148428408,0,-1,-1,-1,-2,-1,-1,0
1528180148449492,0,-3,-1,2,-3,0,-1,1
1528180148449492,0,-2,-2,0,-1,-1,-1,-1
1528180148451333,-2,1,0,1,0,-1,-3,-1
1528180148451333,-1,-1,-2,-1,1,0,-1,-2
1528180148463439,-1,-1,1,-1,-1,0,-1,-1
1528180148463439,-1,-2,-1,-1,-1,1,0,-1
1528180148472274,-1,-1,-1,0,0,-1,2,0
1528180148472274,-1,-1,-1,0,-2,-1,-2,0
1528180148487311,-1,0,-3,-1,0,-1,-1,-1
1528180148487311,1,2,0,-2,0,0,0,1
1528180148488250,0,1,0,-2,-1,0,-1,-1
1528180148488250,-1,0,0,0,-1,-2,-2,-1
1528180148509175,-1,-2,-1,-2,0,0,0,-1
1528180148509175,-1,0,-1,1,-2,0,-2,-2
1528180148511184,0,0,-1,0,-2,1,-1,1
1528180148511184,0,-1,-1,0,1,-1,1,0
1528180148523160,-1,-1,-1,-2,1,-3,0,0
1528180148523160,0,0,-1,0,0,-1,0,1
1528180148538141,0,2,1,0,0,-1,0,1
1528180148538141,-2,-1,-2,0,0,-1,-2,-2
1528180148546233,-1,-2,-1,-2,0,-3,0,-1
1528180148546233,-1,-1,-3,-1,-2,-1,-1,-2
1528180148553198,-2,-1,-1,-1,-1,-1,-1,-1
1528180148553198,0,1,1,-1,-1,1,1,1
1528180148569174,1,0,0,-2,-1,1,-2,-1
1528180148569174,0,-2,-1,-2,3,-1,2,0
1528180148571009,-1,-1,-2,-2,1,1,-1,-1
1528180148571009,-1,-1,1,0,-1,1,-1,0
1528180148583134,2,-1,-2,1,-1,0,-1,1
1528180148583134,0,0,0,0,-1,-1,0,-1
1528180148591954,3,0,-1,0,-2,0,0,-1
1528180148591954,3,-1,1,-2,-1,-1,0,0
1528180148606282,1,-2,1,1,-1,-1,0,0
1528180148606282,1,-1,0,-1,-1,0,-2,-1
1528180148613261,-2,-1,-1,-2,1,-1,-1,0
1528180148613261,0,-1,-1,-1,-2,-1,-1,-1
1528180148629072,-1,0,-2,-2,-2,0,0,-1
1528180148629072,-2,-1,-2,-1,0,-2,-1,-1
1528180148631088,-3,-2,-1,0,-2,-1,0,-1
1528180148631088,-1,-1,-1,0,-1,1,2,1
1528180148643144,0,-1,-1,0,-2,1,-1,-3
1528180148643144,0,-1,-1,0,0,-2,1,1
1528180148651994,-1,-1,0,-2,0,0,0,-1
1528180148651994,-4,0,0,-2,1,-1,1,2
1528180148666114,-3,0,0,0,0,-2,0,0
1528180148666114,-2,-3,0,-1,-2,-2,-3,-2
1528180148673096,0,-1,0,-2,1,0,1,0
1528180148673096,-2,-1,-2,-1,-1,-2,-2,-1
1528180148690050,-1,0,1,-2,-1,-1,-1,-3
1528180148690050,-2,0,0,-2,-1,-2,1,-1
1528180148695955,0,1,0,-1,0,-1,-1,-1
1528180148695955,1,0,0,-1,0,1,0,-1
1528180148711991,-1,0,0,-1,0,1,-1,0
1528180148711991,-2,-2,0,1,-1,0,2,-1
1528180148713833,-1,-1,0,-2,-1,-1,-1,-1
1528180148713833,-2,2,-1,0,-2,-2,-1,-2
1528180148726110,2,0,0,-1,-1,-1,-1,1
1528180148726110,0,2,0,0,-3,0,-2,1
1528180148733087,0,0,0,0,-1,-1,1,0
1528180148733087,1,-2,-1,1,-1,0,1,-1
1528180148749237,-1,-1,-1,1,1,-2,0,-1
1528180148749237,0,-2,0,-1,-1,-1,-1,-1
1528180148751097,-2,-1,0,-2,0,-1,-4,0
1528180148751097,-2,-2,-3,-1,0,-1,-2,-2
1528180148772041,-1,-1,-1,0,-1,0,3,-2
1528180148772041,-1,-2,-1,-1,1,0,0,-1
1528180148773042,1,0,-1,-1,0,-3,1,0
1528180148773042,0,-2,-1,-1,0,-1,-1,0
1528180148786003,-2,-1,-1,-1,-2,0,0,1
1528180148786003,1,0,-1,0,-2,0,-1,0
1528180148792984,-1,-2,0,0,0,2,-3,0
1528180148792984,-1,-1,0,-2,-1,2,-1,0
1528180148809083,1,-1,-2,-1,-1,-1,0,-1
1528180148809083,1,1,-1,2,-1,-2,-1,0
1528180148810936,-1,0,-1,-1,0,-2,0,-1
1528180148810936,-1,0,-2,1,1,-2,-1,0
1528180148831985,-1,0,-2,0,0,-2,-2,1
1528180148831985,-2,0,-1,0,-2,0,-1,-1
1528180148833978,-2,-1,-1,0,-1,-1,-2,-1
1528180148833978,0,-1,-1,-1,1,-3,0,1
1528180148845863,-3,-1,0,-1,-3,-1,-1,1
1528180148845863,0,-3,-2,-1,1,1,2,0
1528180148854820,-1,0,-1,-4,-3,-1,-1,0
1528180148854820,-2,0,-1,-2,-2,-1,1,-1
1528180148869801,-1,-1,1,0,-2,-1,-1,0
1528180148869801,-2,-2,-2,-1,-1,-1,0,0
1528180148870826,0,-2,0,1,-2,-1,0,-2
1528180148870826,0,-3,-2,0,0,1,1,-1
1528180148891904,1,-1,-2,-2,-1,-1,0,-2
1528180148891904,0,-2,1,-3,0,-1,-2,-1
1528180148893767,-1,-2,0,0,0,-2,1,0
1528180148893767,0,0,0,0,-1,-1,0,0
1528180148905736,0,-1,0,0,-1,0,-1,-2
1528180148905736,0,0,0,0,0,-3,0,0
1528180148914711,0,0,0,0,-1,-1,-1,1
1528180148914711,0,0,0,0,-1,-2,-1,0
1528180148929863,0,0,0,-1,1,0,-1,0
1528180148929863,-1,2,0,1,1,0,0,1
1528180148930838,-1,0,-1,-1,-1,0,-1,0
1528180148930838,1,0,-1,-1,-1,0,-1,-1
1528180148951939,0,-1,0,0,-1,-1,-1,0
1528180148951939,-1,0,-1,-2,0,-2,-2,-2
1528180148953932,-1,0,-1,0,-1,-3,-1,0
1528180148953932,-1,-1,-1,-1,-1,-1,-2,-1
1528180148965745,0,-1,-3,-1,-1,-1,-1,0
1528180148965745,-3,-3,0,-1,-1,-2,-1,0
1528180148974720,-1,-2,0,0,-1,0,-1,-3
1528180148974720,-2,0,1,-1,1,2,-1,-1
1528180148989681,-2,0,0,0,-1,0,0,-4
1528180148989681,-2,0,-3,0,0,0,0,-1
1528180148990687,-1,1,-1,0,-2,1,-1,-2
1528180148990687,-2,2,-1,-1,-1,-1,0,-1
1528180149011780,0,0,-2,-1,0,1,-1,-1
1528180149011780,1,2,0,-2,-2,-1,0,0
1528180149013617,-1,-2,0,-2,1,-1,0,0
1528180149013617,0,-2,-2,-1,-1,-2,-1,1
1528180149025587,-3,-2,-2,-1,2,-2,-1,1
1528180149025587,0,-3,-2,-2,-1,-1,0,-1
1528180149034563,2,-2,0,-2,1,-1,0,0
1528180149034563,0,-1,1,0,0,-1,0,1
1528180149049520,0,0,-2,0,-2,-1,-1,0
1528180149049520,0,0,0,-1,0,-2,-1,-2
1528180149050519,-1,-1,-2,-1,1,-1,0,0
1528180149050519,1,0,-1,0,0,0,-1,-3
1528180149071462,-1,-1,1,0,-1,1,-1,1
1528180149071462,-2,-1,1,0,-4,-1,-1,0
1528180149073470,1,0,-2,-1,1,-1,-1,-2
1528180149073470,-1,-1,0,-1,0,-1,0,0
1528180149085427,0,-2,-1,1,0,-2,-1,1
1528180149085427,-1,0,-1,-1,1,-2,-1,1
1528180149094102,-1,0,-3,-2,1,1,-2,-1
1528180149094102,-2,-2,-2,-1,0,-1,-1,0
1528180149109227,-1,0,-2,-1,-2,-1,0,0
1528180149109227,-1,-1,-1,0,-1,-1,-1,0
1528180149111060,-2,0,0,0,-3,0,1,0
1528180149111060,-1,-1,0,1,1,0,2,-1
1528180149132149,-1,-2,0,-1,1,0,-1,-1
1528180149132149,-2,-2,-1,0,1,2,0,0
1528180149133162,1,-1,0,-1,-2,1,-2,1
1528180149133162,1,0,-2,-1,-3,0,-1,-3
1528180149144969,-1,-2,0,-1,-2,-2,0,-1
1528180149144969,2,-3,1,0,-1,-2,-1,-2
1528180149154081,1,-2,1,0,-2,-2,-1,-1
1528180149154081,-1,-2,0,-2,1,-2,-2,-1
1528180149168906,-2,-1,0,-1,2,0,-2,0
1528180149168906,-1,-1,-2,-1,1,2,0,-1
1528180149170900,-1,-1,0,-1,0,-2,1,-1
1528180149170900,-2,-1,0,-1,-1,-1,0,0
1528180149192078,0,0,-2,-2,0,1,1,-2
1528180149192078,-1,-1,0,-2,0,3,0,0
1528180149193076,-1,0,-2,0,-1,-1,-2,-1
1528180149193076,-2,0,-1,0,-2,-1,0,0
1528180149205043,-1,-1,0,0,1,-1,0,-2
1528180149205043,-1,0,-1,-1,-1,-2,-2,-1
1528180149214204,-2,-2,-1,-2,-2,-1,0,0
1528180149214204,0,-1,1,0,1,-2,-1,0
1528180149229172,0,0,0,-2,-2,0,0,-1
1528180149229172,-2,0,0,-1,-2,0,1,-1
1528180149231158,-1,0,0,-1,-2,0,-1,-2
1528180149231158,0,-1,-1,1,1,-1,0,0
1528180149252103,1,-2,0,1,-1,-1,0,-1
1528180149252103,0,-1,-2,0,0,-1,-1,0
1528180149253099,-1,1,-2,-2,0,0,-1,-1
1528180149253099,0,-1,-2,-2,-2,1,0,1
1528180149265126,0,1,-1,-1,0,0,0,0
1528180149265126,0,1,-1,-1,-2,-2,0,-1
1528180149280027,0,-2,-1,1,-2,-2,-1,-1
1528180149280027,0,-2,0,0,-2,0,-1,1
1528180149289040,-2,-2,-1,1,-1,-2,-1,0
1528180149289040,-1,-1,0,0,-1,-2,0,1
1528180149291002,-1,-1,0,0,0,0,0,0
1528180149291002,1,1,-1,0,-1,1,0,-2
1528180149311943,0,-1,-1,-1,-3,0,0,1
1528180149311943,-1,-1,0,0,-1,0,-1,-1
1528180149312979,-1,0,-1,-1,0,-1,0,0
1528180149312979,-1,-3,0,-2,-1,-4,-2,-2
1528180149324907,-2,-1,-1,-3,-1,-1,1,1
1528180149324907,-1,-2,-1,1,0,0,-1,1
1528180149341863,-1,-1,-2,0,-1,-1,1,2
1528180149341863,1,0,-1,0,-1,2,1,0
1528180149348901,1,0,0,-3,-1,-1,-1,-1
1528180149348901,-1,1,-1,-1,-1,-2,0,-1
1528180149350839,1,-2,1,2,2,-1,1,0
1528180149350839,0,0,0,-1,0,0,-3,1
1528180149371782,0,-1,0,1,0,0,-2,0
1528180149371782,1,-1,-1,-1,2,1,-2,-1
1528180149373792,0,-1,-2,-1,1,1,1,-2
1528180149373792,0,0,0,-1,-1,-1,0,-2
1528180149385797,0,0,-2,0,-3,-2,0,-3
1528180149385797,0,2,0,0,-3,-1,-2,1
1528180149394773,-2,1,0,0,-1,-2,1,1
1528180149394773,-1,-2,-1,-1,-2,-1,1,2
1528180149409735,0,0,-1,-1,-1,0,0,0
1528180149409735,-1,-1,-2,0,-2,-1,-2,-1
1528180149410679,0,-1,0,-2,0,0,-1,-2
1528180149410679,-2,0,-4,0,-1,-1,-1,-1
1528180149431677,-2,0,0,0,0,0,0,-1
1528180149431677,0,-2,-1,-3,-1,-1,-1,1
1528180149433672,-1,-1,0,-2,2,-1,-2,0
1528180149433672,-1,1,-1,0,0,-2,1,-1
1528180149445620,-1,0,0,0,1,0,0,-1
1528180149445620,0,-2,0,-3,0,-1,-1,-2
1528180149454560,-2,-2,1,-1,0,-1,-1,-1
1528180149454560,-1,-1,-2,0,0,-2,-1,-1
1528180149468559,-2,0,-1,-2,-1,-2,0,-1
1528180149468559,-1,0,0,-2,0,-1,-1,-1
1528180149475563,0,-1,0,-1,-3,-1,-3,-1
1528180149475563,-1,0,0,-1,1,2,-1,-2
1528180149491519,-2,-1,-1,0,-1,2,0,1
1528180149491519,1,-2,-2,1,-2,1,1,0
1528180149493462,0,0,-1,1,-1,0,-1,0
1528180149493462,0,0,1,-2,-2,-1,-1,0
1528180149505479,2,-1,-1,-1,-1,-2,0,0
1528180149505479,-2,-3,-1,-1,-3,0,0,-2
1528180149514403,0,-1,-2,-1,-2,2,0,0
1528180149514403,1,-1,2,-2,-2,0,0,0
1528180149529410,-1,0,-1,0,0,0,-1,-3
1528180149529410,-1,0,-1,0,-1,0,-1,-2
1528180149531365,0,-3,0,0,-2,-3,-1,-1
1528180149531365,-1,-4,-1,-1,1,0,-1,0
1528180149552353,-1,0,1,-1,0,-2,0,0
1528180149552353,-1,1,1,2,1,0,-1,0
1528180149553298,0,3,-2,-1,0,0,-1,-2
1528180149553298,0,-2,-1,-1,-3,-1,-1,-1
1528180149565268,-3,-2,-1,-1,-3,-1,-2,1
1528180149565268,0,-1,-1,-1,1,-1,1,1
1528180149574241,-1,-2,-1,0,-1,-3,0,0
1528180149574241,-1,-1,0,-1,1,-1,0,0
1528180149589214,-1,2,-1,-1,-1,0,0,0
1528180149589214,1,-1,0,-2,-1,0,0,-1
1528180149591196,-1,-1,2,-1,1,0,-1,-1
1528180149591196,-1,-1,0,-3,-1,-2,-1,-3
1528180149611145,-1,-2,-1,-2,0,0,-2,0
1528180149611145,0,-1,-1,-1,-1,1,-1,2
1528180149619155,-2,-2,-2,-1,-3,-2,-1,0
1528180149619155,0,0,-2,-1,-1,0,-1,-1
1528180149634209,0,1,0,0,1,1,-1,0
1528180149634209,-1,0,-1,-1,-1,-1,-1,1
1528180149636076,-1,-1,0,-2,1,-1,-1,0
1528180149636076,-3,0,0,0,-1,0,-2,1
1528180149649041,-2,-2,-2,0,-1,-1,-1,1
1528180149649041,-2,-1,-2,0,1,-1,-1,-1
1528180149651036,-1,-1,-1,0,0,-2,0,-1
1528180149651036,0,1,-2,1,1,-2,1,0
1528180149671991,-1,-1,-2,2,-1,-2,0,-1
1528180149671991,-1,-1,-1,1,0,-1,0,0
1528180149678120,1,-1,-1,1,0,0,-2,-1
1528180149678120,1,-3,0,0,2,0,-1,-2
1528180149693921,0,0,0,-2,0,-2,0,0
1528180149693921,-3,-2,-1,1,-2,1,0,-1
1528180149695915,0,-1,0,0,0,0,0,-1
1528180149695915,1,-1,-1,0,-2,-2,0,0
1528180149709021,0,-3,-1,-1,-1,1,-2,-2
1528180149709021,-1,0,1,-2,1,0,-1,-2
1528180149709021,-1,0,1,-2,1,0,-1,-2
1528180149709021,-1,0,1,-2,1,0,-1,-2
1528180149709021,-1,0,1,-2,1,0,-1,-2
1528180149709021,-1,0,1,-2,1,0,-1,-2
1528180149709021,-1,0,1,-2,1,0,-1,-2
1528180149709021,-1,0,1,-2,1,0,-1,-2
1528180149709021,-1,0,1,-2,1,0,-1,-2
1528180149709021,-1,0,1,-2,1,0,-1,-2
1528180149709021,-1,0,1,-2,1,0,-1,-2
1528180149709021,-1,0,1,-2,1,0,-1,-2
1528180149709021,-1,0,1,-2,1,0,-1,-2
1528180149709021,-1,0,1,-2,1,0,-1,-2
1528180149709021,-1,0,1,-2,1,0,-1,-2
1528180149709021,-1,0,1,-2,1,0,-1,-2
1528180149709021,-1,0,1,-2,1,0,-1,-2
1528180149709021,-1,0,1,-2,1,0,-1,-2
1528180149709021,-1,0,1,-2,1,0,-1,-2
1528180149709021,-1,0,1,-2,1,0,-1,-2
1528180149709021,-1,0,1,-2,1,0,-1,-2
1528180149709021,-1,0,1,-2,1,0,-1,-2
1528180149709021,-1,0,1,-2,1,0,-1,-2
1528180149709021,-1,0,1,-2,1,0,-1,-2
1528180149709021,-1,0,1,-2,1,0,-1,-2
1528180149709021,-1,0,1,-2,1,0,-1,-2
1528180149709021,-1,0,1,-2,1,0,-1,-2
1528180149709021,-1,0,1,-2,1,0,-1,-2
1528180149709021,-1,0,1,-2,1,0,-1,-2
1528180149709021,-1,0,1,-2,1,0,-1,-2
1528180149709021,-1,0,1,-2,1,0,-1,-2
1528180149709021,-1,0,1,-2,1,0,-1,-2
1528180149709021,-1,0,1,-2,1,0,-1,-2
1528180149709021,-1,0,1,-2,1,0,-1,-2
1528180149709021,-1,0,1,-2,1,0,-1,-2
1528180149709021,-1,0,1,-2,1,0,-1,-2
1528180149709021,-1,0,1,-2,1,0,-1,-2
1528180149709021,-1,0,1,-2,1,0,-1,-2
1528180149709021,-1,0,1,-2,1,0,-1,-2
1528180149709021,-1,0,1,-2,1,0,-1,-2
1528180149709021,-1,0,1,-2,1,0,-1,-2
1528180149709021,-1,0,1,-2,1,0,-1,-2
1528180149709021,-1,0,1,-2,1,0,-1,-2
1528180149709021,-1,0,1,-2,1,0,-1,-2
1528180149709021,-1,0,1,-2,1,0,-1,-2
1528180149709021,-1,0,1,-2,1,0,-1,-2
1528180149709021,-1,0,1,-2,1,0,-1,-2
1528180149709021,-1,0,1,-2,1,0,-1,-2
1528180149709021,-1,0,1,-2,1,0,-1,-2
1528180149709021,-1,0,1,-2,1,0,-1,-2
1528180149709021,-1,0,1,-2,1,0,-1,-2
1528180149709021,-1,0,1,-2,1,0,-1,-2
1528180149709021,-1,0,1,-2,1,0,-1,-2
1528180149709021,-1,0,1,-2,1,0,-1,-2
1528180149709021,-1,0,1,-2,1,0,-1,-2
1528180149709021,-1,0,1,-2,1,0,-1,-2
1528180149709021,-1,0,1,-2,1,0,-1,-2
1528180149709021,-1,0,1,-2,1,0,-1,-2
1528180149709021,-1,0,1,-2,1,0,-1,-2
1528180149709021,-1,0,1,-2,1,0,-1,-2
