timestamp,emg1,emg2,emg3,emg4,emg5,emg6,emg7,emg8
1529310077040375,-3,-1,1,1,-4,-3,1,2
1529310077040375,-6,-12,-21,-9,-1,-1,-3,-4
1529310077052344,8,3,6,2,0,1,2,3
1529310077052344,-8,-10,-13,-8,-9,-5,-2,-6
1529310077061346,4,2,3,0,-2,-1,-1,1
1529310077061346,-4,0,-1,0,-2,0,-2,2
1529310077076281,0,-1,-2,-2,-1,1,0,-3
1529310077076281,12,2,0,2,3,1,0,5
1529310077077278,-31,-17,-18,-8,-7,-12,-5,-6
1529310077077278,-8,-1,3,0,-1,-4,-2,-5
1529310077098221,15,14,21,10,2,0,3,7
1529310077098221,-4,-2,-4,-2,2,4,1,-2
1529310077100216,5,7,10,4,0,0,0,-1
1529310077100216,11,4,-1,-2,2,-2,-3,4
1529310077112185,-33,-23,-25,-16,-8,-7,-9,-20
1529310077112185,10,2,-7,-3,-2,2,1,6
1529310077121442,-2,-2,-1,-1,-3,0,0,0
1529310077121442,8,-1,-4,-7,-1,-1,0,1
1529310077136427,-17,-3,4,8,-1,-2,-3,-4
1529310077136427,25,9,4,1,1,0,3,7
1529310077137401,-6,-4,-2,-5,-3,-4,-6,-15
1529310077137401,16,7,4,1,4,6,10,25
1529310077158343,-1,-4,-5,0,2,1,6,5
1529310077158343,-6,-4,-1,0,0,0,-4,0
1529310077160376,-3,0,1,3,5,6,6,5
1529310077160376,-4,-2,4,2,1,1,0,-12
1529310077172306,-1,3,0,-1,2,1,-4,-18
1529310077172306,0,2,3,1,-1,-2,7,9
1529310077181298,9,2,-1,-3,-5,-3,-5,1
1529310077181298,-12,-4,-7,-6,-5,-6,-7,-9
1529310077196240,2,-2,-7,-2,0,0,3,13
1529310077196240,-38,-10,-3,-2,-2,-6,-12,-21
1529310077197246,16,1,2,0,-1,-1,-7,-2
1529310077197246,-24,-3,2,1,1,7,16,1
1529310077218183,24,11,2,1,1,2,-1,-1
1529310077218183,-8,-7,-3,-1,-1,-1,-1,6
1529310077220177,5,-5,-10,-5,-3,-4,-4,3
1529310077220177,3,3,1,-3,-1,-2,-5,2
1529310077232176,4,-5,-3,-3,2,-1,-3,-1
1529310077232176,-24,-8,-3,-2,-4,-1,0,-7
1529310077241121,-1,5,3,1,-1,-3,4,-5
1529310077241121,23,6,4,4,4,3,-6,-7
1529310077256081,-32,-9,-5,-4,-5,-4,3,-13
1529310077256081,-2,5,3,4,0,-2,-5,-7
1529310077258092,-7,-8,0,-2,-3,0,6,-6
1529310077258092,-5,-2,-2,-2,-4,-2,-3,-5
1529310077278192,-5,-1,2,-1,-2,-2,-8,8
1529310077278192,19,10,4,1,1,-3,-5,-7
1529310077280184,-9,10,4,3,0,0,5,-2
1529310077280184,-7,-15,-3,1,2,1,-2,2
1529310077293308,9,4,-2,-3,-2,-3,-6,-1
1529310077293308,-4,-9,-1,-5,-13,-10,4,0
1529310077301296,0,-3,-1,6,1,-1,-7,3
1529310077301296,-6,1,1,-1,9,7,0,-4
1529310077316490,6,1,-3,2,6,9,7,2
1529310077316490,5,0,-3,-5,-2,-1,3,20
1529310077317308,28,2,-3,-6,-8,-7,-7,-2
1529310077317308,-16,0,2,4,-6,-10,-5,-7
1529310077339370,-14,-7,-4,-4,-1,-3,-10,-10
1529310077339370,5,3,-1,-3,-1,1,-3,-2
1529310077340199,-30,-18,-3,-3,-2,-3,-1,-19
1529310077340199,16,3,-3,-3,-4,-5,-5,6
1529310077352690,-4,0,0,-1,-3,-2,-6,-2
1529310077352690,13,5,-3,-2,-3,-4,-6,-4
1529310077361921,-6,-1,-2,0,1,0,1,0
1529310077361921,-1,-4,1,1,3,5,5,-3
1529310077375678,4,4,3,1,-3,-2,3,2
1529310077375678,-4,-3,1,0,-2,-3,-4,-4
1529310077377640,2,0,0,-2,-2,-2,-2,5
1529310077377640,-1,1,-2,-3,-2,-2,-1,-1
1529310077398768,6,3,1,4,6,6,2,4
1529310077398768,2,-2,-1,0,2,3,5,2
1529310077400562,-27,-4,-3,1,1,4,1,-4
1529310077400562,8,-2,-2,-4,-12,-11,-9,3
1529310077420555,12,-1,-1,-3,-4,-8,0,1
1529310077420555,5,3,2,5,13,10,0,-3
1529310077421557,1,0,0,2,10,19,19,9
1529310077421557,-6,-2,-1,-1,-2,5,3,-3
1529310077436523,5,0,-1,-2,-10,-10,-4,-1
1529310077436523,-5,-3,-3,-6,-11,-18,-9,-3
1529310077437464,9,1,0,2,-1,-2,1,4
1529310077437464,-1,0,-2,3,13,13,3,5
1529310077466688,-6,1,2,-2,-4,3,9,-5
1529310077466688,-1,-3,0,0,-4,-10,-5,-6
1529310077466688,1,0,-3,-3,8,7,3,3
1529310077466688,-5,-1,0,2,2,2,-4,-7
1529310077480941,10,1,2,1,1,3,9,9
1529310077480941,-11,-5,-6,-7,-3,1,-4,-8
1529310077481861,0,0,-4,-6,-15,-19,-11,-4
1529310077481861,7,3,-3,-2,-5,-16,-7,-1
1529310077502872,-1,-2,1,3,10,14,2,7
1529310077502872,3,1,-1,-3,-1,7,11,-3
1529310077503630,2,-3,-4,-3,-2,-9,-8,2
1529310077503630,-4,-1,-1,2,-4,-3,2,-2
1529310077517629,-11,-3,1,0,0,-1,2,-1
1529310077517629,6,3,2,6,8,6,-3,3
1529310077525571,-2,-3,-2,-7,-2,6,-1,-2
1529310077525571,-4,-3,-3,-1,-5,-7,-3,-6
1529310077540591,0,0,1,-2,0,-4,-1,2
1529310077540591,-21,-8,-3,-1,-4,-5,-6,-6
1529310077541577,-1,0,-1,-3,-6,-7,-4,-2
1529310077541577,1,0,-2,-6,-7,-11,-7,-3
1529310077562558,-6,-3,-2,0,-3,-3,-4,-5
1529310077562558,-2,-1,-1,2,3,2,5,2
1529310077563527,2,2,2,5,6,1,-3,0
1529310077563527,8,2,1,1,6,13,12,4
1529310077577483,2,-1,-2,-2,-4,-5,-4,1
1529310077577483,4,-1,-3,-7,-5,-1,-1,-1
1529310077585508,-5,-1,-1,1,-6,-7,-7,-4
1529310077585508,-5,-3,1,3,-1,-1,-2,-4
1529310077600453,0,-3,-3,-1,-2,-2,-1,3
1529310077600453,-5,-3,-2,-6,-4,-1,-2,-2
1529310077601421,6,0,0,1,1,5,3,6
1529310077601421,-2,-1,-3,-5,-3,-4,-3,-3
1529310077623360,0,-2,-2,-1,-2,-2,-1,0
1529310077623360,-4,-2,2,4,3,1,-4,-3
1529310077623360,0,0,-3,-1,-2,-4,0,2
1529310077623360,-2,-1,-1,0,0,1,3,0
1529310077637323,-3,-4,-4,0,1,-1,-5,-3
1529310077637323,3,5,3,3,-4,-4,-1,0
1529310077645302,0,-5,-2,-4,0,3,1,-3
1529310077645302,-2,1,0,-4,-2,-1,-1,-1
1529310077660314,-2,0,-6,-3,-1,-2,-4,-4
1529310077660314,0,-4,-1,0,-2,-2,-2,2
1529310077661260,0,3,10,6,0,0,1,0
1529310077661260,-6,2,12,5,-4,-6,-5,-3
1529310077683200,4,2,-3,-4,4,2,2,-1
1529310077683200,0,2,3,2,1,0,0,0
1529310077683200,0,-4,-8,0,0,-1,0,-2
1529310077683200,-3,-8,-8,-5,0,1,0,-1
1529310077697164,-2,-1,-1,-1,-5,-3,-2,-2
1529310077697164,2,3,-1,-2,0,1,0,-1
1529310077706139,-1,4,12,5,1,-3,-1,-2
1529310077706139,0,1,-4,-2,3,4,0,2
1529310077720103,-2,0,2,1,0,-1,0,-1
1529310077720103,-1,0,0,1,0,1,0,0
1529310077721099,-4,3,2,-2,-2,-4,-3,-4
1529310077721099,8,3,4,0,1,3,3,7
1529310077743094,-3,-4,-4,-1,-3,-4,-3,-3
1529310077743094,17,0,-7,-3,0,-2,-1,8
1529310077744092,-32,2,11,3,2,2,1,-4
1529310077744092,7,1,-3,0,-1,-1,3,4
1529310077757003,-1,-3,-3,-3,-1,2,-2,-3
1529310077757003,-3,1,4,2,-1,0,0,-3
1529310077765035,9,6,8,3,1,-4,-4,-1
1529310077765035,-8,-5,-5,-4,0,0,-1,3
1529310077779996,-5,-4,-7,-2,-2,1,1,-3
1529310077779996,1,2,7,4,-1,-4,-4,-8
1529310077780940,0,-6,-6,-3,-1,1,-2,-1
1529310077780940,-1,-2,-5,0,-1,-3,0,-3
1529310077802934,13,6,10,3,3,1,1,1
1529310077802934,-9,-2,-4,-3,-2,2,3,2
1529310077803878,19,-8,-5,-3,-6,-5,-4,0
1529310077803878,-27,-9,-11,-6,-6,-6,-9,-18
1529310077816844,5,5,3,1,-2,0,0,5
1529310077816844,-11,-6,-5,-1,1,2,-3,-16
1529310077825821,8,6,-1,-1,2,7,11,11
1529310077825821,1,-6,-5,-4,-2,0,-3,-8
1529310077840780,-20,-14,-6,-8,-7,-10,-14,1
1529310077840780,34,14,7,3,3,3,8,17
1529310077840780,6,-1,-5,-4,-5,-6,-11,-4
1529310077840780,-2,1,4,1,3,3,-1,-3
1529310077862721,-8,1,0,1,2,2,0,-11
1529310077862721,-5,-14,-8,-3,-1,-3,-3,5
1529310077863719,-9,-2,-4,-5,-4,-2,-1,-1
1529310077863719,-6,-2,1,-2,-5,-5,-6,-12
1529310077877686,10,-5,1,-1,-1,-1,-2,1
1529310077877686,-22,-1,0,0,4,4,6,1
1529310077885660,36,2,-5,0,2,0,-1,5
1529310077885660,-14,6,4,3,3,7,11,12
1529310077900620,25,7,4,2,-2,-3,0,5
1529310077900620,-6,-5,-10,-6,-7,-8,-10,-20
1529310077901618,0,-15,-9,-7,-7,-6,-11,-11
1529310077901618,-35,-11,-3,-1,-4,-4,-15,-2
1529310077922813,41,6,7,5,5,10,49,37
1529310077922813,28,18,0,-1,-1,-4,1,-8
1529310077923559,5,10,-1,1,-1,-5,-17,-11
1529310077923559,11,10,2,1,-2,-3,-6,-10
1529310077937793,-44,-17,-6,-5,-6,-6,-13,-20
1529310077937793,-9,-3,3,-1,-3,-2,-2,6
1529310077946109,-3,0,8,1,2,2,14,4
1529310077946109,8,-4,-2,1,3,1,2,4
1529310077968304,2,4,0,0,2,3,-5,7
1529310077968304,-6,-1,-5,-2,0,-3,-5,-6
1529310077969301,-16,-5,-4,-2,2,4,1,-2
1529310077969301,21,5,0,-2,-3,-3,7,10
1529310077991877,-13,-1,0,2,1,3,-8,-22
1529310077991877,29,4,-1,2,-1,0,9,21
1529310077991877,-32,-6,-1,0,0,1,2,-4
1529310077991877,-15,-9,-2,-2,0,-3,-2,6
1529310077997549,-13,5,-4,-6,-7,-6,-3,-23
1529310077997549,-16,-8,-4,-4,-4,-3,-6,-9
1529310078005741,0,-1,-3,2,3,4,9,6
1529310078005741,21,1,1,3,1,3,5,0
1529310078020479,-27,-4,1,4,1,-5,-13,-1
1529310078020479,-9,-8,-3,-4,-2,-3,-9,-2
1529310078021475,5,0,-4,-6,-7,-7,-3,-3
1529310078021475,-12,-2,-3,-3,-3,-3,-6,-5
1529310078043420,18,2,-1,0,-3,-3,-1,5
1529310078043420,2,-3,-2,0,2,1,0,-3
1529310078043420,-29,-6,-2,-1,1,3,1,-9
1529310078043420,3,-1,2,-1,-3,-3,-3,-5
1529310078057249,17,3,-3,-4,-5,-3,-1,5
1529310078057249,-3,2,3,3,3,1,4,8
1529310078066198,26,12,2,1,-1,0,2,8
1529310078066198,1,-6,-10,-6,0,-3,-4,-1
1529310078081057,6,2,-6,-7,-4,-3,-4,1
1529310078081057,-56,-14,-3,-2,-2,-3,-10,-14
1529310078081799,8,-1,0,1,1,1,1,-6
1529310078081799,10,2,2,0,-3,-1,1,2
1529310078103005,4,1,1,1,-3,-3,-5,-4
1529310078103005,-21,-11,-6,-4,-2,0,-1,-8
1529310078103741,5,-1,1,1,2,0,0,3
1529310078103741,-4,-1,1,2,0,2,4,6
1529310078126851,-19,-4,-1,-1,2,0,10,-15
1529310078126851,13,-1,-2,-2,-4,-4,-8,-2
1529310078126851,-2,0,-1,-1,-2,-5,-4,0
1529310078126851,-7,-1,-1,-3,-1,-2,-3,-5
1529310078140642,12,4,-2,1,1,0,-3,0
1529310078140642,7,3,-1,-2,0,2,8,14
1529310078141843,-4,-4,-4,-3,-2,-3,-4,-4
1529310078141843,-18,-3,-1,-2,-1,-4,-4,-11
1529310078163153,-2,-1,-4,-4,-2,-2,-6,-2
1529310078163153,0,-6,-2,-2,-3,-4,-3,-5
1529310078164402,11,2,0,-4,-3,-2,-3,-3
1529310078164402,-6,-1,3,1,1,-1,0,3
1529310078177382,-1,1,-1,0,0,-1,-2,7
1529310078177382,28,10,3,2,1,3,5,9
1529310078185672,-10,1,6,1,-3,-1,2,1
1529310078185672,6,-2,-2,-2,-2,-1,-1,-1
1529310078208380,-11,-3,-2,-2,0,1,1,5
1529310078208380,2,4,1,0,0,-2,-4,-4
1529310078209337,-4,-1,-4,-2,0,-1,0,3
1529310078209337,29,8,1,1,1,1,3,7
1529310078223301,-8,-3,-1,-1,0,0,-1,0
1529310078223301,-5,-3,-2,-1,-2,-2,-3,-3
1529310078224373,-7,-3,-1,-1,-3,-2,0,0
1529310078224373,-1,-3,-4,-2,-3,-3,-4,-5
1529310078246502,-9,-5,-3,0,0,0,-2,-1
1529310078246502,2,1,-1,-1,-2,-1,-1,-2
1529310078247467,-12,-3,-5,-4,-2,-3,-5,-8
1529310078247467,5,2,2,-1,-1,-1,2,-6
1529310078260781,5,0,2,1,2,0,-1,0
1529310078260781,-6,-4,-5,-4,-1,-1,-1,-2
1529310078261757,-28,-7,-5,-2,-1,-3,-4,0
1529310078261757,-1,-2,0,-1,-1,-2,-1,-4
1529310078283714,5,-3,-2,-3,-3,-1,-5,-3
1529310078283714,6,2,2,3,2,5,4,6
1529310078283714,9,-2,-3,-2,-1,-2,-1,3
1529310078283714,-3,-1,-2,-2,-2,-3,-4,2
1529310078306945,-7,-1,0,-1,-2,0,1,0
1529310078306945,8,-1,-1,-2,-2,-2,-2,-4
1529310078306945,-1,0,-1,-1,-1,0,1,5
1529310078306945,8,2,0,0,0,0,-1,1
1529310078320921,-5,0,-1,-2,-3,-2,1,5
1529310078320921,-4,-1,1,-2,-2,-1,-3,-11
1529310078321871,1,0,-1,-3,-2,-2,-1,-4
1529310078321871,1,-2,-1,0,-1,1,0,2
1529310078343590,0,-3,-1,0,2,0,1,-2
1529310078343590,-6,-4,-4,-3,-2,-1,-3,-1
1529310078344495,7,-1,-1,-2,-1,-2,-2,0
1529310078344495,-7,-4,-3,-3,-1,-1,0,0
1529310078366524,11,1,-1,-2,-3,-4,-6,1
1529310078366524,-11,-1,1,1,0,-1,-6,-3
1529310078367272,2,-3,-3,1,0,-1,-3,-3
1529310078367272,-6,-2,-2,-1,-2,-1,-2,-1
1529310078381080,1,-1,-1,0,-2,-1,-2,-3
1529310078381080,5,0,0,-3,-3,-3,-1,0
1529310078381080,-3,-1,-1,-1,-2,-1,2,0
1529310078381080,2,-1,-1,-2,-3,-3,-3,-2
1529310078402806,0,-1,1,0,1,-2,-5,-3
1529310078402806,-9,-1,-3,-2,-1,0,1,0
1529310078403800,11,2,-1,2,0,2,1,3
1529310078403800,13,4,1,0,1,4,7,5
1529310078426680,-5,-2,-2,-3,-5,-5,-2,2
1529310078426680,-1,0,-1,-1,-2,-2,-2,-4
1529310078427564,10,2,-1,-2,0,-2,1,5
1529310078427564,0,3,1,3,2,0,1,-1
1529310078440402,-4,-2,-2,0,2,0,-1,0
1529310078440402,8,2,0,0,-2,-1,0,1
1529310078441388,-9,0,-2,-1,-2,-3,0,-3
1529310078441388,-8,-16,-5,-5,-3,-5,-6,-7
1529310078463582,-3,-3,-3,-1,-1,1,1,-2
1529310078463582,-3,-3,-1,-2,-3,-3,0,0
1529310078464429,-6,-2,3,0,0,2,1,-5
1529310078464429,-8,-1,-1,-3,-2,-3,-2,-1
1529310078486836,-1,0,2,-1,0,-2,-3,-1
1529310078486836,-3,-2,-3,-3,-6,-5,0,-2
1529310078486836,-4,-3,-3,-3,-3,-4,-2,-1
1529310078486836,0,1,-1,-2,-2,0,-1,0
1529310078500812,-1,-2,-1,-3,-6,-4,-6,-5
1529310078500812,-4,3,1,1,-3,-5,-4,1
1529310078500812,-1,-1,-1,7,21,25,10,-2
1529310078500812,2,2,0,5,9,8,8,3
1529310078522722,-5,0,0,-1,0,0,-2,-5
1529310078522722,-3,-3,-2,-2,-4,-4,1,1
1529310078523719,-10,-5,-3,-7,-15,-16,-11,-5
1529310078523719,-5,0,-3,-3,-3,-5,-6,-4
1529310078546989,4,0,-3,-1,-2,-1,2,2
1529310078546989,1,-1,-2,0,0,-5,-4,-3
1529310078546989,-2,-2,0,-1,-2,-2,1,1
1529310078546989,3,2,-1,0,-1,0,-2,-1
1529310078561105,-1,-3,-1,-1,-2,-3,0,3
1529310078561105,5,2,-1,-1,3,2,1,-1
1529310078561105,2,0,3,1,-1,-2,-1,-1
1529310078561105,-4,-2,2,-1,0,0,0,0
1529310078583214,-3,-2,-4,0,0,-1,1,-2
1529310078583214,-3,-2,0,0,3,4,0,0
1529310078583983,0,0,-2,-3,-2,-4,-2,-2
1529310078583983,-3,0,-2,-3,-8,-9,-4,-2
1529310078605942,0,0,0,2,-1,2,2,0
1529310078605942,3,-2,0,2,10,8,2,2
1529310078606939,2,0,0,0,2,1,0,1
1529310078606939,-3,-2,-2,0,-1,0,-1,-1
1529310078619893,-1,-1,0,-1,-2,-2,-2,-1
1529310078619893,-1,-2,-2,-2,-4,-4,0,-1
1529310078620884,-2,-1,-1,-2,-5,-5,1,0
1529310078620884,-3,-1,-1,-2,-1,1,0,-2
1529310078642827,2,1,-1,-3,0,0,2,0
1529310078642827,-2,-1,0,-3,-3,-2,-2,-3
1529310078643824,-1,-2,-2,-1,1,-1,-1,0
1529310078643824,0,-1,-2,0,0,-3,0,-1
1529310078666108,0,-1,0,0,0,-2,-1,-2
1529310078666108,-1,-2,-1,-2,-1,1,0,0
1529310078666773,-1,1,-2,-2,-2,-2,-2,-3
1529310078666773,-1,-1,-3,0,-2,-3,-1,-2
1529310078680989,-1,-1,0,0,1,-1,0,-1
1529310078680989,-3,-1,-2,-1,0,0,0,0
1529310078681763,-2,-2,-2,-1,-4,-1,-2,0
1529310078681763,0,-1,-1,-1,0,0,-2,0
1529310078702667,1,-1,-4,-3,0,1,1,1
1529310078702667,0,-1,1,-1,-1,-2,-1,-1
1529310078703663,-3,0,-1,-2,-4,-2,-3,-1
1529310078703663,1,1,-2,-2,-3,-3,-2,-1
1529310078726603,-2,-2,-3,0,1,2,2,-1
1529310078726603,-2,0,-2,-1,-3,-2,-2,-1
1529310078726603,-3,-4,-1,0,1,2,0,-1
1529310078726603,-3,-1,-1,-1,-2,-2,-3,-1
1529310078741195,-1,-1,0,0,-1,1,0,-1
1529310078741195,0,0,-1,0,-2,0,-1,0
1529310078741195,-1,-1,0,-1,0,0,-1,-2
1529310078741195,1,0,-1,-2,-2,0,-1,-1
1529310078763430,0,-1,-1,1,-2,-2,-2,-2
1529310078763430,0,-1,-1,-1,-2,-1,-2,-1
1529310078764210,1,-1,-2,-4,-3,-2,-2,0
1529310078764210,-1,0,-2,-1,0,-2,-1,-2
1529310078786513,-1,-1,3,-2,-2,-3,-3,-1
1529310078786513,-3,-3,-2,-1,0,1,0,1
1529310078787152,0,-1,0,-2,-3,-3,-1,1
1529310078787152,0,-2,0,0,-2,0,-1,-2
1529310078800437,-3,-1,-2,1,0,-1,-2,-1
1529310078800437,-1,-1,-1,-2,-1,-1,0,-1
1529310078808126,0,0,-1,-2,0,-1,-1,-2
1529310078808126,-1,-1,0,-1,-1,-1,-2,0
1529310078823055,-3,-2,-4,-2,0,1,1,0
1529310078823055,-2,-3,-2,1,-2,-1,-2,-3
1529310078824053,-1,-2,-2,0,1,0,0,-3
1529310078824053,-3,-2,-1,-2,-3,-1,-2,0
1529310078845993,1,2,0,-2,-2,-1,-3,0
1529310078845993,0,-1,0,-1,-1,-1,-2,0
1529310078846991,0,-2,-2,-1,-2,-2,0,-2
1529310078846991,-2,0,-2,-1,0,1,-2,-1
1529310078860195,-1,0,0,-1,0,0,0,-1
