timestamp,emg1,emg2,emg3,emg4,emg5,emg6,emg7,emg8
1528184830553653,0,-1,-1,0,-2,2,-2,-1
1528184830553653,-1,-1,-1,-1,-1,1,0,0
1528184830554651,1,-1,-1,0,0,-2,-2,-3
1528184830554651,-1,-1,0,-2,-1,0,0,-1
1528184830554651,0,-1,-1,-2,0,0,-2,1
1528184830554651,-2,-1,-1,-1,2,0,1,0
1528184830555648,-1,-1,1,0,0,0,1,0
1528184830555648,0,-1,-2,-1,0,0,-1,-2
1528184830560635,-1,-1,-1,1,1,0,1,-1
1528184830560635,-1,-1,1,0,-1,-2,0,-1
1528184830566618,-1,0,-3,-2,1,0,0,-1
1528184830566618,-1,0,1,-3,-1,0,-1,0
1528184830582577,-2,-2,0,-2,0,-2,0,-2
1528184830582577,2,0,-1,-1,-2,-1,-1,0
1528184830591551,-1,-1,-1,1,-4,1,-1,1
1528184830591551,-1,0,0,-1,0,-2,1,2
1528184830596540,0,0,1,-2,-1,-2,-2,-2
1528184830596540,-1,-3,-2,-1,-1,0,-1,-2
1528184830621473,0,-1,-3,-1,-1,-2,0,0
1528184830621473,-2,-2,-1,0,0,-2,-2,-2
1528184830622471,-1,-1,-2,0,-2,0,0,1
1528184830622471,-1,1,-2,-1,-1,-1,-1,-2
1528184830668347,-1,-1,-1,0,0,0,-1,0
1528184830668347,0,0,2,-1,0,1,-1,-1
1528184830669345,1,0,-1,-1,-2,0,1,-1
1528184830669345,-1,-1,-1,-1,0,-1,0,-1
1528184830672336,-1,1,0,1,0,-3,0,0
1528184830672336,0,-1,-3,0,-2,-1,0,2
1528184830672336,-1,-1,0,0,-1,-2,-1,-1
1528184830672336,-2,0,-1,0,1,-3,0,-3
1528184830680316,-1,0,0,-1,0,1,-1,2
1528184830680316,-1,0,-2,-1,-1,-1,-1,0
1528184830694276,-1,0,0,0,0,-1,0,0
1528184830694276,1,0,0,0,-4,0,-1,0
1528184830695274,-1,0,-1,-3,-2,0,-2,0
1528184830695274,-1,-1,2,0,0,-1,-1,-1
1528184830717215,-1,-1,-1,-1,0,-1,0,-1
1528184830717215,-1,0,-1,0,0,-1,0,0
1528184830718215,0,-2,0,-1,0,-1,0,-1
1528184830718215,1,-1,1,-2,0,0,0,-2
1528184830740180,-1,-2,-1,-1,-1,0,0,0
1528184830740180,0,0,-1,-1,-1,3,-1,0
1528184830741154,-2,-1,0,-1,-1,-2,0,-1
1528184830741154,-1,-1,-2,0,-2,-1,-1,-1
1528184830754118,0,-1,-1,-2,1,0,-1,-1
1528184830754118,0,-2,0,-2,0,1,0,-1
1528184830762115,2,0,0,1,-1,0,-1,-1
1528184830762115,0,1,-2,-2,-1,-2,-2,-2
1528184830777111,0,-1,0,2,-1,0,-2,-1
1528184830777111,-2,-1,0,-1,-1,-3,-1,-2
1528184830778054,-2,-2,-2,-1,-1,0,-2,-1
1528184830778054,-2,1,-1,-1,0,0,-1,-1
1528184830800047,0,0,-1,0,0,-2,-1,-1
1528184830800047,0,-1,-1,0,-3,-2,-1,-1
1528184830800993,0,-1,0,-1,0,-1,1,0
1528184830800993,1,-2,-1,-1,0,-1,0,-1
1528184830813959,0,0,0,-1,0,-2,0,-1
1528184830813959,0,-2,-1,0,-1,0,0,0
1528184830821937,-1,-1,1,-1,-1,-1,0,-1
1528184830821937,0,1,0,0,0,1,-2,0
1528184830844876,-1,-1,-2,0,1,-1,-3,0
1528184830844876,-2,-1,0,-1,1,0,0,-2
1528184830845871,-1,-1,-1,-1,1,-1,0,0
1528184830845871,0,-2,0,0,1,0,1,-1
1528184830859834,0,-1,1,0,-1,0,-2,-1
1528184830859834,0,0,-1,0,1,-1,0,0
1528184830860832,-2,1,-3,-1,-3,0,-2,0
1528184830860832,-1,-2,-3,0,-1,0,1,-2
1528184830873836,-1,0,1,-2,-2,-1,0,1
1528184830873836,-1,0,0,-1,0,0,0,0
1528184830881808,-1,-1,-2,-1,-2,-1,-1,-2
1528184830881808,-2,-1,0,0,-3,-2,1,-1
1528184830896738,-2,0,-1,0,0,0,0,-2
1528184830896738,-1,-3,-1,-1,0,0,-3,-1
1528184830897735,-1,1,2,-2,-1,0,-1,-2
1528184830897735,1,1,0,-1,-2,-4,-3,0
1528184830927653,-1,0,-1,-1,-1,5,0,-1
1528184830927653,-1,0,0,-1,0,-1,-1,0
1528184830928651,0,-1,0,1,0,0,1,0
1528184830928651,1,-1,-2,-2,2,3,-1,-1
1528184830933637,-1,1,0,-2,0,-2,0,-1
1528184830933637,-2,-1,-3,1,-2,-2,-2,0
1528184830942617,-1,0,-1,-2,-1,-1,0,-1
1528184830942617,0,-1,1,-1,-2,1,0,0
1528184830957573,1,0,-1,0,0,-3,0,1
1528184830957573,-1,0,0,0,-1,1,0,1
1528184830958571,0,-1,-1,-1,0,-2,0,-2
1528184830958571,-2,-1,0,-1,-1,-1,0,0
1528184830980551,-2,-2,-1,-1,-2,-2,0,-2
1528184830980551,-2,1,0,-1,-3,1,0,-2
1528184830981538,0,-2,-2,0,1,-1,-2,0
1528184830981538,-1,-1,-2,-2,0,0,-1,1
1528184830993492,-1,-1,0,0,0,-1,-1,-2
1528184830993492,0,-1,-2,-1,1,0,1,0
1528184831009434,-1,0,0,1,-1,1,0,-1
1528184831009434,-1,0,-1,0,-1,-2,-1,-2
1528184831017415,-3,0,-1,-1,0,-1,-1,-2
1528184831017415,0,-2,-2,0,-1,-1,0,-1
1528184831017415,-1,-1,1,-1,1,-1,-1,1
1528184831017415,0,-2,-1,0,-2,0,-2,-1
1528184831040390,1,0,-1,0,-2,-1,-2,-1
1528184831040390,1,1,-1,-1,-1,-3,0,0
1528184831041388,-2,0,-1,0,1,0,0,-1
1528184831041388,-1,-1,0,0,-2,0,0,0
1528184831054316,-1,-2,-1,-1,-1,-2,2,1
1528184831054316,-1,0,0,-1,1,0,0,-1
1528184831062295,0,0,-1,0,-1,0,-1,-1
1528184831062295,-2,-1,2,0,1,-2,-1,0
1528184831077254,-1,1,0,0,0,0,-2,-1
1528184831077254,-2,-1,1,0,0,0,-1,-2
1528184831078250,-1,0,-1,0,-1,1,-2,1
1528184831078250,0,-1,-2,-1,0,-1,-2,-1
1528184831100192,-2,-1,-1,-1,-2,0,0,0
1528184831100192,-1,1,0,0,1,-1,0,-1
1528184831101190,2,-1,1,-2,-1,-2,0,-2
1528184831101190,-1,0,1,-1,-1,-1,0,0
1528184831114156,-1,-1,0,-1,-1,-2,0,0
1528184831114156,-1,-3,-1,-1,0,-2,-1,0
1528184831122134,0,-2,0,-1,-2,-1,0,0
1528184831122134,0,1,-1,-1,0,0,0,0
1528184831137121,-1,0,1,-2,-1,2,-1,-2
1528184831137121,0,0,0,-1,0,-1,1,-1
1528184831138096,0,-1,-1,-1,-1,-1,0,-1
1528184831138096,0,0,0,0,-2,-1,0,1
1528184831160068,0,0,-2,0,-1,1,-2,0
1528184831160068,1,-1,0,0,0,-2,-2,0
1528184831161029,0,1,-1,0,-1,0,0,0
1528184831161029,-1,-1,-2,0,1,0,1,-3
1528184831174029,1,-1,1,-2,0,-1,-1,-2
1528184831174029,-2,0,-1,-1,0,-1,-4,1
1528184831181978,0,-1,-1,0,-1,-1,0,-1
1528184831181978,-2,0,1,2,-1,1,1,-1
1528184831197122,0,1,-1,0,-1,-1,1,0
1528184831197122,0,-2,-2,0,-2,0,0,-1
1528184831197931,1,1,-1,-1,-1,-2,-1,-1
1528184831197931,0,1,1,0,0,-2,-1,0
1528184831219923,0,0,-1,0,-1,1,0,-1
1528184831219923,0,1,-2,0,-1,-1,0,-1
1528184831220989,-1,-1,0,-1,0,-1,0,0
1528184831220989,0,-1,-2,-3,-1,-1,-1,-1
1528184831242813,-1,0,-2,-1,0,0,-1,1
1528184831242813,1,0,-1,2,0,-1,-3,0
1528184831243809,0,-2,0,-3,0,0,-1,-1
1528184831243809,0,-2,-1,1,0,-1,-2,1
1528184831257816,0,-3,1,0,1,0,0,0
1528184831257816,0,-1,-1,-1,-2,1,0,-2
1528184831257816,-1,-2,-1,0,-2,-1,0,-1
1528184831257816,-2,-1,0,-1,0,-1,-1,0
1528184831280969,0,-1,0,0,0,-1,-1,-2
1528184831280969,0,-1,-2,-2,-1,-1,0,-1
1528184831280969,0,-3,1,-2,1,-1,-2,0
1528184831280969,0,0,0,-2,0,-1,1,1
1528184831302969,0,1,0,0,0,-2,-1,0
1528184831302969,-3,0,0,-1,-2,-1,1,0
1528184831303649,-2,0,-1,-1,0,-2,-1,-1
1528184831303649,-1,0,0,0,-1,-1,-1,-1
1528184831317855,-1,-1,-2,-1,-1,-1,-1,0
1528184831317855,0,0,0,0,-1,-2,-1,0
1528184831317855,-1,0,0,0,-1,0,0,0
1528184831317855,0,0,-2,-2,-1,2,-1,1
1528184831340552,0,-1,-1,1,0,-1,0,-2
1528184831340552,-1,-1,0,-1,1,0,-2,-2
1528184831340552,1,-1,-2,1,-1,-2,1,0
1528184831340552,-1,-2,-1,-2,-1,-1,0,-2
1528184831362524,-1,0,1,1,-1,-1,0,0
1528184831362524,2,-2,0,-2,-1,1,-1,1
1528184831363490,-1,0,0,-1,-2,0,-1,-2
1528184831363490,1,-2,0,1,1,1,-1,-2
1528184831377513,-1,1,-1,-2,-1,0,0,0
1528184831377513,-1,-1,-1,0,2,1,-1,0
1528184831377513,-1,0,0,0,0,-2,-1,1
1528184831377513,-2,0,0,0,-1,0,0,-2
1528184831401414,1,-1,0,0,0,-1,-1,0
1528184831401414,-1,1,0,-1,-1,-2,-1,-2
1528184831407431,0,-3,-3,-1,0,-1,1,-1
1528184831407431,-1,-1,-1,0,0,-2,0,0
1528184831430352,-1,-1,-2,0,-1,-1,-2,-1
1528184831430352,-2,-1,-1,-1,1,0,0,-1
1528184831432380,-2,0,-1,-1,0,-1,-1,-2
1528184831432380,0,2,-1,1,-1,-1,0,1
1528184831436294,-1,-1,0,0,-1,0,-3,-1
1528184831436294,-1,0,0,1,0,-2,0,-1
1528184831445282,0,1,0,-1,0,0,0,-1
1528184831445282,0,-1,1,1,-2,-1,-2,-2
1528184831460284,-2,1,-1,0,0,-1,0,-1
1528184831460284,1,-1,0,1,0,-1,-1,0
1528184831462250,1,0,0,-1,0,1,-1,1
1528184831462250,-3,-2,-1,-1,0,0,0,0
1528184831483205,-2,0,-1,-1,-1,0,-1,-1
1528184831483205,0,0,0,-1,-2,0,-2,0
1528184831484185,0,-3,0,-1,0,-1,0,0
1528184831484185,0,1,1,0,2,-1,0,-1
1528184831496188,0,-1,0,0,0,-1,0,0
1528184831496188,-1,-1,0,-1,-3,-1,0,0
1528184831505148,-1,0,-2,-1,-1,3,-1,-1
1528184831505148,0,-1,-1,-2,-1,-1,-1,0
1528184831520122,-1,0,1,0,0,1,0,-2
1528184831520122,1,1,-2,0,0,-1,-3,0
1528184831522119,-1,0,1,1,-1,-2,-2,0
1528184831522119,1,-2,-1,-1,-2,-1,0,-1
1528184831543063,0,-1,-1,-2,-1,0,0,-1
1528184831543063,0,0,1,-3,0,-1,1,-1
1528184831544053,1,1,-2,0,0,-1,0,0
1528184831544053,2,0,0,-2,0,0,0,-1
1528184831555974,-1,-2,0,1,0,-2,-3,1
1528184831555974,-1,-1,0,1,0,0,-2,0
1528184831572929,-1,-1,-2,-1,0,0,1,1
1528184831572929,-1,-2,1,1,0,-1,-1,0
1528184831580961,0,-1,-2,-2,0,-1,0,-1
1528184831580961,-2,0,-2,-1,-1,0,0,0
1528184831582901,-1,0,-2,0,0,-3,-1,-2
1528184831582901,0,-1,-2,-2,-1,1,-1,-1
1528184831609885,0,0,1,0,1,0,-2,0
1528184831609885,0,1,-2,0,-1,-2,0,0
1528184831611834,-1,-2,-1,0,-1,-1,-1,0
1528184831611834,-1,0,-2,-1,0,1,-1,0
1528184831616880,0,0,1,-1,-1,1,0,-1
1528184831616880,1,-1,-1,0,0,0,-1,-1
1528184831625798,-2,-1,-1,-1,0,-1,-1,-1
1528184831625798,0,-1,0,-2,-2,0,-1,0
1528184831638807,0,-2,-1,-1,-2,0,0,0
1528184831638807,0,0,0,-1,-3,0,-1,0
1528184831647814,-1,-1,-1,0,-1,0,0,0
1528184831647814,-1,-1,0,0,0,-1,-2,0
1528184831669969,0,-1,-1,-1,0,-2,-1,-1
1528184831669969,0,-1,0,-1,-1,0,0,-2
1528184831672003,1,-1,-1,0,-2,1,-1,-1
1528184831672003,-1,-2,-1,0,0,-1,-1,-1
1528184831686008,0,-1,-1,-1,0,0,1,0
1528184831686008,-1,-3,-3,0,-2,-1,-2,0
1528184831686924,0,-1,0,-1,0,-1,0,0
1528184831686924,1,0,-1,-1,-1,-2,0,-1
1528184831708264,-1,0,-2,-1,0,1,-1,2
1528184831708264,-1,-1,0,-1,0,0,0,-2
1528184831709863,-1,0,1,-1,0,-2,-1,0
1528184831709863,-1,-2,-1,2,0,0,0,1
1528184831731804,-1,0,-1,-1,-1,0,1,0
1528184831731804,-1,-1,-1,-1,0,0,-1,-1
1528184831733798,-1,0,1,-1,1,-1,-2,-2
1528184831733798,-2,-1,0,0,0,-2,-2,0
1528184831745767,0,-1,-1,-1,-1,-1,-1,0
1528184831745767,-1,0,-1,-1,0,-1,-1,0
1528184831746776,-1,0,-2,-1,-1,-2,-2,1
1528184831746776,0,-1,0,0,-1,-1,-1,-1
1528184831767723,0,-1,-1,0,0,0,-2,-1
1528184831767723,1,-1,-1,-1,-1,-1,-1,-2
1528184831769704,-1,-1,2,-1,0,2,0,-1
1528184831769704,-1,0,-1,0,-1,-1,1,-2
1528184831782672,-2,0,1,-1,0,-3,-2,0
1528184831782672,-1,0,-2,0,0,0,-2,-1
1528184831789689,0,-1,0,2,-2,1,-1,1
1528184831789689,0,-1,-1,-1,-1,-1,-2,0
1528184831805941,0,-2,-1,-2,-1,-1,-1,-1
1528184831805941,-1,-1,-1,1,-1,-1,-1,0
1528184831807701,-2,-2,0,-1,-1,-1,0,-1
1528184831807701,-1,1,-1,0,-2,0,-2,-1
1528184831827895,0,-1,0,0,-1,0,-2,-1
1528184831827895,1,0,1,-1,0,0,1,0
1528184831829568,1,-1,-1,1,0,0,-1,-1
1528184831829568,0,-1,-3,0,0,0,-1,0
1528184831841905,-1,1,-2,-1,0,-1,0,-2
1528184831841905,-1,-1,-2,-1,0,0,0,0
1528184831850486,0,0,0,-2,1,-1,0,-1
1528184831850486,-1,-1,2,-1,0,0,-1,1
1528184831873425,1,-2,1,-2,-2,0,0,-1
1528184831873425,-1,-1,0,0,-1,-1,0,1
1528184831874422,1,-1,-1,-1,0,0,-1,-1
1528184831874422,0,-2,-2,-1,1,-1,0,-1
1528184831888427,-1,-1,-1,0,1,-1,0,0
1528184831888427,-1,-1,-1,-1,0,-1,1,1
1528184831889382,-1,-1,1,-2,0,-1,-1,0
1528184831889382,-1,2,-1,-2,1,0,0,-1
1528184831901617,0,-1,0,1,0,0,1,0
1528184831901617,1,-2,0,-2,0,-2,0,-2
1528184831910361,0,0,-1,0,-1,-2,0,1
1528184831910361,1,-2,1,-1,0,0,-1,0
1528184831925286,-1,0,-2,-1,-1,0,-1,-2
1528184831925286,-2,-1,-2,1,-1,-1,0,0
1528184831927313,-1,-2,0,-2,-1,0,0,-1
1528184831927313,-3,-2,0,-1,0,0,-1,-1
1528184831948225,-2,-1,0,-1,0,-1,0,-1
1528184831948225,1,-1,1,-1,0,0,-1,-1
1528184831949222,-3,-1,-1,0,-1,1,-1,0
1528184831949222,2,0,-2,-1,0,1,0,0
1528184831962251,0,-2,1,0,1,1,0,0
1528184831962251,-1,0,0,0,0,0,0,-1
1528184831970166,0,-1,0,-1,-2,-2,0,-1
1528184831970166,-1,-1,-2,-1,0,-3,-1,-1
1528184831985127,-2,0,-1,-2,-1,-2,-1,0
1528184831985127,1,-1,0,-3,-2,0,-1,-1
1528184831987122,-1,0,-2,1,-1,-1,0,0
1528184831987122,0,1,-1,0,-1,-2,-1,-1
1528184832008378,0,-1,0,0,-1,0,0,0
1528184832008378,0,-1,-1,0,0,-1,-1,1
1528184832010061,1,1,-1,-2,-1,1,-1,-1
1528184832010061,-1,0,-1,-1,-1,-1,-2,0
1528184832022176,-2,1,-1,-2,-1,-1,-1,0
1528184832022176,-1,0,0,-2,-1,0,0,-1
1528184832030343,-1,-1,-1,0,0,0,-2,0
1528184832030343,-1,-1,0,0,0,0,-2,0
1528184832045629,-1,-1,-1,-2,-1,1,-2,-1
1528184832045629,0,0,-1,-1,0,0,0,0
1528184832047284,-1,-1,-3,-2,-1,-1,1,1
1528184832047284,-1,-1,0,-1,-1,1,0,0
1528184832068483,1,-3,-1,1,-1,-2,-1,-1
1528184832068483,-1,0,0,-1,-1,0,1,-1
1528184832069213,2,-2,0,0,0,-2,-1,-1
1528184832069213,0,-1,-1,1,-1,0,1,0
1528184832081498,-1,-1,0,0,-3,0,0,-1
1528184832081498,0,1,-1,0,-2,0,-2,-1
1528184832091121,-1,0,0,-1,-2,1,0,-1
1528184832091121,0,0,-3,0,-1,-1,-1,-2
1528184832105314,1,-1,1,1,0,-1,-1,0
1528184832105314,0,-1,0,0,-1,1,0,-1
1528184832107016,-1,0,-1,1,2,0,-1,-1
1528184832107016,-1,-3,-2,-1,1,1,-2,1
1528184832127960,0,1,-1,-1,0,-1,-1,0
1528184832127960,2,-1,0,-2,-1,-2,-1,-3
1528184832128961,0,-1,-2,0,0,0,0,-1
1528184832128961,-1,0,0,0,-1,0,1,0
1528184832141940,1,0,-1,1,-1,0,-1,-1
1528184832141940,-2,-2,0,-2,-1,0,0,0
1528184832150241,-1,0,0,0,0,0,-1,-1
1528184832150241,-2,0,1,0,0,-2,0,-1
1528184832164865,-1,-2,0,0,0,-1,-1,-1
1528184832164865,-2,-1,-1,0,-1,-1,-2,1
1528184832166857,-2,-3,-2,-1,-1,-1,0,0
1528184832166857,-1,1,-2,-2,-1,-1,1,-2
1528184832187837,1,0,-1,-1,0,-3,1,-1
1528184832187837,-1,-1,-1,0,1,0,-2,0
1528184832189853,-2,0,1,-1,-1,0,-1,-1
1528184832189853,0,-1,2,0,0,0,-1,1
1528184832201764,-3,-2,0,-1,-2,-1,-2,-1
1528184832201764,0,-1,-1,0,-1,-1,-1,-1
1528184832210739,1,0,-2,-1,0,-1,-1,-1
1528184832210739,0,0,-1,-1,-2,0,-2,-1
1528184832225699,0,1,-2,0,-1,1,-2,-1
1528184832225699,-3,0,0,0,1,-2,-2,1
1528184832226697,0,0,2,0,0,0,-2,-1
1528184832226697,-3,-1,0,0,0,-2,-1,0
1528184832247644,0,-1,-3,-2,0,0,-1,-1
1528184832247644,1,-2,-1,-1,-3,0,1,0
1528184832249635,0,1,-1,-1,-1,1,0,-1
1528184832249635,1,-2,0,-1,0,0,1,-1
1528184832261864,-3,-1,1,-1,0,-1,1,-2
1528184832261864,1,0,-1,1,2,0,-2,-1
1528184832270584,-1,0,1,0,-2,-1,-2,-2
1528184832270584,-1,-2,-1,-2,-2,0,-1,-1
1528184832285871,0,-1,-1,-1,0,1,0,0
1528184832285871,0,-2,1,-2,-1,-1,0,-1
1528184832287633,-1,-2,-2,0,0,-1,-2,-1
1528184832287633,1,-1,-1,0,-3,0,1,0
1528184832308164,-1,-3,-2,-1,-1,1,-1,0
1528184832308164,-2,0,-1,1,-1,0,1,0
1528184832308164,-2,0,-1,1,-1,0,1,0
1528184832308164,-2,0,-1,1,-1,0,1,0
1528184832308164,-2,0,-1,1,-1,0,1,0
1528184832308164,-2,0,-1,1,-1,0,1,0
1528184832308164,-2,0,-1,1,-1,0,1,0
1528184832308164,-2,0,-1,1,-1,0,1,0
1528184832308164,-2,0,-1,1,-1,0,1,0
1528184832308164,-2,0,-1,1,-1,0,1,0
1528184832308164,-2,0,-1,1,-1,0,1,0
