timestamp,emg1,emg2,emg3,emg4,emg5,emg6,emg7,emg8
1528439567171271,-1,-1,-2,0,0,0,1,-1
1528439567171271,-1,-1,1,0,0,-1,1,-1
1528439567180248,-1,-1,-1,-1,2,-1,1,1
1528439567180248,0,-1,-2,-2,0,-1,0,1
1528439567186233,-2,2,-2,0,0,0,-2,0
1528439567186233,-1,0,0,-1,1,1,-2,0
1528439567204183,1,-1,-2,0,-2,-1,-1,-1
1528439567204183,1,0,2,0,-2,-1,0,0
1528439567208172,-1,-2,2,-1,-4,0,-1,-1
1528439567208172,0,-1,1,-1,-2,0,-1,-1
1528439567223132,0,-1,-1,0,-2,-3,1,-2
1528439567223132,-2,1,-1,1,1,0,0,-2
1528439567239107,-1,0,1,2,0,0,0,0
1528439567239107,-1,-1,-1,0,3,-1,0,-1
1528439567246072,0,0,-1,-2,1,-2,-1,-2
1528439567246072,0,-1,-2,0,0,-1,0,-2
1528439567261032,0,-1,0,-1,-1,0,-1,-1
1528439567261032,-2,0,-1,0,-2,2,-1,0
1528439567268014,0,-1,0,0,-1,1,-1,2
1528439567268014,-1,-1,-1,-2,-2,-1,-1,2
1528439567282972,0,0,1,0,0,0,1,0
1528439567282972,-1,-1,-3,0,-3,-2,0,-2
1528439567297932,-1,0,0,-1,-2,-2,0,-3
1528439567297932,-1,0,0,-1,-1,-1,0,2
1528439567306909,0,-1,1,0,1,0,-1,0
1528439567306909,0,1,0,0,1,0,-1,0
1528439567327852,0,-1,-1,-1,1,0,-2,-1
1528439567327852,1,-1,0,-1,2,0,-1,-1
1528439567335841,0,0,-1,-1,1,0,-1,0
1528439567335841,0,-2,1,0,-2,-3,-2,0
1528439567350791,1,-2,-1,-1,0,-1,0,0
1528439567350791,-2,0,-2,0,-2,0,0,-1
1528439567365753,0,0,1,-1,-2,1,0,-2
1528439567365753,0,-1,-3,-1,-2,-2,0,-3
1528439567380712,1,0,-3,0,0,-1,1,1
1528439567380712,-2,-1,0,0,-1,-2,1,-1
1528439567388720,0,1,-1,-1,-2,0,-1,-1
1528439567388720,1,0,-1,-1,-2,-1,0,1
1528439567403689,-1,-2,-2,1,0,1,0,-1
1528439567403689,-1,-3,-1,-1,1,0,-1,-1
1528439567418610,-1,-1,1,-2,1,-2,-3,-1
1528439567418610,-1,-1,0,0,0,1,-2,-1
1528439567425591,-1,0,0,0,-2,-2,0,0
1528439567425591,-2,0,0,-1,-2,2,-1,0
1528439567440605,-1,0,0,-2,-2,0,0,0
1528439567440605,0,1,-2,1,1,0,1,0
1528439567448583,1,0,0,2,1,0,-3,-1
1528439567448583,1,-2,0,0,1,-2,-1,-3
1528439567478449,0,-2,1,-1,0,-1,0,-2
1528439567478449,0,0,-1,0,-2,1,0,-2
1528439567485472,0,-1,-1,-1,0,0,0,-1
1528439567485472,-1,-1,0,-1,-1,1,0,-1
1528439567493450,0,0,1,0,-3,-1,-1,2
1528439567493450,0,1,-1,-1,-2,-1,-1,0
1528439567500391,-1,0,-2,-1,-1,-1,-1,-1
1528439567500391,-1,1,-1,0,2,-2,0,-2
1528439567508423,-1,-1,-2,0,0,0,-1,0
1528439567508423,-1,-2,0,0,1,-1,-1,-1
1528439567523330,-1,-1,1,0,-2,0,0,0
1528439567523330,-1,0,-1,1,0,0,0,-1
1528439567530342,-1,0,-2,-2,0,0,0,-1
1528439567530342,-2,0,0,0,0,0,0,0
1528439567545272,-1,-1,-1,0,-2,-2,0,-1
1528439567545272,0,0,0,0,-2,-1,-2,-1
1528439567553250,-1,0,0,1,0,0,0,-2
1528439567553250,-1,1,-1,1,0,-1,-2,0
1528439567560231,0,2,-1,-1,-1,-1,-1,0
1528439567560231,-1,-1,-1,1,-1,-1,0,1
1528439567568213,0,0,-1,0,2,-1,0,0
1528439567568213,0,-3,1,0,-1,-1,1,0
1528439567583172,0,-2,-1,-1,0,0,-2,0
1528439567583172,1,-1,-2,-1,-3,1,-2,1
1528439567591149,-1,0,-1,-2,-4,0,0,-1
1528439567591149,0,0,-2,-2,0,0,0,-2
1528439567606110,-1,-1,-2,-1,-3,1,0,-2
1528439567606110,-1,-1,0,-1,-3,-1,2,-2
1528439567613090,-1,-3,0,0,-1,-2,1,-1
1528439567613090,0,-2,0,-2,0,-1,0,0
1528439567621120,0,-1,0,1,2,0,-1,-1
1528439567621120,0,-1,-2,-2,3,-1,-2,-1
1528439567628088,2,0,-1,-2,1,-1,-1,0
1528439567628088,-2,-2,-1,-1,1,-1,-1,0
1528439567643046,-2,1,-1,-2,-1,-2,-1,-1
1528439567643046,-2,-2,0,-1,-2,-1,1,-1
1528439567651047,0,2,-1,1,-2,-2,1,-3
1528439567651047,0,0,-1,-1,-2,-2,1,-1
1528439567665952,-1,0,0,-1,1,0,-1,0
1528439567665952,-2,-1,0,0,1,0,0,-1
1528439567672984,-3,-2,-1,-1,-1,1,-3,1
1528439567672984,0,-1,0,-1,-4,0,0,-1
1528439567680910,-1,-1,0,1,-3,1,-1,-1
1528439567680910,0,0,-1,-2,-3,-1,-2,0
1528439567687890,0,0,2,0,1,-1,-1,1
1528439567687890,0,-2,-1,-1,2,-1,0,1
1528439567702903,0,-1,-2,1,1,0,-1,0
1528439567702903,2,0,0,-1,2,-1,0,-3
1528439567710878,-1,-1,0,0,-2,0,2,-1
1528439567710878,0,0,-1,-1,-1,-1,-1,-1
1528439567725789,0,1,-1,-3,-3,0,0,-2
1528439567725789,0,-1,-2,-1,-1,0,1,-1
1528439567732771,-1,-2,1,-1,0,0,-2,-1
1528439567732771,-2,0,-1,-1,3,0,0,-1
1528439567740912,0,-1,1,-1,2,-1,-1,1
1528439567740912,1,-1,1,0,-2,-1,-1,0
1528439567747735,0,-2,-3,1,0,1,-1,0
1528439567747735,-1,0,-2,-2,-3,-2,-4,0
1528439567763687,-1,-2,-1,0,-2,-5,0,-2
1528439567763687,1,0,0,-1,-2,1,1,-1
1528439567770708,0,-2,-2,-2,-2,0,1,-2
1528439567770708,-1,-1,-1,-1,-1,0,-1,1
1528439567785665,1,1,-1,0,3,1,-1,1
1528439567785665,-2,-1,-2,0,2,1,-2,1
1528439567793609,-1,1,1,-1,0,-1,-1,1
1528439567793609,0,1,0,0,0,1,0,-2
1528439567800590,0,0,0,-2,0,-1,0,0
1528439567800590,-1,0,-2,-1,0,-1,0,-1
1528439567808569,0,-1,3,-1,-1,-1,-1,-2
1528439567808569,0,-2,2,0,-3,-1,0,-2
1528439567823529,-1,-2,1,-1,-2,1,1,0
1528439567823529,0,-1,-1,-1,-1,0,0,-1
1528439567830509,0,3,-3,-2,0,-1,0,-1
1528439567830509,0,-1,-2,-1,-2,-1,0,-1
1528439567845469,0,0,-2,0,-2,-1,-3,-2
1528439567845469,-1,-1,-1,-2,-1,-3,-1,0
1528439567860478,-3,2,-1,-1,0,-1,-2,-1
1528439567860478,-1,1,-3,1,1,-1,0,0
1528439567868421,-1,0,-1,0,0,-1,1,0
1528439567868421,0,0,1,1,0,-2,-1,1
1528439567875393,1,-2,0,0,0,-2,-1,2
1528439567875393,-1,0,1,-1,0,-1,-1,-1
1528439567890350,-1,-3,-2,-2,0,0,1,-2
1528439567890350,0,-1,-2,-1,-2,-2,-1,-1
1528439567898329,2,-1,-1,-1,-3,-2,-1,-1
1528439567898329,0,0,0,-1,-2,-2,-3,-2
1528439567913342,-1,0,-2,0,1,0,0,-1
1528439567913342,1,-2,-2,1,0,-1,-1,1
1528439567920304,0,-2,1,-1,1,-1,-2,0
1528439567920304,-1,0,-1,0,2,-1,0,1
1528439567928389,0,-1,0,-1,1,1,0,-2
1528439567928389,-2,-1,2,-1,0,0,-2,-1
1528439567943329,0,0,-1,0,-2,-1,-1,-1
1528439567943329,1,-2,2,0,-3,1,-1,-2
1528439567950307,-2,0,-1,1,-2,-1,-1,0
1528439567950307,0,0,1,-1,1,-2,0,0
1528439567965267,-1,0,-2,-1,1,1,-2,0
1528439567965267,-1,0,-1,-1,0,-3,-1,-1
1528439567973698,-3,-1,1,-1,-3,0,-1,-2
1528439567973698,-3,-3,0,-1,-1,0,-1,2
1528439567980539,-1,1,-1,0,1,0,0,-1
1528439567980539,0,0,-1,1,2,-2,-2,-4
1528439567988656,0,0,0,-1,1,-1,-1,0
1528439567988656,0,-2,-2,-2,1,-1,0,-3
1528439568002863,1,-1,0,0,1,-1,-1,0
1528439568002863,0,-2,1,-2,0,1,0,-2
1528439568010899,-1,-1,-1,-1,-3,-1,-1,-1
1528439568010899,-2,1,-1,0,-2,1,0,-1
1528439568025819,0,-1,0,0,-2,-2,-1,0
1528439568025819,-1,-1,-1,-1,-1,0,-1,0
1528439568032787,0,0,0,-1,0,-1,-1,1
1528439568032787,0,0,-2,0,-1,-3,-2,1
1528439568040898,0,0,1,1,0,-1,-1,-1
1528439568040898,-2,0,0,0,0,1,-1,0
1528439568047907,-1,-1,-2,0,1,-2,-2,-1
1528439568047907,-2,-1,0,-1,1,1,-1,-2
1528439568063020,-3,-2,0,-2,-2,1,0,-1
1528439568063020,-1,1,2,0,-2,0,-1,-1
1528439568071272,0,0,-1,-1,-1,-1,0,0
1528439568071272,0,0,-1,0,1,-1,0,1
1528439568086232,-2,-1,1,0,0,-2,0,1
1528439568086232,-2,0,-1,-2,1,-1,1,-1
1528439568093208,1,0,-1,-2,-1,1,0,-1
1528439568093208,0,2,0,-2,-2,-1,1,-3
1528439568101167,0,-1,0,-2,-3,-1,-2,-1
1528439568101167,0,-1,-1,-1,-3,0,-1,-1
1528439568108011,-1,0,-2,-1,-1,0,-1,0
1528439568108011,-2,-2,0,-1,-1,1,0,0
1528439568122971,-1,-1,1,0,0,1,0,0
1528439568122971,-1,-1,1,0,2,0,0,0
1528439568131095,-3,-2,0,0,0,-2,-1,-1
1528439568131095,1,0,0,-1,0,-1,-2,-2
1528439568146075,0,0,-1,0,1,0,-1,-2
1528439568146075,-1,0,0,0,1,1,-2,-1
1528439568153054,-1,1,2,0,0,-2,-1,-2
1528439568153054,0,1,-1,0,-1,0,-1,0
1528439568160870,-2,0,-1,-1,0,-2,1,0
1528439568160870,1,-1,-1,-1,2,0,1,-1
1528439568168866,-1,0,2,0,1,0,-1,0
1528439568168866,-1,0,-1,-1,-2,0,0,-2
1528439568183168,0,-1,-2,-1,-3,0,0,-2
1528439568183168,-1,-1,-1,0,-3,-1,-1,0
1528439568191146,0,-2,-2,1,-1,1,-1,0
1528439568191146,0,-2,-1,-1,-1,-1,-2,-1
1528439568206087,-1,0,0,0,-1,0,-2,-1
1528439568206087,0,-2,-3,-1,-1,-1,-1,0
1528439568213289,1,0,0,-1,2,0,-2,-1
1528439568213289,0,-1,-2,1,-3,-1,-1,0
1528439568221106,0,0,-1,-1,0,-1,0,1
1528439568221106,0,-1,0,-1,2,-2,-1,-2
1528439568228128,0,-2,-1,0,0,-2,2,-1
1528439568228128,-2,-1,-1,1,2,-1,1,0
1528439568243055,-2,-1,0,-2,-1,-1,-1,0
1528439568243055,-1,1,1,0,-1,-1,-1,2
1528439568251071,0,-1,-2,-1,-2,1,-2,0
1528439568251071,2,0,-1,-1,-3,1,-1,0
1528439568265985,1,-1,0,-1,-1,0,0,-2
1528439568265985,-1,-1,-2,-1,-1,1,-2,-1
1528439568280945,1,-1,-1,0,-1,-3,-1,0
1528439568280945,0,-1,2,-1,1,0,-1,0
1528439568287927,-1,0,-1,0,-1,-1,-1,-1
1528439568287927,-2,1,0,-1,-3,-2,0,0
1528439568295905,-2,-2,1,-1,1,0,-1,-2
1528439568295905,-1,-1,-1,1,-1,0,-2,-1
1528439568310867,0,-1,-1,-1,1,-2,1,-2
1528439568310867,1,1,0,-1,-1,0,-1,-1
1528439568317848,-1,1,-1,1,0,-1,-1,-2
1528439568317848,0,-1,-1,-1,2,-2,1,-1
1528439568325827,0,0,-1,0,-1,0,-1,-1
1528439568325827,0,-2,-1,0,-3,0,0,-1
1528439568340786,-2,0,0,-1,-4,-1,-1,0
1528439568340786,0,0,-2,-1,0,-3,-1,0
1528439568347768,-2,-1,0,-2,0,-2,-2,0
1528439568347768,0,0,2,-1,0,-1,1,0
1528439568355748,0,-2,-1,-1,-2,0,-1,1
1528439568355748,-2,-1,1,0,-1,-1,-1,-1
1528439568370761,0,-1,-1,0,0,1,0,1
1528439568370761,0,0,0,-2,-3,-1,0,-2
1528439568378727,1,0,-1,-1,0,1,-1,-2
1528439568378727,0,-1,1,0,-2,-1,-1,-3
1528439568400681,0,0,1,0,-1,1,0,-1
1528439568400681,0,-2,-3,-1,-1,-1,-2,1
1528439568423620,0,-2,-1,-1,-1,-3,0,-1
1528439568423620,0,0,0,1,2,-2,0,-2
1528439568430601,2,-1,1,-1,0,0,0,-1
1528439568430601,-2,-1,-1,-1,1,0,-1,0
1528439568445565,-1,1,-1,0,-1,1,0,0
1528439568445565,-1,-1,-1,-2,-2,-1,0,-1
1528439568453542,-2,0,-3,0,0,0,0,-1
1528439568453542,0,2,-1,0,-1,-2,-2,-2
1528439568468500,0,-1,0,-1,0,-1,-1,-2
1528439568468500,-1,-1,1,0,-1,-2,2,1
1528439568483404,-1,0,0,0,-1,0,-4,-1
1528439568483404,0,0,-1,1,-2,1,-3,-1
1528439568498366,1,0,1,-3,-1,1,0,-2
1528439568498366,-1,-2,1,0,1,-1,-1,1
1528439568505347,-3,0,0,0,-1,0,-1,1
1528439568505347,-2,0,-1,1,-1,0,0,0
1528439568520359,1,-1,1,0,-1,-1,1,0
1528439568520359,-1,0,-1,-1,1,-2,1,-1
1528439568535267,-2,0,-3,0,1,-2,0,-1
1528439568535267,-2,-1,-1,-2,2,-1,0,0
1528439568543281,-2,-2,-2,0,-1,0,0,0
1528439568543281,-1,0,1,-2,-1,-2,-1,-3
1528439568558349,-1,-1,-1,-1,-1,-2,1,-2
1528439568558349,-1,-1,-2,-2,-1,-1,0,0
1528439568566184,1,-1,-1,1,-1,-1,0,0
1528439568566184,0,-1,0,-1,0,1,0,0
1528439568581311,-1,-1,0,-2,-2,-1,-1,0
1528439568581311,0,0,-2,0,0,0,-2,-1
1528439568596261,-2,-3,-2,2,2,-1,0,1
1528439568596261,-1,1,-1,1,0,-2,-1,-1
1528439568603243,-2,-1,-1,-1,-2,-2,1,0
1528439568603243,0,-1,0,-2,-4,-2,0,0
1528439568618207,-1,0,0,-3,-2,0,0,1
1528439568618207,0,-1,-2,0,-1,0,1,-1
1528439568626042,-1,1,-1,0,-2,-1,0,-1
1528439568626042,-2,-1,-1,0,1,0,-1,0
1528439568641183,1,-2,-1,0,0,-1,0,-2
1528439568641183,-1,1,1,0,0,-1,-1,-2
1528439568656150,-2,1,-1,0,-2,-1,-1,-1
1528439568656150,-2,-1,0,0,-1,-3,-1,-1
1528439568663486,-2,-1,-1,0,-1,0,0,-2
1528439568663486,2,0,-2,-1,0,-1,1,0
1528439568678818,1,-1,-1,0,1,0,1,-3
1528439568678818,-1,0,0,-2,-1,0,1,-2
1528439568693784,-1,-1,0,-1,1,0,-2,1
1528439568693784,-2,-2,-1,-1,-1,0,-1,0
1528439568708806,1,0,-2,0,-3,-2,-1,1
1528439568708806,-2,-1,-1,-1,-2,0,-2,1
1528439568722900,0,-1,0,-1,-2,-1,-1,0
1528439568722900,-4,-1,-1,0,-2,-2,-1,-2
1528439568730906,0,2,0,-1,-3,0,1,0
1528439568730906,0,0,-1,0,0,-1,0,-1
1528439568745710,0,1,0,0,2,-1,-1,-2
1528439568745710,-1,-2,-1,1,2,1,0,0
1528439568760808,-1,0,0,-1,-1,0,2,-2
1528439568760808,0,-2,-1,-1,-2,-1,-1,-1
1528439568775825,-1,1,0,0,-1,-2,-2,-1
1528439568775825,-1,1,-1,1,-1,1,-1,0
1528439568782791,0,-1,-3,-1,-1,-1,-1,0
1528439568782791,-2,-2,0,-1,-1,0,0,0
1528439568798748,-1,0,-1,0,-3,-1,1,0
1528439568798748,-1,-1,0,1,-1,-1,-1,-1
1528439568805734,0,-2,0,-1,-1,0,-1,0
1528439568805734,1,-1,-2,0,1,1,-1,-1
1528439568820692,-1,-1,-2,-1,-1,-2,-1,-1
1528439568820692,-1,0,-1,-2,-5,-1,-1,-1
1528439568835962,-1,-2,0,-3,-2,-1,-2,1
1528439568835962,-1,2,0,0,0,-1,-2,2
1528439568843806,-1,-1,0,-1,0,0,0,1
1528439568843806,0,-1,-1,-1,-2,0,1,-1
1528439568858795,0,-4,-1,0,-2,-3,-2,0
1528439568858795,-1,-2,-2,-1,-2,-1,0,-1
1528439568873792,0,-1,1,-2,2,-2,0,-1
1528439568873792,2,2,1,-1,2,-1,-1,-1
1528439568888683,-1,-1,-1,1,-2,0,0,1
1528439568888683,0,0,0,0,-2,-3,1,-2
1528439568903641,-1,0,-1,0,1,-2,-1,0
1528439568903641,1,-2,-1,-2,-1,0,-2,0
1528439568910778,-1,2,-1,-2,-1,0,0,0
1528439568910778,0,-2,-1,0,-1,0,-3,1
1528439568925740,-1,0,0,-1,1,0,-1,0
1528439568925740,0,0,-1,0,-1,1,0,0
1528439568940555,-2,1,-1,1,-1,-1,1,-2
1528439568940555,-2,0,0,-2,0,0,0,-1
1528439568955515,-2,-2,1,-2,1,0,-1,0
1528439568955515,-3,-1,-1,-2,-2,-2,1,-1
1528439568963540,-1,-3,1,-2,0,-1,-1,-1
1528439568963540,-2,-2,-1,-1,1,-2,-1,-1
1528439568978647,-1,0,0,1,-2,-1,1,0
1528439568978647,0,1,-1,1,-3,-1,-1,-1
1528439568985784,1,-1,-1,-1,-3,-2,-1,-2
1528439568985784,-1,-1,-2,-1,-2,-1,0,0
1528439569000588,-2,0,-1,-1,0,-1,0,0
1528439569000588,0,-1,-2,-1,1,-1,1,-1
1528439569015747,-1,-1,-1,0,0,-1,-1,-1
1528439569015747,-1,0,0,1,-2,0,1,-1
1528439569023724,0,-1,0,-2,-1,-1,-1,-2
1528439569023724,-1,-1,-1,0,-2,0,0,0
1528439569038783,-1,-1,-2,-3,0,1,1,-1
1528439569038783,-1,-1,0,-2,1,1,-1,1
1528439569045807,-2,-1,-1,0,0,-1,-2,0
1528439569045807,-2,-1,-2,1,0,-1,-1,1
1528439569060629,0,-1,-2,-2,0,-1,1,-1
1528439569060629,0,-1,2,-1,2,0,0,-2
1528439569076091,-2,-1,0,0,-1,1,-1,0
1528439569076091,-2,-1,-1,-2,-1,-2,0,-1
1528439569083116,-1,-2,-1,-2,-1,0,-1,0
1528439569083116,-1,1,-1,-3,-3,-1,-2,1
1528439569098216,1,0,0,-2,0,-2,-1,0
1528439569098216,-1,0,-1,0,0,-1,0,-2
1528439569106053,0,1,-1,1,1,-1,-1,-2
