timestamp,emg1,emg2,emg3,emg4,emg5,emg6,emg7,emg8
1528451228205467,-37,0,2,7,25,24,3,3
1528451228205467,25,-12,5,16,-3,-10,19,20
1528451228209455,65,27,1,-17,7,5,-2,30
1528451228209455,26,-5,-8,-9,-3,-2,-23,-80
1528451228210453,-74,-12,11,1,-2,3,3,-1
1528451228210453,65,41,7,22,12,5,0,4
1528451228211451,-59,-31,-9,-10,-17,-16,-13,14
1528451228211451,-55,-74,-34,-35,-42,-45,-41,-68
1528451228228411,20,37,-1,-10,-3,13,8,-2
1528451228228411,41,29,18,11,2,-3,38,41
1528451228231397,39,46,6,28,48,99,15,42
1528451228231397,-24,-9,16,26,-4,-52,9,-4
1528451228241370,90,-7,-12,-48,-34,-12,-23,0
1528451228241370,-27,-18,-1,0,-4,-10,-5,-48
1528451228254375,37,56,11,29,8,8,21,36
1528451228254375,-93,11,14,-12,37,31,1,26
1528451228262314,-70,-50,-23,5,-7,-16,-15,-71
1528451228262314,-8,1,-16,-22,20,52,-13,-2
1528451228276277,-62,-63,1,-10,-73,-95,-5,-32
1528451228276277,13,33,0,8,20,102,19,7
1528451228287247,14,3,6,11,11,-67,2,31
1528451228287247,-26,-1,-17,-55,-44,22,-17,-7
1528451228299217,-15,-9,-7,9,33,-66,-10,-19
1528451228299217,97,19,14,13,9,59,27,71
1528451228341104,-94,-58,0,-25,-30,-14,5,-5
1528451228341104,65,8,-6,12,77,65,-2,0
1528451228341104,3,-7,-2,-3,-60,43,5,0
1528451228341104,117,32,3,14,-26,-95,7,34
1528451228345094,25,7,4,-29,5,48,2,-9
1528451228345094,-42,6,9,63,94,20,13,11
1528451228345094,60,14,11,9,30,21,2,3
1528451228345094,-34,-15,-14,-12,7,21,6,-8
1528451228351110,23,11,-11,-10,-42,-40,-13,47
1528451228351110,-26,-34,-12,-63,-98,-21,-32,-95
1528451228358059,46,11,0,16,-32,-72,-2,12
1528451228358059,-98,-29,2,4,-19,53,5,-21
1528451228368032,-30,5,-2,18,39,-6,11,22
1528451228368032,-67,13,10,4,28,26,1,3
1528451228381996,-81,-28,-11,0,30,-12,-21,-56
1528451228381996,-9,3,-3,-5,15,9,-6,-1
1528451228387985,-13,5,0,-7,-78,-26,10,-1
1528451228387985,78,14,-5,-27,-90,-80,-7,17
1528451228411915,-84,-3,-1,-32,24,16,3,-5
1528451228411915,66,4,9,38,72,58,13,10
1528451228413909,-13,6,2,14,89,48,5,-5
1528451228413909,60,-12,0,10,-14,-59,-3,13
1528451228426876,-78,-5,-12,-8,-52,-44,-9,-4
1528451228426876,21,-14,-7,-47,4,40,-5,2
1528451228433857,15,11,9,34,-32,-32,-7,-10
1528451228433857,2,4,-3,-25,2,1,3,6
1528451228449813,-12,-13,-8,-5,4,-13,-2,9
1528451228449813,-58,-2,-1,5,-23,-28,-10,-15
1528451228451808,62,10,1,10,23,39,-1,-7
1528451228451808,-5,1,0,-39,-37,-16,6,16
1528451228472753,33,1,3,36,83,49,9,5
1528451228472753,-25,2,3,13,5,-9,0,-3
1528451228473798,-20,-5,-6,6,14,-16,-9,-10
1528451228473798,-46,-11,-7,-13,-10,14,-7,0
1528451228485738,71,7,-10,-46,-90,-47,-7,3
1528451228485738,-29,-10,9,34,26,15,1,-7
1528451228494694,9,-3,-3,3,36,13,5,-3
1528451228494694,-9,-4,2,15,16,23,4,9
1528451228509707,-6,5,17,-9,6,5,-7,-8
1528451228509707,35,8,-10,-23,-61,-41,-4,14
1528451228511657,8,-5,8,5,-31,-9,-2,-10
1528451228511657,-16,-6,-8,26,35,16,2,4
1528451228532622,4,-2,1,36,20,22,2,0
1528451228532622,-10,2,9,-44,-26,-17,-8,-7
1528451228533589,-4,3,1,-6,1,-3,3,5
1528451228533589,-8,-3,-25,14,13,-5,2,-4
1528451228547552,-1,1,15,25,21,20,4,7
1528451228547552,1,-4,-30,-22,-9,-11,-10,-4
1528451228554583,-1,1,9,-53,-44,-21,-7,-6
1528451228554583,-8,-9,30,24,-8,9,-3,-5
1528451228570490,7,2,-46,-8,20,11,8,9
1528451228570490,-5,4,24,21,10,-5,-2,-1
1528451228571488,5,-11,-36,-3,-16,-12,-7,-8
1528451228571488,4,-1,-7,-31,-12,4,1,0
1528451228592432,5,1,26,18,25,7,6,6
1528451228592432,-6,5,-4,8,15,4,2,-2
1528451228593430,-23,-12,-15,2,7,-1,-6,-9
1528451228593430,9,0,3,-5,-14,-12,-1,10
1528451228605437,17,11,-12,-11,-30,-11,-6,0
1528451228605437,12,-7,4,-1,7,-1,2,-5
1528451228614426,22,-5,-12,5,13,7,-8,-6
1528451228614426,-2,2,13,-13,-21,-11,-1,1
1528451228629336,-32,-7,-9,33,26,15,4,-1
1528451228629336,-1,10,4,-14,-6,-4,-3,-1
1528451228631330,36,11,4,7,3,-7,-9,8
1528451228631330,-51,-3,-16,6,1,7,5,-13
1528451228652272,22,9,34,-8,-12,-2,2,8
1528451228652272,-3,-5,-21,0,-8,-10,-6,-3
1528451228654267,0,-6,1,4,21,12,6,-4
1528451228654267,1,-9,18,3,1,-3,-2,5
1528451228666235,-22,-4,0,-18,-11,-8,-5,-4
1528451228666235,-23,-15,-3,-3,-4,-1,-4,-1
1528451228675212,-1,5,21,-1,-10,-4,1,-3
1528451228675212,-9,4,-40,5,24,9,2,3
1528451228690170,14,11,2,-14,-5,-5,-4,-2
1528451228690170,14,-8,-9,1,-3,3,3,-2
1528451228691167,-21,5,13,6,-3,-2,1,0
1528451228691167,4,2,17,13,13,5,5,-3
1528451228712114,31,-7,5,-29,-6,-1,4,0
1528451228712114,-27,-5,-20,1,-3,-2,-10,1
1528451228714107,11,-8,9,-6,-7,-4,-6,-6
1528451228714107,15,3,-24,14,6,1,-4,-4
1528451228726077,-26,-6,1,-8,-8,-3,1,-2
1528451228726077,11,9,15,0,0,2,5,-1
1528451228735078,-15,-5,-24,1,0,-1,1,1
1528451228735078,-2,0,1,-4,-13,-9,-4,1
1528451228750011,9,-4,-1,21,8,2,-1,-3
1528451228750011,3,3,10,-6,8,6,1,1
1528451228751031,-7,1,11,-1,-8,-6,-6,-1
1528451228751031,7,5,1,-10,-14,-6,-2,1
1528451228771955,-6,-8,-33,-1,3,-1,0,-1
1528451228771955,2,-1,10,-9,10,0,0,2
1528451228773949,16,-1,-5,10,10,8,2,1
1528451228773949,-30,-4,-19,-10,-9,-4,-1,-4
1528451228785948,-3,-7,14,-4,-11,-7,-4,-1
1528451228785948,-1,0,-5,4,-11,-5,-4,-2
1528451228794892,7,0,28,6,11,9,4,0
1528451228794892,-2,-2,-12,-10,4,3,0,3
1528451228809851,-2,-2,-9,3,-1,-1,-1,-1
1528451228809851,-2,0,2,2,2,-2,1,-1
1528451228810848,-16,3,1,-7,-1,-1,-1,0
1528451228810848,30,4,14,5,-4,-1,0,5
1528451228831792,-7,-1,5,-11,-2,-2,-2,-2
1528451228831792,6,-3,-3,2,0,2,1,-1
1528451228833807,-12,-3,-5,6,6,2,1,-4
1528451228833807,0,0,6,-1,-2,0,-2,1
1528451228845766,-2,-3,3,-1,-2,-4,-7,-6
1528451228845766,4,-2,-1,8,-2,-3,2,-4
1528451228862710,13,5,-19,-19,-4,7,10,33
1528451228862710,-4,-4,13,14,8,-4,-1,-74
1528451228869723,-11,27,0,-25,-6,17,1,7
1528451228869723,2,-8,5,17,-2,-2,1,17
1528451228871717,-27,-11,-19,-10,1,-2,1,8
1528451228871717,12,2,16,0,-3,-3,-2,14
1528451228892667,-3,-4,1,16,2,-5,4,-6
1528451228892667,-4,-1,1,2,1,0,-2,-15
1528451228893628,1,0,-11,-22,-6,-5,-5,-10
1528451228893628,7,0,-10,-12,-3,-2,3,19
1528451228905597,-17,-15,-7,-3,-3,-4,-3,-22
1528451228905597,14,3,0,7,-3,2,-2,17
1528451228914571,-6,-1,11,17,5,-2,-2,16
1528451228914571,-16,1,-4,-28,-10,-4,-10,-36
1528451228929533,19,-3,2,13,-2,-4,-2,9
1528451228929533,-7,-5,-12,-24,-4,-3,-4,-8
1528451228931528,-8,4,14,24,5,0,2,-10
1528451228931528,6,-2,4,7,1,3,3,32
1528451228952470,17,-8,-17,-12,-4,-7,-5,14
1528451228952470,2,-4,-1,8,-1,-1,1,-1
1528451228953496,-30,-1,-3,-12,-3,0,-5,-25
1528451228953496,8,0,7,15,2,3,0,10
1528451228965470,-17,1,3,3,-1,-2,1,-10
1528451228965470,19,-2,1,-1,2,-6,-1,40
1528451228974448,-47,-13,-16,-15,-11,-7,-14,-67
1528451228974448,-11,-4,4,9,7,11,-2,-18
1528451228989428,20,1,1,1,2,-23,19,47
1528451228989428,-25,10,2,0,7,29,-10,6
1528451228991369,15,-6,-3,-4,-3,30,83,-79
1528451228991369,66,5,-1,-7,0,0,-21,-21
1528451229012513,28,2,-6,-12,-4,0,12,25
1528451229012513,-26,-3,-3,-5,-8,-26,-19,-30
1528451229013511,-12,0,-1,4,-4,-21,-21,45
1528451229013511,-23,-7,-4,2,2,13,44,23
1528451229025531,7,4,-1,-3,-2,-1,13,-49
1528451229025531,10,0,3,0,-2,-19,-49,-24
1528451229034457,40,17,7,7,10,18,9,26
1528451229034457,-53,-7,-2,-2,-3,-9,3,-4
1528451229049556,55,8,8,3,3,-8,-102,16
1528451229049556,-73,-44,-15,-15,-9,10,115,-23
1528451229051411,41,60,16,10,9,12,44,32
1528451229051411,58,7,5,12,18,51,49,82
1528451229072495,-11,-15,-2,-11,-6,6,-41,-31
1528451229072495,-21,-46,-19,-22,-16,-19,-1,-122
1528451229074416,7,-8,-4,3,0,-14,1,108
1528451229074416,85,45,9,16,10,-8,25,127
1528451229086430,-46,14,5,-3,-10,-2,-89,-99
1528451229086430,8,21,5,-14,-2,-1,-1,65
1528451229095309,-17,-13,-6,-1,3,-6,14,51
1528451229095309,-77,-34,-6,8,3,-3,-9,-30
1528451229109596,6,2,-2,3,5,6,47,3
1528451229109596,4,2,10,13,0,0,-32,-30
1528451229116441,13,2,-3,7,1,-4,-9,-12
1528451229116441,8,0,-6,-12,-7,-11,-29,-19
1528451229132746,-28,-20,-1,6,1,-2,13,13
1528451229132746,32,20,-5,2,4,10,12,25
1528451229133618,53,36,9,-3,-6,-3,-19,-10
1528451229133618,-94,-62,-13,-2,-6,-19,-18,-63
1528451229154554,-22,-26,-11,-10,-10,-19,-8,20
1528451229154554,21,21,5,7,6,38,31,30
1528451229156549,16,-15,-3,-6,-2,-8,-16,-15
1528451229156549,-13,6,-3,-11,-8,-16,-7,-50
1528451229169628,-3,9,-3,-1,2,10,66,42
1528451229169628,-12,3,2,4,3,-10,-35,9
1528451229175635,-7,-15,-6,-5,-4,-8,-33,-31
1528451229175635,-33,19,3,-7,-4,-1,-1,3
1528451229191593,8,-22,-3,1,3,-3,25,27
1528451229191593,54,-2,-4,-4,-4,-4,-18,-12
1528451229192473,-26,-12,-4,-3,0,2,-14,-26
1528451229192473,9,1,2,-1,-4,-10,-21,11
1528451229214405,7,11,0,2,3,2,-5,-7
1528451229214405,-9,11,1,2,3,18,7,11
1528451229214405,-29,-17,-6,-5,-5,-5,-9,-10
1528451229214405,9,8,1,-1,-1,-1,0,-10
1528451229228357,14,-2,2,3,3,2,-10,-6
1528451229228357,51,26,-1,-4,-1,-11,12,49
1528451229236335,-62,-30,-4,1,-3,-5,-12,-33
1528451229236335,-1,15,-1,-8,-5,-3,-8,0
1528451229251296,-22,-7,-1,0,0,4,7,14
1528451229251296,-2,-11,0,0,-2,-7,-6,-15
1528451229252305,37,19,-3,-2,-1,1,-12,3
1528451229252305,-54,-12,2,3,2,0,-11,-20
1528451229275232,6,7,0,-2,0,6,17,20
1528451229275232,-23,1,0,-1,2,-4,-8,10
1528451229276276,-2,-9,0,-3,-3,-3,-9,-12
1528451229276276,32,-2,-3,-4,-3,-1,5,18
1528451229288239,-11,17,2,-2,0,-1,3,-6
1528451229288239,23,-13,-1,0,-2,1,-3,0
1528451229296234,-5,-6,-2,-4,-1,0,-2,1
1528451229296234,10,2,-2,-2,-5,-5,-4,2
1528451229319171,-17,-12,-3,0,-1,5,-2,-15
1528451229319171,-10,18,5,3,1,-10,-8,-49
1528451229320168,44,-8,-1,-2,-2,3,12,75
1528451229320168,41,-8,-2,-3,-3,0,-3,-2
1528451229334133,2,4,-4,-4,-3,-2,-3,-9
1528451229334133,5,-3,-3,1,-1,-8,4,18
1528451229335128,-17,10,4,0,1,-2,-15,-25
1528451229335128,14,-2,0,1,0,3,4,5
1528451229356071,4,-5,-1,-1,-1,-1,4,6
1528451229356071,-3,4,1,3,-1,-3,1,20
1528451229357072,-11,-2,-2,-3,-2,-1,-2,-14
1528451229357072,12,1,-4,1,-2,-3,-6,4
1528451229379010,-11,0,-2,-2,1,0,3,-6
1528451229379010,-17,-4,-2,-5,-1,0,-4,1
1528451229379952,9,-7,-1,0,0,-1,-1,-10
1528451229379952,-10,-1,0,-1,-1,-1,-4,-14
1528451229393979,-4,3,-6,1,-1,1,5,-6
1528451229393979,-1,-6,1,-2,-3,-1,-6,-14
1528451229394911,-9,-4,-1,-3,-3,-2,-2,-9
1528451229394911,-4,4,-2,-1,0,1,1,4
1528451229416853,9,0,6,1,0,-7,0,30
1528451229416853,-6,-4,10,3,2,14,5,-57
1528451229416853,-34,1,2,0,0,-2,-5,-37
1528451229416853,36,5,-17,-5,-4,-2,-6,-31
1528451229439793,-7,-5,-2,-2,-4,-1,2,14
1528451229439793,-17,-6,-10,-2,0,-4,-3,-4
1528451229439793,8,-6,22,0,-3,-2,2,31
1528451229439793,-12,6,5,-1,-2,-3,-1,3
1528451229453754,8,1,7,2,2,3,-2,-40
1528451229453754,4,6,29,11,4,2,7,32
1528451229454768,-17,-12,-70,-16,-3,-1,-3,-19
1528451229454768,-1,-17,-36,-16,-10,-8,-10,-1
1528451229476748,-18,2,19,8,0,-1,1,23
1528451229476748,-13,-3,-33,-6,1,0,3,22
1528451229483729,7,-7,4,-4,-8,-7,-6,-19
1528451229483729,8,6,36,10,3,3,-2,-24
1528451229499686,2,-1,-36,-4,-1,1,0,-13
1528451229499686,8,1,26,7,2,-3,-2,10
1528451229500635,-4,4,-6,-4,2,-6,2,12
1528451229500635,-20,-9,-25,-13,-4,5,-6,-45
1528451229513656,14,4,64,11,1,0,0,24
1528451229513656,0,-1,-28,-10,-3,-4,-6,-17
1528451229514593,1,1,0,3,-3,-4,1,-6
1528451229514593,-8,2,15,8,2,-2,3,20
1528451229536586,4,-2,-4,-7,2,2,3,-2
1528451229536586,-6,0,15,-1,-3,-3,-3,-3
1528451229543569,6,13,1,2,4,1,2,13
1528451229543569,-5,-20,3,-6,-7,-6,-1,21
1528451229559603,-18,-14,-70,-15,-4,-1,1,-16
1528451229559603,5,-2,22,7,-3,-5,-6,-8
1528451229560469,-2,6,14,15,3,6,2,-10
1528451229560469,5,15,37,3,7,4,6,27
1528451229574591,-1,2,-12,0,-3,-3,-4,-10
1528451229574591,-7,-4,-23,-9,-1,0,-5,3
1528451229575478,5,3,44,5,2,3,1,11
1528451229575478,-6,1,-20,7,3,-1,0,-12
1528451229596883,1,0,16,-2,-1,-1,1,-4
1528451229596883,-4,-5,-13,-7,-3,-3,-1,4
1528451229597721,4,1,8,3,-2,0,0,-4
1528451229597721,-3,-1,-44,-8,-1,-1,-1,11
1528451229619697,2,-7,-13,-8,-3,-2,-2,-8
1528451229619697,-2,3,4,4,-3,-2,-1,14
1528451229620660,2,-5,4,-1,2,-1,0,-6
1528451229620660,-5,-3,1,-5,-5,-2,-1,-5
1528451229633625,8,8,5,4,2,1,1,4
1528451229633625,-7,-4,2,-4,-5,-1,-3,-3
1528451229634623,-7,-10,6,-4,-2,-3,-4,1
1528451229634623,2,5,19,11,5,0,-1,-1
1528451229656878,5,0,21,4,1,-1,0,-3
1528451229656878,1,0,-14,1,2,0,1,5
1528451229657888,-3,-1,-19,-7,-3,-2,-4,-3
1528451229657888,0,-1,3,-2,-2,1,1,2
1528451229679847,-2,0,-6,1,-1,-2,0,-3
1528451229679847,0,0,-8,-6,-1,-1,-2,-1
1528451229680678,-1,-6,-7,-2,-4,-1,-1,0
1528451229680678,-3,0,7,-1,-1,-3,-2,-4
1528451229693801,1,-2,-6,-3,-1,-2,-1,-1
1528451229693801,-2,-2,4,-3,1,0,1,2
1528451229694655,-1,2,1,2,0,0,-1,-1
1528451229694655,0,2,8,4,1,-2,0,1
1528451229716582,-1,-1,-2,-3,2,2,1,-1
1528451229716582,0,-2,12,-2,-2,-1,-2,2
1528451229717579,-7,-7,-23,-4,-4,-3,-2,-9
1528451229717579,-3,-2,-3,-1,-2,0,-2,-1
1528451229739520,1,1,9,-2,-2,0,-2,1
1528451229739520,-1,1,26,4,0,-2,0,-3
1528451229740517,0,1,-7,0,1,-1,0,3
1528451229740517,-2,-2,0,-3,-2,-3,-1,6
1528451229762459,-1,1,22,-1,-5,-3,-2,-18
1528451229762459,-1,-4,-25,-2,0,-2,-1,4
1528451229763583,1,-2,-14,-3,-3,-1,2,-1
1528451229763583,0,-1,-3,-1,1,0,7,-1
1528451229776580,-1,-2,-12,-2,0,1,-6,6
1528451229776580,-3,-2,-12,-5,0,-1,17,0
1528451229777434,0,1,16,1,-2,-1,-29,-8
1528451229777434,0,0,15,2,-2,-3,6,-2
1528451229799733,-2,-3,-52,-12,-4,-1,2,3
1528451229799733,0,-2,0,0,-3,-2,-7,-3
1528451229800565,-1,-2,-3,0,0,0,8,3
1528451229800565,0,-1,7,0,-1,-1,-2,-1
1528451229814606,2,6,35,6,0,-4,-5,1
1528451229814606,-1,-6,-40,-9,-2,-2,0,1
1528451229814606,-1,-2,5,-1,-1,-2,3,1
1528451229814606,-2,-1,-13,-2,-2,0,-6,-3
1528451229836628,-1,-1,13,2,-3,-1,2,0
1528451229836628,1,5,21,8,3,1,-2,-1
1528451229837467,0,-3,14,-5,-1,0,1,1
1528451229837467,-1,-2,-15,-5,-2,0,-3,-2
1528451229859567,-1,0,3,1,2,1,0,1
1528451229859567,-1,-3,-7,-2,-1,-3,-5,-2
1528451229860405,-1,1,9,2,0,-1,0,1
1528451229860405,0,-3,-11,-2,-3,0,-1,-1
1528451229874526,-1,-1,-5,-2,-1,-2,0,-2
1528451229874526,-1,-2,7,0,-4,-3,-4,-1
1528451229875400,-1,1,-10,-2,0,1,3,0
1528451229875400,2,2,9,3,2,-2,0,-2
1528451229896687,-1,-3,-23,-3,0,0,1,-2
1528451229896687,-1,-2,-2,-3,-3,-4,-2,0
1528451229897526,0,-2,-9,-3,-1,-1,1,0
1528451229897526,-3,0,6,-2,-2,-2,-2,0
1528451229919884,-1,-2,6,0,-1,0,-2,-3
1528451229919884,-1,-1,-1,-1,-3,2,-2,-4
1528451229920720,0,0,-13,-1,1,-1,0,0
1528451229920720,-1,0,6,2,-2,0,-2,-2
1528451229934054,-3,-2,14,0,-2,0,0,0
1528451229934054,-2,0,-2,-1,2,-1,-2,1
1528451229934902,6,0,-16,-1,-2,0,1,-2
1528451229934902,4,-6,-48,-11,-1,1,-1,-5
1528451229957114,0,-1,18,1,-2,-2,-2,7
1528451229957114,-10,-4,0,-1,-1,0,-1,-20
1528451229957114,-5,-2,16,3,-1,-1,1,9
1528451229957114,13,8,13,2,-2,-2,-8,-44
1528451229980161,-3,1,-17,1,-1,-2,-3,7
1528451229980161,-5,-7,0,-2,-1,1,-1,-2
1528451229981091,0,8,-1,0,-2,1,0,14
1528451229981091,-9,-1,23,6,3,-1,3,16
1528451229994151,-6,-4,-17,-13,-6,-4,-8,-38
1528451229994151,13,2,-18,0,-3,-1,-2,21
1528451229995148,-25,-13,14,2,-2,-2,1,-7
1528451229995148,1,4,-17,-6,0,-2,-3,-17
1528451230016249,9,1,7,5,-1,-1,1,6
1528451230016249,-12,-5,-1,-2,-1,-2,5,13
1528451230017088,13,5,0,2,1,-2,-3,-6
1528451230017088,-11,-8,-22,-14,-5,-1,0,7
1528451230040346,2,-3,-4,-1,-1,1,1,2
1528451230040346,5,4,15,3,-1,-2,-1,2
1528451230041201,1,4,1,2,-3,-2,0,2
1528451230041201,-8,-5,-6,3,0,-1,0,4
1528451230054303,-4,-6,-1,-6,-2,-1,0,9
