timestamp,emg1,emg2,emg3,emg4,emg5,emg6,emg7,emg8
1528877896741123,-1,-2,-4,-5,-8,-5,-2,-1
1528877896741123,0,2,4,9,-10,1,1,2
1528877896742120,2,0,3,7,14,2,0,2
1528877896742120,-2,0,-3,-7,37,2,-1,-3
1528877896744120,-1,-2,1,3,-8,0,0,0
1528877896744120,-3,-3,-12,-6,2,1,-2,-2
1528877896748104,-1,3,12,-6,-16,-3,-2,-2
1528877896748104,0,2,4,7,-2,1,-1,-1
1528877896754086,0,-2,-1,2,3,-1,-1,1
1528877896754086,-1,-3,-2,-2,-1,-2,0,-1
1528877896762065,-2,-2,-9,-25,2,-1,0,0
1528877896762065,1,-1,2,28,4,3,-1,1
1528877896768048,0,4,1,-11,-12,-2,0,-1
1528877896768048,-1,-1,-2,0,27,2,-2,-1
1528877896784006,-1,-3,-7,-4,-18,-1,0,-1
1528877896784006,1,1,9,15,0,-2,2,1
1528877896792982,-1,-3,1,9,9,2,2,1
1528877896792982,0,3,-7,-25,-18,-2,-2,-4
1528877896797969,-5,-6,-10,-6,-15,-2,-2,-2
1528877896797969,-3,1,3,-5,-2,-4,-3,-2
1528877896812929,0,-3,-4,13,1,3,0,0
1528877896812929,1,-3,-14,-3,-2,-5,0,-2
1528877896821904,1,7,18,0,15,4,1,2
1528877896821904,1,-2,-6,-10,-26,-5,0,0
1528877896861839,-1,0,-4,-6,8,4,-1,-2
1528877896861839,1,-2,-11,-3,9,1,-1,-2
1528877896862796,-1,-3,-2,6,0,-2,-2,-2
1528877896862796,-1,-4,8,-5,-13,-5,0,-1
1528877896863792,-2,1,-1,5,3,0,0,0
1528877896863792,2,6,17,15,32,1,0,1
1528877896865789,-1,-2,-16,-20,-10,-1,1,0
1528877896865789,-3,-10,-7,15,24,0,0,0
1528877896872770,0,2,-1,5,17,1,-2,0
1528877896872770,-3,-6,-15,-2,-28,-1,2,1
1528877896880747,-2,6,17,-21,-11,-5,-1,-2
1528877896880747,2,4,-2,6,-19,-3,-1,1
1528877896888766,-3,-8,-3,-8,40,2,-2,-3
1528877896888766,-1,-2,-2,-14,-51,-7,-2,-1
1528877896903688,0,-4,-12,4,-7,2,-2,0
1528877896903688,1,4,4,-14,40,1,1,0
1528877896910686,-1,-2,-8,-5,-1,-5,0,-1
1528877896910686,-1,2,13,13,34,5,0,1
1528877896917660,-1,-6,-8,-10,26,0,-1,1
1528877896917660,-3,-1,-8,29,15,4,-1,-1
1528877896932609,3,1,9,-6,-1,7,1,2
1528877896932609,2,8,2,-15,-38,-12,-5,-5
1528877896941585,-1,4,10,9,0,-6,1,4
1528877896941585,-2,-4,-4,3,75,10,-1,-2
1528877896947569,-5,1,3,-7,-73,-7,2,-2
1528877896947569,-3,-12,-7,-5,58,5,-4,-1
1528877896963534,6,9,8,16,-1,2,-1,-2
1528877896963534,0,2,-6,-19,-27,-6,-2,-1
1528877896970515,0,-1,0,14,12,1,2,-1
1528877896970515,-3,-1,2,-3,-59,-5,-2,-1
1528877896977502,-1,-4,-5,0,-23,2,-1,-2
1528877896977502,-5,-3,-2,-5,9,-8,-3,-2
1528877896992457,5,-3,1,-6,-45,-2,-2,-1
1528877896992457,-3,2,-2,6,61,5,2,-2
1528877897001432,0,7,0,3,28,-1,-1,0
1528877897001432,3,5,5,1,-20,-4,-1,1
1528877897007444,1,4,7,4,20,4,1,2
1528877897007444,-4,-6,-11,-16,-29,-8,-2,-3
1528877897023399,-9,-4,-1,4,-27,-2,-1,-3
1528877897023399,1,-2,-1,-9,16,2,-1,-1
1528877897030381,9,3,-3,1,-29,-1,1,0
1528877897030381,3,-4,-2,5,28,10,1,5
1528877897038336,0,-4,-3,0,2,-4,-1,-2
1528877897038336,-5,2,1,1,-16,-1,0,-2
1528877897052351,-2,-7,-6,-4,1,-1,-1,-2
1528877897052351,-1,1,-3,-3,-22,-3,0,0
1528877897061273,2,-3,-1,-5,-3,-1,3,0
1528877897061273,-4,2,3,6,-25,0,-5,-7
1528877897068289,-4,4,3,5,3,-3,0,5
1528877897068289,-1,-11,-7,0,4,5,0,-3
1528877897083253,-12,-7,-17,-6,-5,-2,-2,0
1528877897083253,3,-7,1,-7,16,8,1,-3
1528877897090208,29,29,9,1,-42,-1,0,0
1528877897090208,-39,-9,-4,0,10,-8,0,6
1528877897098174,28,2,3,2,14,-6,-7,5
1528877897098174,3,20,-10,-15,-33,-4,0,3
1528877897113134,-16,-31,-4,-6,-4,-2,-1,-5
1528877897113134,11,5,-7,8,58,0,-11,-13
1528877897121112,-21,-46,3,9,-17,9,8,5
1528877897121112,-10,-12,-6,-6,3,-7,-2,18
1528877897128094,65,94,24,11,29,0,-6,-10
1528877897128094,-5,-27,-7,-7,-20,15,12,12
1528877897143297,7,20,2,1,16,0,-4,-4
1528877897143297,-24,-20,9,6,-17,-3,-5,-3
1528877897151061,-30,-36,-20,-1,52,-10,0,-23
1528877897151061,-13,1,5,-10,-65,-17,-10,-12
1528877897158034,-26,-24,-7,-5,42,-2,1,4
1528877897158034,55,0,-2,1,42,2,-3,-21
1528877897172974,-6,16,9,6,17,12,3,26
1528877897172974,38,37,6,4,71,16,20,5
1528877897180954,-30,-25,-12,-7,-79,-16,-4,-8
1528877897180954,7,18,4,0,-69,-10,-6,-21
1528877897187989,-15,-20,4,12,68,8,-7,28
1528877897187989,7,-26,-14,-17,3,-24,1,1
1528877897203891,11,25,9,4,-52,11,3,-4
1528877897203891,-12,-7,-6,-6,27,5,1,3
1528877897210873,-10,-15,3,15,-54,-1,4,1
1528877897210873,2,15,0,-10,-33,-4,-6,0
1528877897226830,7,14,1,-9,24,-12,-16,-6
1528877897226830,-3,5,-1,6,16,3,13,3
1528877897232814,-14,-16,-12,-11,-7,7,1,-6
1528877897232814,-8,-28,5,6,22,-3,-5,-1
1528877897241790,-77,-95,-20,-23,62,14,5,-6
1528877897241790,85,31,-29,-6,-81,-24,-13,10
1528877897247774,-6,40,50,41,13,-4,-1,0
1528877897247774,69,79,10,-1,25,6,4,23
1528877897264756,18,63,38,26,72,7,8,5
1528877897264756,-39,-47,-15,-15,-33,11,7,-1
1528877897270714,-20,-47,-21,-44,22,-10,-2,-8
1528877897270714,-24,-14,-2,-9,-14,0,-8,-14
1528877897286671,19,-2,12,47,-33,12,4,2
1528877897286671,-22,-9,0,-11,-10,-5,-3,6
1528877897292694,13,2,-20,-56,-35,-13,-9,-11
1528877897292694,-20,-9,28,70,0,6,3,-1
1528877897301631,19,11,-17,-25,77,-3,-3,0
1528877897301631,-8,-1,5,5,-29,3,1,-5
1528877897307615,-6,-1,-10,8,16,7,3,0
1528877897307615,-2,-13,-21,-33,-59,-8,-3,-4
1528877897324569,11,9,-8,-3,9,-2,1,2
1528877897324569,-8,11,14,-4,-14,-3,-4,-3
1528877897330555,-2,-17,-15,-7,39,2,4,3
1528877897330555,-5,-3,-3,-13,-65,-5,-3,1
1528877897353491,20,13,6,14,39,-1,-2,-4
1528877897353491,-11,-4,12,17,-45,6,5,3
1528877897354491,2,-1,6,12,-19,-8,-4,-4
1528877897354491,-1,-7,-14,-5,13,1,0,-5
1528877897361473,2,7,1,-9,-14,0,-1,-2
1528877897361473,-3,-3,-2,-10,37,4,3,4
1528877897367483,-4,-11,-13,-12,-57,-8,-2,-3
1528877897367483,-2,5,13,23,19,4,-4,-2
1528877897384409,4,-1,-2,-18,-24,-4,-1,1
1528877897384409,-5,-4,-4,9,39,2,0,3
1528877897390436,3,-1,-2,-1,5,0,-2,-3
1528877897390436,-4,-2,4,-4,35,6,2,-1
1528877897406350,4,1,-7,-3,-46,-5,-3,-1
1528877897406350,-2,-1,-1,1,27,0,1,0
1528877897412373,-1,1,15,11,5,2,2,0
1528877897412373,-1,0,-1,-6,8,0,-2,-1
1528877897422345,1,2,0,10,-8,-2,0,0
1528877897422345,-3,4,10,-4,18,8,0,-1
1528877897428319,-4,-9,-9,10,25,2,1,-1
1528877897428319,-5,-2,-1,7,-11,0,-2,-3
1528877897444253,6,2,2,-1,-12,-3,0,2
1528877897444253,-4,1,2,-9,33,0,0,0
1528877897450254,-1,-2,-3,0,-70,-1,0,-2
1528877897450254,-1,-7,-12,0,53,4,1,0
1528877897466497,-1,4,5,-1,31,-5,-4,-2
1528877897466497,3,2,1,-3,-10,-1,0,2
1528877897473477,-8,-3,-6,-3,13,-1,-1,0
1528877897473477,3,-5,7,6,-8,-3,-3,-1
1528877897481456,12,11,-3,-15,-26,1,2,4
1528877897481456,-9,-10,-17,-8,-7,-3,-2,-3
1528877897488548,3,6,12,-13,18,3,2,1
1528877897488548,-8,-2,4,45,36,3,2,-1
1528877897504394,0,-4,3,-6,-78,-8,-2,-4
1528877897504394,-1,-27,-6,0,-8,-2,1,-3
1528877897517776,26,33,8,10,9,-1,-2,6
1528877897517776,-20,-31,-29,-25,2,-3,4,13
1528877897527334,54,50,42,30,11,7,-3,-7
1528877897527334,-6,8,-2,7,10,0,-1,3
1528877897533317,-17,-27,-1,-7,-10,3,-2,-7
1528877897533317,-77,-68,-25,-23,51,-3,-5,-11
1528877897542294,53,63,14,1,-77,-8,11,21
1528877897542294,-7,-15,3,10,21,-2,-1,-1
1528877897555311,4,-9,-6,7,35,2,-2,-4
1528877897555311,6,13,-1,-15,-41,-4,-1,-3
1528877897564234,-21,-45,-21,-8,20,0,-6,-8
1528877897564234,-5,11,-16,-22,42,1,-4,-6
1528877897570218,-17,0,24,26,-36,-3,1,3
1528877897570218,27,22,2,-25,-28,6,2,1
1528877897587192,-37,-31,-3,20,33,8,2,-5
1528877897587192,21,23,4,14,11,-1,1,2
1528877897593172,-6,-28,-20,-8,-31,-2,-2,-4
1528877897593172,8,13,4,-26,-105,-10,0,-1
1528877897602134,-3,-3,-6,-3,61,2,-2,0
1528877897602134,-5,-6,-3,-7,1,8,3,1
1528877897615323,-2,5,-3,0,10,-7,-3,-2
1528877897615323,17,19,19,11,-5,3,-1,0
1528877897624074,-16,-17,-19,-10,31,1,1,0
1528877897624074,2,-1,3,5,-69,0,-1,-3
1528877897630095,0,2,-10,2,21,-9,-6,-1
1528877897630095,11,7,-4,-3,-10,-3,1,1
1528877897647024,-14,-10,-9,-3,40,0,0,-4
1528877897647024,2,1,13,3,-29,-7,-3,0
1528877897652998,9,7,-6,-8,7,9,1,1
1528877897652998,-1,3,3,9,22,-11,-7,-3
1528877897661973,-7,-7,6,-3,10,-1,-1,-3
1528877897661973,-1,1,0,-31,-11,4,1,2
1528877897674991,1,2,1,48,6,-3,1,1
1528877897674991,-4,-7,3,6,13,2,-1,-4
1528877897683968,-2,-6,-17,-9,-14,-4,-4,-6
1528877897683968,1,6,1,0,26,-1,2,7
1528877897689953,-3,0,5,-22,-26,-4,-2,-3
1528877897689953,8,5,16,31,18,4,0,1
1528877897706853,1,-2,2,0,12,2,-2,-2
1528877897706853,-10,-2,3,9,-36,-8,-2,-2
1528877897712892,1,4,-11,-12,43,3,-1,-2
1528877897712892,3,1,-2,-6,2,-3,-1,-2
1528877897721814,-8,-6,2,-4,-11,0,1,1
1528877897721814,-5,-7,-5,12,40,7,-1,-1
1528877897735801,-3,-4,-6,-9,-2,1,2,-1
1528877897735801,4,6,8,-9,-17,-4,-4,2
1528877897744761,-5,-3,5,13,-3,-7,-3,0
1528877897744761,2,3,-2,5,9,-2,-1,-4
1528877897750735,-1,2,1,-6,2,1,1,-1
1528877897750735,3,0,-7,1,10,6,0,-2
1528877897766694,-7,-5,-4,0,-12,0,-1,0
1528877897766694,2,4,1,-2,18,2,0,-1
1528877897772723,5,2,12,4,3,-1,0,3
1528877897772723,-3,-3,-4,-3,-39,-2,-1,-2
1528877897781653,6,1,-1,-5,-21,0,-1,1
1528877897781653,2,1,4,6,3,1,0,1
1528877897795670,-3,-6,-7,-7,11,-2,0,-1
1528877897795670,0,-2,-7,-1,5,-1,-1,0
1528877897804593,-4,0,-5,-4,6,1,0,-1
1528877897804593,0,1,9,4,-5,-3,-1,0
1528877897810577,0,-5,-3,-3,-9,4,0,-2
1528877897810577,1,5,1,7,17,0,-2,1
1528877897825589,0,-1,-5,-15,-32,-5,0,0
1528877897825589,0,0,2,14,6,-2,-1,0
1528877897832572,-3,-2,-5,-6,-4,-2,-1,0
1528877897832572,2,1,5,0,-2,2,1,-1
1528877897847532,-2,-1,-2,-3,8,0,0,0
1528877897847532,0,-2,-6,-3,-6,-1,-2,-1
1528877897855517,2,-1,1,-2,-5,1,0,0
1528877897855517,1,2,-3,-1,7,-2,-1,0
1528877897871435,-2,1,0,0,1,2,0,-2
1528877897871435,-2,-4,-3,-1,6,-3,0,0
1528877897871435,1,3,-3,-3,0,-3,-1,-1
1528877897871435,2,2,4,0,6,1,0,0
1528877897886411,-3,-2,-1,1,-2,1,-2,-1
1528877897886411,-2,-1,-1,-1,-17,-3,-1,-1
1528877897892393,-2,-1,-4,-3,7,0,-1,0
1528877897892393,2,-1,1,3,9,1,0,-2
1528877897907355,1,1,1,2,-1,0,1,1
1528877897907355,-2,-2,-3,-5,-1,-1,0,-1
1528877897915328,1,1,0,-3,-4,-2,-2,1
1528877897915328,-2,-3,-2,0,2,-1,-1,-1
1528877897931254,-1,0,0,1,-2,0,0,0
1528877897931254,2,0,2,-1,6,0,-1,0
1528877897931254,-1,0,-2,-2,-3,0,1,-1
1528877897931254,-2,0,-1,-1,1,-1,-2,2
1528877897947243,-1,-1,-2,0,-6,-2,-1,0
1528877897947243,1,2,3,0,4,0,-1,0
1528877897953196,0,-2,0,0,-3,0,-2,-2
1528877897953196,0,-1,-1,0,-1,2,-1,1
1528877897968156,-2,-3,-5,-5,-11,0,1,2
1528877897968156,-1,0,2,5,11,-2,-1,-1
1528877897975359,2,5,3,-2,-4,0,-1,0
1528877897975359,2,1,1,8,12,1,-1,-1
1528877897991322,-2,0,-1,-1,-4,-1,0,-1
1528877897991322,0,-2,-1,-3,-2,-1,-1,-1
1528877897992092,0,-2,-3,-1,-4,-1,0,-2
1528877897992092,-2,0,-3,-4,-1,-1,1,-1
1528877898006763,-1,-2,-2,0,0,1,0,2
1528877898006763,-3,-2,-2,-1,-1,1,-2,-2
1528877898012854,0,1,3,-3,3,-1,-1,1
1528877898012854,-2,-2,-2,-9,-2,-1,0,-2
1528877898028423,-1,-1,1,6,2,1,-1,0
1528877898028423,0,-3,-5,-9,-2,-1,0,0
1528877898035339,-5,-4,-3,13,3,-2,-1,-2
1528877898035339,0,5,10,0,-2,0,-1,1
1528877898051287,-2,-1,-6,-13,-1,1,0,-1
1528877898051287,0,-1,-2,0,0,0,-1,-1
1528877898052286,-1,-2,-4,-5,-4,-2,-1,1
1528877898052286,-1,-2,-7,-4,5,0,0,-1
1528877898073287,2,2,8,17,4,-1,1,-2
1528877898073287,1,0,-2,-6,1,0,0,0
1528877898074272,-2,-2,-5,-3,-4,1,0,-1
1528877898074272,-1,-1,0,5,0,-2,0,-1
1528877898088521,-2,0,0,-7,-1,-2,-2,0
1528877898088521,-2,-2,-1,0,0,-1,0,0
1528877898095357,0,1,1,-1,0,-2,-1,-1
1528877898095357,-1,0,-1,-3,-2,0,0,-2
1528877898111778,1,0,-2,0,-2,0,0,-1
1528877898111778,0,-1,0,2,-4,-1,0,0
1528877898111778,0,1,2,2,-1,-1,-1,-1
1528877898111778,-2,-1,0,4,1,2,-1,-2
1528877898126738,-1,-1,-3,-7,-1,0,0,-2
1528877898126738,-2,1,1,3,-3,-1,-2,0
1528877898132681,0,-5,-3,-4,-11,-1,0,1
1528877898132681,0,2,-1,0,15,0,-1,-1
1528877898147869,0,-1,2,4,6,0,0,0
1528877898147869,-2,-2,-3,-5,-19,0,-1,-2
1528877898155862,-1,0,-2,-2,8,1,1,0
1528877898155862,0,-3,-3,-3,-12,-3,-2,1
1528877898170598,-3,0,-2,-4,4,0,-1,-2
1528877898170598,2,1,2,7,6,1,1,0
1528877898171589,-1,0,-1,-5,-7,-2,1,-1
1528877898171589,0,0,2,6,2,-2,1,2
1528877898186550,-2,-1,-6,-13,-9,-3,-3,-1
1528877898186550,-2,3,13,25,12,1,0,1
1528877898192538,0,-1,-1,1,15,3,0,-1
1528877898192538,-1,-1,-3,-6,-15,-4,-2,-2
1528877898207787,0,-1,0,0,-4,-1,0,-1
1528877898207787,0,-1,-5,-11,-11,-3,-1,0
1528877898216114,0,1,1,1,12,-2,-2,0
1528877898216114,0,-3,-3,0,-5,3,0,0
1528877898231104,-1,1,1,6,16,2,-1,0
1528877898231104,0,-1,-3,-7,-7,-2,-2,-1
1528877898231726,-2,-1,0,2,-4,-2,-2,-2
1528877898231726,-1,-1,-2,-3,-7,-2,-1,0
1528877898246848,0,0,2,2,-10,0,0,2
1528877898246848,-1,1,-1,-1,14,1,0,-1
1528877898253035,0,-1,-3,-3,4,1,1,0
1528877898253035,-2,-1,-1,-1,2,0,-2,-1
1528877898267629,1,-2,1,2,5,0,0,-1
1528877898267629,0,-2,-2,-6,-9,-1,1,0
1528877898275869,-1,-1,-2,-2,1,2,-1,0
1528877898275869,0,0,-1,0,-1,-2,-1,1
1528877898291714,0,-1,0,2,11,1,-1,-1
1528877898291714,1,-2,-4,-4,1,0,-1,-4
1528877898291714,-1,-1,0,0,-7,-3,-1,2
1528877898291714,0,-1,-2,-3,9,-1,0,0
1528877898306526,-1,1,-1,-1,-32,-2,-2,-4
1528877898306526,-2,0,-1,-2,17,0,0,4
1528877898313669,-1,-2,0,0,-4,2,1,-3
1528877898313669,-1,-1,0,-2,2,-4,-2,-1
1528877898328045,-3,-3,-1,-3,-7,-7,-1,-1
1528877898328045,1,-2,-2,-3,-1,-1,-2,-1
1528877898336088,-1,-1,0,-3,-6,-2,-3,-1
1528877898336088,0,0,1,1,2,3,0,0
1528877898351046,-1,-1,0,-3,-8,-5,-2,0
1528877898351046,-1,-1,-2,1,7,2,0,-3
1528877898352043,-1,0,-1,-1,1,3,1,0
1528877898352043,1,-3,1,0,-9,-2,2,-1
1528877898366821,4,2,0,0,8,-1,0,-3
1528877898366821,-1,-5,-1,0,-3,-3,0,0
1528877898373067,1,0,-2,-1,-4,-1,0,3
1528877898373067,-5,-4,-2,-1,4,-1,0,-3
1528877898387768,3,5,0,0,1,2,0,3
1528877898387768,-1,0,0,0,-3,0,3,9
1528877898395745,-1,0,0,0,-1,-2,-2,-3
1528877898395745,0,2,0,-1,-3,0,-2,-3
1528877898411500,-3,-9,-2,-2,0,1,0,8
1528877898411500,0,-1,-2,-1,-4,0,-2,-14
1528877898412190,-1,0,-1,0,-2,-1,10,2
1528877898412190,-3,-2,-1,0,2,1,0,5
1528877898427149,-2,-1,-1,0,0,-1,-2,0
1528877898427149,0,-1,-1,0,-1,-1,-1,-3
1528877898433133,-1,-4,-2,-1,-2,-1,-5,-1
1528877898433133,1,0,0,-2,-1,0,3,-3
1528877898448097,0,0,0,1,3,0,-2,-6
1528877898448097,-2,0,0,-3,-3,-1,0,4
1528877898456109,0,1,1,0,0,0,4,3
1528877898456109,-2,-3,0,-1,-1,-1,1,9
1528877898471776,1,1,-2,-1,0,0,-9,-4
1528877898471776,0,-1,-2,-1,-2,-1,1,-2
1528877898471776,-1,1,0,0,-3,-1,-2,-2
1528877898471776,-1,-1,-2,-2,1,0,1,-1
1528877898486828,-2,-2,0,1,1,-1,3,-1
1528877898486828,-1,0,-1,0,-3,0,-1,3
1528877898492784,0,0,-1,-1,0,0,-2,-1
1528877898492784,-1,-1,0,0,-3,0,-4,-5
1528877898507669,0,-1,-1,0,1,0,1,0
1528877898507669,0,0,-1,-1,0,0,-1,-1
1528877898515914,-2,-1,-3,0,-1,-1,-3,-1
1528877898515914,-1,0,-1,0,-1,-1,-2,-4
1528877898530179,-2,-1,-1,-1,-1,-1,1,1
1528877898530179,-2,0,-1,-1,-1,-2,0,2
1528877898547392,0,-2,-2,-1,-2,-2,-1,-3
1528877898547392,1,0,-1,-1,0,-1,-3,-2
1528877898548122,1,2,0,-2,0,0,1,-5
1528877898548122,-4,-2,-1,-1,-1,-1,-1,5
1528877898553361,1,0,0,-1,-1,-1,0,-2
1528877898553361,0,-1,0,-1,1,0,-1,2
1528877898568503,0,-2,-2,-1,-1,0,-1,1
1528877898568503,1,-1,-1,0,5,0,-1,-2
1528877898575585,-1,-1,0,-2,-2,1,-3,-3
1528877898575585,0,-1,-2,0,0,-3,2,1
1528877898590290,-1,-2,0,-2,-1,0,-2,-1
1528877898590290,1,-1,1,-1,-3,-2,1,-1
1528877898598514,-2,0,-1,0,0,-2,1,0
1528877898598514,-2,-2,-2,-1,-2,1,0,-4
1528877898607492,-1,-1,0,-1,0,0,1,0
1528877898607492,0,0,-1,-1,-2,0,-1,1
1528877898613496,-2,-1,1,0,1,0,-1,-1
1528877898613496,0,1,-1,-1,-3,0,-2,-1
1528877898627992,0,-2,-1,2,-2,-1,2,3
1528877898627992,-1,-1,-3,-1,2,0,-1,-3
1528877898635984,0,1,-2,-1,-3,-1,-1,-2
1528877898635984,-2,-1,0,0,0,-1,3,8
1528877898650713,-2,-1,1,-1,0,0,-7,-8
1528877898650713,1,0,0,0,-4,-1,0,0
1528877898657961,-1,-2,-1,0,1,0,1,-1
1528877898657961,1,-2,0,1,-1,-1,0,-1
1528877898666834,-1,0,-1,-1,0,-1,1,1
1528877898666834,-1,0,0,-1,-2,-1,0,-3
1528877898672819,-1,0,-2,-2,-2,-2,-3,2
1528877898672819,-2,-1,-2,1,-1,0,0,-1
1528877898687783,-1,-2,0,-1,-2,0,0,0
1528877898687783,1,-2,0,-1,1,-1,-1,-2
1528877898695925,0,-3,0,0,-2,-3,0,0
1528877898695925,1,-1,0,-2,1,-2,-1,-3
1528877898710720,0,0,-2,-1,0,-2,2,2
1528877898710720,0,1,-2,-2,-2,-1,0,1
1528877898717944,0,1,0,-1,0,-1,-1,0
1528877898717944,-1,1,-1,0,-1,1,-2,-1
1528877898733921,-2,-2,0,0,-1,1,1,-1
1528877898733921,-1,0,0,0,0,0,-1,1
1528877898734930,0,0,1,-1,1,-2,0,-1
1528877898734930,-1,0,-1,-1,1,-1,-1,-3
