timestamp,emg1,emg2,emg3,emg4,emg5,emg6,emg7,emg8
1528447982870774,0,-1,-1,1,0,0,-1,1
1528447982870774,0,0,-1,-1,0,-4,-2,0
1528447982876784,0,0,-1,0,-1,-1,-2,-1
1528447982876784,0,-1,-1,1,-1,0,0,0
1528447982883766,-1,0,2,-3,0,-2,0,0
1528447982883766,-2,-1,0,0,-1,0,1,-1
1528447982898700,0,-1,-2,-1,-1,1,-2,0
1528447982898700,-1,0,1,-1,-1,-2,0,-1
1528447982915657,1,1,-2,-1,0,-1,0,-1
1528447982915657,0,-1,-1,0,0,0,-1,0
1528447982936599,-1,0,0,-2,-1,-1,0,0
1528447982936599,-1,1,-2,-1,1,-1,-1,-1
1528447982944590,1,-1,-1,0,-1,0,-1,-1
1528447982944590,-1,-1,0,0,0,-2,-1,-1
1528447982959536,-1,0,1,-1,-3,-2,0,-1
1528447982959536,-1,1,0,-1,0,-1,-1,0
1528447982969511,0,0,0,-1,1,-1,0,0
1528447982969511,2,-1,-3,-2,-1,-1,0,-2
1528447982974498,0,-2,-1,0,-1,-1,-1,-1
1528447982974498,-1,1,0,-2,-2,0,0,-1
1528447982989457,1,-2,-2,0,-2,0,-1,0
1528447982989457,-2,-2,-1,0,0,0,-2,0
1528447982998435,-1,1,0,-1,-1,-1,-1,-1
1528447982998435,0,-1,-1,-1,-1,-2,0,0
1528447983011398,-2,0,-1,0,0,-1,0,0
1528447983011398,0,0,1,-1,0,0,0,-2
1528447983020389,-1,-2,-1,-1,-1,-2,1,0
1528447983020389,-2,-2,0,1,-1,0,-1,-1
1528447983026358,-2,0,-1,-1,-1,-2,0,-2
1528447983026358,-1,0,-2,-2,-1,-1,-1,-1
1528447983034336,0,-1,0,0,-1,-1,0,0
1528447983034336,-1,-1,-1,-2,-1,0,0,-1
1528447983056279,-1,0,-1,-1,1,0,-1,-1
1528447983056279,0,-1,0,-1,-3,-1,-1,-1
1528447983064266,-1,-1,0,0,-2,0,2,0
1528447983064266,-1,0,-2,-2,0,1,0,2
1528447983082208,-2,-1,1,-2,-1,0,-1,-2
1528447983082208,-1,-2,-1,1,-2,-1,-1,1
1528447983087196,-1,-1,-1,0,-1,-2,-1,-1
1528447983087196,0,-1,1,0,0,-1,0,-2
1528447983094178,-1,-1,-1,-2,1,-1,0,-1
1528447983094178,-1,-1,1,-1,0,0,1,-1
1528447983109137,-2,0,-1,0,-1,-1,1,0
1528447983109137,1,1,-2,-1,-2,-1,-1,-2
1528447983117122,-1,0,-2,0,0,-2,0,-1
1528447983117122,-2,-1,-2,1,-2,-1,-1,0
1528447983124097,0,1,-2,0,-2,1,0,0
1528447983124097,0,-2,0,0,0,0,-1,0
1528447983140054,1,1,0,0,-1,0,0,1
1528447983140054,0,-2,-1,-3,0,-1,1,0
1528447983147072,-1,0,-2,1,-1,1,-1,0
1528447983147072,0,-1,0,-1,0,-1,0,-2
1528447983154056,0,-1,-1,-4,-1,-2,1,-1
1528447983154056,-1,-1,1,-1,-1,-1,-1,0
1528447983169003,-2,-1,0,1,-2,-1,0,-1
1528447983169003,1,-1,0,0,-1,0,0,0
1528447983176955,-1,1,-2,-1,0,-1,-1,0
1528447983176955,-1,1,0,-1,-1,-1,-1,-1
1528447983199894,0,-1,2,-1,1,0,0,-1
1528447983199894,-2,-1,-2,0,0,-1,-2,0
1528447983221835,0,1,1,-1,0,-2,-1,-2
1528447983221835,0,-1,-2,2,-1,-2,-1,-1
1528447983228817,-1,1,-2,-2,-1,0,0,-1
1528447983228817,-1,1,0,0,-1,-1,-2,0
1528447983236795,-1,-2,-1,-2,0,1,-1,0
1528447983236795,-1,0,-1,1,-1,0,-1,-2
1528447983251755,-1,0,-1,0,0,-2,-1,-2
1528447983251755,0,0,-1,-1,0,0,-1,-1
1528447983266716,-1,-1,0,0,-2,0,0,0
1528447983266716,0,-1,-2,0,-1,1,0,0
1528447983281676,-1,-1,1,1,-1,0,0,-2
1528447983281676,0,1,0,0,-2,0,0,-1
1528447983288657,-1,-2,-1,-1,1,-1,0,0
1528447983288657,-2,0,-1,0,-1,0,-3,0
1528447983303672,0,-1,-2,1,-1,1,-2,-1
1528447983303672,-2,-1,-1,-2,0,-1,-1,0
1528447983311653,0,-1,0,1,-1,0,-1,1
1528447983311653,0,0,0,-2,-2,0,-2,-2
1528447983326567,0,0,0,-1,-1,-1,-1,0
1528447983326567,0,-1,0,0,0,-3,0,-2
1528447983341515,-2,0,-1,0,0,-1,-1,-1
1528447983341515,0,-1,-2,-1,0,-2,-1,-1
1528447983349495,-2,-1,0,-1,-1,-2,-1,-1
1528447983349495,-1,-2,-1,-2,-1,-3,1,-1
1528447983364457,-2,0,-3,0,0,-1,-1,0
1528447983364457,-2,-1,0,-2,-1,1,-1,-1
1528447983371436,1,-1,-2,-1,1,0,-1,0
1528447983371436,-1,0,0,0,-1,0,-1,-1
1528447983386396,0,-1,0,1,-2,-1,-2,0
1528447983386396,-1,0,-2,0,-1,1,-1,0
1528447983409347,0,1,-1,0,0,-1,0,1
1528447983409347,0,0,-1,0,-1,1,1,0
1528447983416317,0,-1,0,-1,-1,-1,1,-1
1528447983416317,-1,0,-1,-1,0,-1,0,0
1528447983431277,-1,0,1,-1,0,1,0,0
1528447983431277,-1,-1,1,1,0,-2,0,-1
1528447983439255,0,-1,1,-2,-1,-2,-1,0
1528447983439255,-1,0,-1,0,1,-1,0,-1
1528447983454214,-2,-2,-1,0,-2,-2,-2,-1
1528447983454214,-2,-2,-1,-2,0,-1,0,-1
1528447983476183,-1,-1,0,-1,1,1,-1,0
1528447983476183,2,1,-2,0,1,-1,0,0
1528447983492113,0,1,-1,-1,0,0,-1,-2
1528447983492113,-1,-1,-2,0,-3,0,0,-1
1528447983499095,1,1,-2,-1,-1,0,0,1
1528447983499095,0,-2,0,-1,-2,1,-1,0
1528447983514061,-2,0,0,1,-1,-1,-1,-2
1528447983514061,-2,0,1,0,1,-2,-1,-1
1528447983529018,-1,0,0,-2,-1,0,0,0
1528447983529018,-2,-1,0,0,-1,-1,-1,-1
1528447983543975,0,-2,0,0,0,-1,-1,0
1528447983543975,0,-1,-2,0,0,-1,0,-1
1528447983551954,0,0,-1,0,-1,-1,0,0
1528447983551954,-1,0,0,0,-1,-1,0,1
1528447983566916,0,-1,-1,-1,-1,-3,0,-1
1528447983566916,0,0,-2,-1,-1,-1,-1,0
1528447983581875,1,-1,-1,-1,0,-1,1,-1
1528447983581875,0,-2,-1,0,-1,0,-2,-2
1528447983588855,-1,0,0,-2,-1,0,0,-1
1528447983588855,-1,0,1,0,-1,2,0,-2
1528447983603816,-1,-1,0,0,0,-1,-1,-1
1528447983603816,0,1,-2,-1,2,-1,-1,1
1528447983611794,-1,1,-2,0,-1,0,-1,-1
1528447983611794,0,0,0,1,-1,0,0,-1
1528447983626801,-1,-2,-1,0,-1,-1,-1,1
1528447983626801,-1,-2,0,-2,1,-2,2,0
1528447983642344,-1,0,-1,-1,-1,-2,-1,0
1528447983642344,-1,1,0,0,-1,-1,1,0
1528447983649250,0,-1,-2,-1,1,-1,0,0
1528447983649250,0,-2,-1,0,-2,-2,-1,0
1528447983664208,0,-1,1,0,-2,-1,-1,0
1528447983664208,0,-1,0,-1,-1,-2,1,-2
1528447983671795,-1,-1,-1,0,0,-1,0,-1
1528447983671795,1,1,0,-1,0,1,-1,0
1528447983686460,0,-1,-1,0,-3,0,-1,-1
1528447983686460,0,-1,-1,-1,0,-1,0,-1
1528447983709454,-1,-1,0,0,1,1,0,1
1528447983709454,-2,0,0,0,0,1,-1,2
1528447983716381,0,-1,0,-1,-1,0,0,-1
1528447983716381,1,0,1,-1,-1,-1,-1,-1
1528447983731774,-1,0,-1,0,-1,-2,-3,-1
1528447983731774,1,-1,0,-1,0,-2,-1,-2
1528447983739921,-2,1,0,0,-1,0,-1,-1
1528447983739921,-2,0,-1,0,-2,-2,0,-1
1528447983753773,-2,-1,1,1,1,-1,0,1
1528447983753773,0,-2,-3,-1,0,0,0,-1
1528447983768677,0,0,0,-1,1,-1,-1,0
1528447983768677,-1,-2,0,0,1,-1,-2,0
1528447983784632,-1,-2,-2,-2,0,0,1,1
1528447983784632,0,-1,-2,1,-1,-1,-2,-1
1528447983792013,-2,-1,0,-1,0,-1,-1,-1
1528447983792013,-1,-1,0,-2,-1,-1,0,-2
1528447983806575,1,1,-2,0,-1,0,-2,0
1528447983806575,0,0,0,0,0,0,0,1
1528447983821536,1,-1,0,-1,0,1,0,-1
1528447983821536,-1,0,-1,-1,-2,-1,1,-1
1528447983829542,-2,0,0,0,0,-2,-1,0
1528447983829542,0,-2,0,1,-1,0,0,0
1528447983844518,0,-1,-1,0,0,-1,-1,1
1528447983844518,-1,-1,0,-2,0,0,1,1
1528447983851498,0,1,-1,0,1,0,-1,-1
1528447983851498,-1,0,-2,-1,-1,1,0,-1
1528447983866469,0,-1,0,-2,-2,-1,-2,0
1528447983866469,-1,-2,0,0,-1,-1,0,2
1528447983874447,0,-1,-1,-2,0,-1,-2,-2
1528447983874447,-1,1,-1,-2,0,-1,-1,-1
1528447983889353,0,-2,-2,-1,-1,-1,1,-1
1528447983889353,-2,0,-1,-1,0,-1,-1,0
1528447983904347,-1,1,-4,-1,1,-1,1,0
1528447983904347,0,0,0,-1,0,1,-1,0
1528447983911296,0,0,-1,0,-1,0,-1,-2
1528447983911296,1,-1,-2,-2,-2,-2,-1,-1
1528447983926310,0,0,0,1,-1,1,0,0
1528447983926310,-1,1,0,-1,-1,-2,-1,-2
1528447983934288,-2,-1,1,1,-1,-1,0,-1
1528447983934288,-1,-1,0,-2,0,0,-2,-1
1528447983949248,-1,0,-2,0,-2,-2,-1,-1
1528447983949248,0,0,1,-1,-1,-1,0,-1
1528447983979169,1,-2,0,0,0,-2,-1,0
1528447983979169,-1,0,-1,0,1,-1,-1,-2
1528447983987137,-1,0,0,-2,-1,0,0,-1
1528447983987137,0,-2,1,-1,-2,-2,-1,-1
1528447984002105,-2,0,-1,0,0,-1,-2,1
1528447984002105,-2,-1,0,-1,-1,0,-1,1
1528447984009086,-2,-1,0,-1,0,-1,0,-1
1528447984009086,-1,-1,-2,1,1,-1,0,-1
1528447984017069,0,-1,-2,-1,-1,-1,-1,0
1528447984017069,-1,-1,0,0,-1,0,0,2
1528447984031971,1,-1,-1,-2,0,-2,-1,-1
1528447984031971,0,0,1,-2,0,0,1,1
1528447984046987,-1,0,-1,0,-1,-1,-1,-2
1528447984046987,0,-1,-1,-1,-1,-2,-1,0
1528447984053961,1,0,-1,0,-2,-1,-1,-2
1528447984053961,0,-1,-2,-1,-2,-2,0,-1
1528447984068927,-1,-1,-2,-1,0,-1,0,-1
1528447984068927,0,0,-1,0,0,0,-2,-3
1528447984083833,0,-1,-1,-1,1,1,0,-2
1528447984083833,0,-2,-1,1,-2,-2,-2,0
1528447984091815,-1,-1,1,-2,-1,-1,0,2
1528447984091815,1,-1,0,2,0,-2,-1,0
1528447984106772,-1,0,0,-1,-2,-2,-2,-1
1528447984106772,0,-3,-1,-1,0,1,0,-1
1528447984113753,-1,-1,-1,0,0,0,0,-3
1528447984113753,-1,-1,0,-2,0,1,-2,0
1528447984129763,0,-2,-1,-1,0,-2,0,0
1528447984129763,0,-2,1,-2,0,-1,-1,-1
1528447984144787,-1,0,-1,0,0,-2,-1,-1
1528447984144787,-1,1,-2,0,-1,0,-1,0
1528447984151876,-1,-1,0,0,0,1,0,0
1528447984151876,-1,1,-1,0,-1,0,0,0
1528447984166876,0,-1,1,2,-1,-1,-1,-1
1528447984166876,-1,0,0,0,-3,-1,1,0
1528447984174839,-2,0,-1,0,0,0,0,1
1528447984174839,-1,1,-2,0,-2,-2,-1,-1
1528447984189795,0,0,1,-2,0,0,-2,0
1528447984189795,1,-1,-1,-2,-1,0,-1,-1
1528447984204852,-2,0,-1,-1,-1,-1,0,-2
1528447984204852,-1,0,-1,0,0,-2,-2,0
1528447984212131,-1,-1,1,0,-1,-2,0,1
1528447984212131,-2,-1,-2,1,-2,0,0,1
1528447984227017,0,-1,-1,-1,0,1,1,-1
1528447984227017,-1,-1,0,-1,-2,0,1,0
1528447984233735,0,1,0,-1,0,-1,1,-2
1528447984233735,-1,-2,-2,0,0,-2,1,1
1528447984250030,0,-1,-1,-2,-2,-1,-2,-1
1528447984250030,0,0,2,-1,0,0,0,0
1528447984263873,1,-1,-1,0,-1,-1,0,0
1528447984263873,0,-1,0,-2,0,-2,0,-2
1528447984272451,0,0,-2,0,0,-1,-1,0
1528447984272451,1,-1,1,0,-2,2,0,0
1528447984294801,-1,-1,-1,-2,0,0,-1,1
1528447984294801,-2,-1,-2,1,0,-1,0,-3
1528447984309447,-2,-1,0,0,-1,-2,1,0
1528447984309447,0,0,-1,1,0,-1,-1,-2
1528447984331651,0,1,-1,-1,0,1,1,-2
1528447984331651,-1,-1,-2,-2,-1,-2,-1,0
1528447984346856,1,-1,0,-1,-2,0,0,0
1528447984346856,-1,-1,-1,2,0,0,1,0
1528447984361543,-1,-2,0,-1,1,-1,-2,-2
1528447984361543,-1,0,-2,-1,0,0,1,-2
1528447984377034,0,-2,0,0,-1,-1,-2,0
1528447984377034,-1,-2,-2,-1,-1,-1,-2,-3
1528447984392070,-2,1,-2,0,1,1,0,0
1528447984392070,0,-1,-1,0,0,-2,0,0
1528447984407347,1,-2,-1,-1,0,-1,-1,1
1528447984407347,0,-1,-2,-1,-1,0,1,0
1528447984414012,-1,-2,0,-1,-1,-2,0,-2
1528447984414012,-1,-1,0,-1,-1,1,0,0
1528447984428983,-1,-1,-1,-2,0,-1,0,0
1528447984428983,1,-1,-2,-1,0,-1,-1,1
1528447984443972,-1,-1,0,-1,-1,-1,0,-2
1528447984443972,0,-2,-2,0,-2,0,-1,-1
1528447984452191,0,1,-1,-1,-1,0,-1,-1
1528447984452191,-1,0,0,-1,0,-1,0,-1
1528447984474833,-3,0,1,0,-2,-2,-1,0
1528447984474833,0,0,-1,0,0,0,0,-1
1528447984489815,1,0,-2,-1,-2,-1,-1,0
1528447984489815,0,-2,-1,-2,-1,-1,-1,-1
1528447984504870,-1,0,0,1,-1,-1,-1,1
1528447984504870,-2,-2,0,-2,-1,2,0,-1
1528447984519841,0,-2,-1,1,-1,-1,1,-1
1528447984519841,-1,-2,0,-1,-1,-2,-1,1
1528447984526698,1,0,-1,0,-1,-1,-2,-1
1528447984526698,-1,-1,-1,-2,0,-2,-1,-2
1528447984534893,0,1,-1,-1,0,0,-1,-1
1528447984534893,-1,-1,-2,-1,0,0,-1,1
1528447984541891,-1,0,0,-1,-1,0,-1,-1
1528447984541891,-1,1,0,-2,-2,-1,-1,0
1528447984556860,-1,-2,0,0,-2,1,1,1
1528447984556860,0,0,-1,-1,0,0,-3,0
1528447984571829,-2,0,-1,0,-2,-2,-2,1
1528447984571829,-1,0,0,0,0,-2,0,0
1528447984586828,-2,0,-1,-1,-1,0,0,1
1528447984586828,-1,-2,0,-1,-1,-2,0,1
1528447984602088,0,1,-2,-3,0,0,-1,1
1528447984602088,-2,-1,-2,-1,0,-1,0,-2
1528447984609918,-1,1,-1,-1,0,0,0,-1
1528447984609918,-1,1,-1,0,-1,0,0,0
1528447984616746,1,-1,-1,-1,0,-2,-1,0
1528447984616746,0,-1,0,-1,-1,-1,1,-1
1528447984632014,0,-1,-2,-2,-2,-1,-1,-1
1528447984632014,-1,0,-1,0,0,-1,-1,0
1528447984647226,0,0,-3,-1,-1,-2,-1,0
1528447984647226,0,-3,-2,0,-2,0,0,-1
1528447984654337,-1,-1,0,-1,0,1,0,-2
1528447984654337,1,-3,-2,0,0,-2,0,1
1528447984668993,-1,-2,-1,-2,1,-1,-1,0
1528447984668993,-1,1,-1,-1,-1,-1,-1,-1
1528447984684432,0,0,0,-2,-1,0,-2,-1
1528447984684432,0,0,-1,-2,-1,-2,-2,-1
1528447984691722,0,-1,-1,-1,0,1,0,-2
1528447984691722,-3,0,-1,-1,0,1,-1,-1
1528447984706687,0,0,-1,-1,-1,0,1,0
1528447984706687,-2,-1,-1,0,-1,-1,-1,0
1528447984714706,-2,-1,0,0,-2,-3,0,0
1528447984714706,-2,-1,0,0,0,0,0,0
1528447984729799,-2,-1,0,0,0,-1,0,0
1528447984729799,1,0,0,-1,-1,0,-2,-2
1528447984744824,-1,-1,0,-1,-1,-1,1,-1
1528447984744824,-3,1,0,-1,-1,-1,0,0
1528447984751855,-1,-1,0,-1,-1,-1,-2,1
1528447984751855,-1,-1,0,-1,-1,0,0,0
1528447984766812,0,-1,-3,0,0,0,-2,-1
1528447984766812,1,-1,0,0,-1,0,0,-1
1528447984774814,0,0,-1,0,-1,-1,1,0
1528447984774814,0,-1,-2,0,0,0,-1,0
1528447984789912,-1,0,-2,-1,0,0,-2,1
1528447984789912,-1,-1,-1,-1,0,-1,0,-1
1528447984797150,1,-1,1,-1,0,0,0,-1
1528447984797150,0,0,-1,0,-2,0,0,-1
1528447984812116,0,-2,-1,-2,1,0,-1,1
1528447984812116,-1,-2,0,-1,1,-1,-1,1
1528447984827080,-1,1,1,-1,0,-2,-1,-2
1528447984827080,0,1,-1,0,-1,0,-1,-2
1528447984834841,-2,-2,-2,0,0,-3,-2,0
1528447984834841,-1,-2,-2,-1,0,1,0,-2
1528447984849789,-1,-2,-1,0,-2,-1,-4,-1
1528447984849789,0,-3,0,-1,0,-2,0,1
1528447984856975,0,0,-1,-1,-2,0,0,-2
1528447984856975,-1,-1,-1,1,0,-3,-1,-1
1528447984871940,0,0,-1,0,-1,-1,-2,0
1528447984871940,0,0,-1,-3,0,-3,0,1
1528447984886656,0,-1,0,-1,1,-1,1,-2
1528447984886656,-1,-2,-1,-2,0,0,-1,0
1528447984894759,-1,0,0,0,0,1,-1,-1
1528447984894759,-1,-1,-1,0,0,-2,-2,0
1528447984909783,-2,-2,-2,-1,-2,-2,0,-1
1528447984909783,0,0,-1,-1,-2,1,1,-1
1528447984916836,1,-1,-2,0,-1,-2,0,0
1528447984916836,-2,-2,0,-1,1,1,-2,-1
1528447984931537,0,-1,1,-1,0,1,-1,-1
1528447984931537,-1,-2,-1,-1,-1,-1,0,-2
1528447984946756,-1,0,0,-2,-1,-2,0,0
1528447984946756,1,-1,-2,0,-2,-1,-1,-1
1528447984954276,0,1,-1,0,-4,0,-2,-2
1528447984954276,0,0,1,-1,-1,0,-1,-2
1528447984977323,1,-1,0,0,1,-1,1,0
1528447984977323,-1,-2,-1,-1,0,0,1,-1
1528447984984272,-1,-1,-1,-1,-1,-2,-1,-1
1528447984984272,-2,1,-1,0,-1,-2,-1,0
1528447984999485,0,-2,0,-2,1,0,0,-1
1528447984999485,-1,0,0,-1,-2,0,1,0
1528447985014105,-1,-2,1,0,-2,0,-2,-1
1528447985014105,0,-2,-1,-1,0,-1,0,-1
1528447985022345,-1,1,-1,-1,-1,-1,-1,0
1528447985022345,0,-2,-2,0,-1,0,-1,-1
1528447985029333,-1,-2,-2,-2,-1,-1,1,-1
1528447985029333,0,1,-2,0,-2,0,-1,0
1528447985037291,-1,-2,0,0,0,-1,-1,-1
1528447985037291,-1,0,0,-1,1,1,-3,0
1528447985052244,-2,-2,-1,-1,-1,-1,1,0
1528447985052244,0,0,0,0,-1,0,0,-1
1528447985067201,0,-2,0,-1,-2,1,0,0
1528447985067201,0,0,0,1,0,0,-1,0
1528447985074189,-1,0,0,0,0,-1,1,-1
1528447985074189,0,0,-1,0,-3,-1,0,-1
1528447985088904,-1,0,-2,-3,-1,0,-2,-1
1528447985088904,-1,-1,0,-2,1,0,-2,0
1528447985096414,1,0,0,-1,-1,0,-2,1
1528447985096414,-1,-2,0,1,2,-1,0,0
