timestamp,emg1,emg2,emg3,emg4,emg5,emg6,emg7,emg8
1528453183986722,-1,1,-2,-1,0,0,-1,-1
1528453183986722,0,-1,-1,1,-1,0,-1,-2
1528453183992694,-1,-2,2,0,-1,-1,1,-1
1528453183992694,-1,-2,-1,1,0,0,0,-1
1528453184005660,-2,-1,-2,-1,-1,-2,0,-1
1528453184005660,-2,-2,0,-2,0,0,-2,1
1528453184017628,1,1,-4,-3,-1,-1,-2,0
1528453184017628,-1,0,-2,-1,0,-1,-1,0
1528453184024609,-2,-2,0,-3,-1,-1,1,0
1528453184024609,0,0,2,0,-1,-1,-1,0
1528453184040566,-1,0,-1,-1,-3,0,2,0
1528453184040566,-1,-1,2,0,-2,-1,-1,0
1528453184045553,0,-2,-2,1,0,-1,0,-1
1528453184045553,0,-2,-3,0,0,0,0,-2
1528453184056524,0,-1,0,-1,0,0,-2,-2
1528453184056524,1,1,1,-1,-1,0,-1,-1
1528453184061510,0,1,1,0,1,1,-1,0
1528453184061510,0,1,-1,-1,-2,1,-2,0
1528453184116363,0,-2,-2,1,-1,0,-1,-1
1528453184116363,-1,-1,-3,-1,-2,-2,0,0
1528453184117361,-2,0,0,-1,-1,1,0,1
1528453184117361,-2,-2,-1,-1,0,-1,0,0
1528453184118359,-1,1,0,-3,1,-1,0,0
1528453184118359,-1,0,1,0,0,-1,-1,-1
1528453184121350,-1,-1,-1,1,-1,1,0,0
1528453184121350,-1,0,-1,-2,-1,-1,-2,-1
1528453184122348,0,3,2,1,0,-1,0,0
1528453184122348,0,-1,-3,-2,-2,-1,-1,0
1528453184127335,0,-3,-4,-3,-2,-2,-1,-2
1528453184127335,0,-1,1,-1,-2,1,0,0
1528453184136311,0,0,-2,0,-1,-2,-1,-1
1528453184136311,-1,1,2,0,1,1,-2,0
1528453184150273,-1,0,0,0,0,0,0,-1
1528453184150273,0,0,-2,0,1,-2,-1,-1
1528453184166231,-1,-1,-1,-3,-1,-2,1,-1
1528453184166231,-1,0,1,-1,0,1,0,-1
1528453184168225,-1,0,-1,0,-1,-1,-2,-2
1528453184168225,-1,-2,-1,-1,-1,-1,0,-1
1528453184181190,-2,-2,-1,-2,-2,-2,-1,-1
1528453184181190,0,-2,-2,0,0,-1,-1,-2
1528453184187175,0,0,1,0,-1,0,0,1
1528453184187175,-1,0,-2,0,-2,-1,-1,-1
1528453184195153,-1,-2,-1,-1,-1,1,-1,-1
1528453184195153,0,0,-2,0,-1,-1,-1,0
1528453184210114,0,1,1,1,1,1,-1,-2
1528453184210114,-1,0,-1,-1,1,0,-2,-1
1528453184218093,0,0,-2,-1,-1,1,-1,1
1528453184218093,-2,0,-2,-1,-1,-2,0,-2
1528453184225073,0,-1,2,0,-1,-2,0,-1
1528453184225073,0,1,-1,0,0,-1,-1,-1
1528453184241030,-2,-3,-1,1,-2,0,-1,-2
1528453184241030,0,1,2,0,-1,-1,0,-1
1528453184247021,0,-1,-2,-4,-1,-2,-2,0
1528453184247021,0,-2,-1,0,0,0,0,1
1528453184254994,-3,-2,-1,0,0,1,1,0
1528453184254994,0,-1,-2,0,-1,0,-2,0
1528453184269954,-1,-2,-1,-1,-1,1,-1,-2
1528453184269954,-1,-1,-1,-1,-1,-1,-1,-1
1528453184277932,0,-1,-1,0,1,-1,-3,-3
1528453184277932,-1,0,2,-1,-2,-1,0,-1
1528453184284913,-2,-2,0,-1,-1,1,-1,0
1528453184284913,0,1,0,0,1,0,-1,0
1528453184300870,0,0,-2,1,-1,0,0,-1
1528453184300870,1,0,-1,-1,1,-2,-1,0
1528453184307852,-1,0,3,1,0,-1,1,0
1528453184307852,-1,-2,-2,0,-1,0,-1,-2
1528453184314836,-1,2,1,0,0,-3,-1,-2
1528453184314836,0,0,-1,-1,-2,1,-1,-2
1528453184329794,0,0,-6,-4,-1,-2,-1,-1
1528453184329794,1,-1,1,0,-1,1,0,1
1528453184337772,0,-1,3,0,-1,0,-1,0
1528453184337772,-1,0,-1,0,-2,1,-2,-2
1528453184344753,-3,-1,-3,-1,0,0,-1,0
1528453184344753,0,-1,0,-2,-1,-1,-2,0
1528453184360711,2,0,0,-1,0,0,0,0
1528453184360711,-2,0,0,-1,0,-1,1,0
1528453184367692,0,-1,1,0,2,0,1,-1
1528453184367692,1,-1,-2,-1,0,0,-1,-2
1528453184374700,-1,-1,-1,-1,-1,-1,0,1
1528453184374700,0,-4,-1,-2,-1,0,-1,-2
1528453184389633,1,0,-1,-1,0,-1,-1,-2
1528453184389633,-3,1,4,0,0,1,2,-1
1528453184398609,-2,1,-1,1,0,0,-2,1
1528453184398609,-1,-1,0,2,-1,0,-1,0
1528453184404632,1,-1,-3,-2,0,-1,-1,1
1528453184404632,0,-1,-1,0,-2,0,-1,0
1528453184420560,0,0,-2,0,-2,0,2,0
1528453184420560,-2,1,-3,-1,0,-2,0,0
1528453184427577,0,1,2,0,-2,-1,0,0
1528453184427577,-2,-2,-1,0,-1,0,0,0
1528453184443490,1,0,-2,-1,0,0,-2,-1
1528453184443490,0,-1,-1,-1,-1,-1,-3,-1
1528453184450470,0,-2,0,1,-1,-1,-2,-3
1528453184450470,-1,-2,-1,-2,0,-2,-2,-1
1528453184458449,-2,-1,-1,-1,1,3,-2,-2
1528453184458449,0,0,-2,0,0,-2,-1,-1
1528453184472457,-2,-1,-2,-1,-1,-1,-1,-1
1528453184472457,-1,-1,-2,-1,-1,0,1,-3
1528453184480391,-1,-1,4,-1,0,-1,-1,-1
1528453184480391,-1,-2,-2,-3,0,0,0,4
1528453184487372,0,0,0,0,-2,0,0,-12
1528453184487372,-1,2,-1,0,-2,0,-1,-2
1528453184503369,-1,0,-3,-3,0,-2,0,-5
1528453184503369,-1,0,0,2,0,1,-3,-1
1528453184518290,-1,0,-2,-1,1,-1,-2,13
1528453184518290,0,-1,-3,0,-1,-1,0,-1
1528453184519287,0,1,6,2,-2,0,-2,-1
1528453184519287,1,-3,0,-1,0,-1,2,-2
1528453184532279,0,0,-3,0,-1,-1,0,-4
1528453184532279,0,-1,-2,0,0,-2,1,-1
1528453184540231,-2,1,0,-2,-1,0,0,2
1528453184540231,-1,0,0,-1,-1,-1,0,-1
1528453184547212,0,-1,1,1,0,0,-2,-1
1528453184547212,0,-1,0,-2,-2,-1,-2,-3
1528453184555217,1,1,-5,-2,0,-2,1,-1
1528453184555217,-1,-1,2,-2,0,0,-1,0
1528453184570153,1,-1,-1,-2,-2,-1,-1,0
1528453184570153,-2,0,0,0,0,-1,0,0
1528453184578130,0,-2,-2,1,0,-2,-1,-1
1528453184578130,0,2,4,1,-2,0,0,-1
1528453184592093,-1,-1,-3,0,1,1,-2,-1
1528453184592093,-1,0,0,-1,-1,-1,-1,0
1528453184601068,0,-3,-3,-2,1,0,0,-1
1528453184601068,-1,-3,-6,1,-1,-1,-2,0
1528453184607054,-1,-1,4,-1,-1,-2,-1,-3
1528453184607054,-1,-2,-3,-1,-1,-1,-2,-1
1528453184615031,1,-3,0,1,1,-1,0,-1
1528453184615031,-2,1,-1,-2,-1,-3,0,-2
1528453184629991,-1,0,-1,-1,-1,1,0,0
1528453184629991,-3,1,-3,0,1,-2,0,-1
1528453184637970,-1,1,0,-1,0,0,-2,1
1528453184637970,-2,-3,-1,-1,-1,0,-2,-2
1528453184660942,0,0,-1,-2,-2,-1,1,-1
1528453184660942,1,-1,2,-1,-1,0,-1,1
1528453184661906,1,-1,-1,1,-1,-2,-1,-1
1528453184661906,0,-1,-3,-1,0,1,0,0
1528453184667889,-2,-2,-3,-2,1,-2,-1,2
1528453184667889,0,0,2,-2,-2,-2,-2,-2
1528453184674871,-2,0,0,-1,-1,0,-1,-1
1528453184674871,-1,-1,1,1,0,0,-1,-1
1528453184690085,2,-2,0,-1,0,1,0,0
1528453184690085,0,-1,-1,-1,-1,-1,0,0
1528453184697810,-2,-1,-1,-2,-2,0,-3,1
1528453184697810,-1,1,-2,-2,0,-2,0,-1
1528453184721745,-2,0,0,1,-1,-1,0,-3
1528453184721745,1,-2,1,1,1,-1,-1,0
1528453184722755,-1,-2,-5,0,-2,-1,-2,0
1528453184722755,0,-1,-4,-1,0,-1,-1,0
1528453184727990,-1,2,5,1,0,-1,-1,0
1528453184727990,-1,-1,0,0,-1,-1,-1,-1
1528453184744496,0,0,-1,-2,-2,0,-1,0
1528453184744496,-1,0,-3,-2,-1,1,0,0
1528453184750484,-2,-1,-2,-1,-2,-2,-1,0
1528453184750484,-1,0,-6,-3,1,0,0,-2
1528453184759459,2,-1,0,-2,0,-2,-1,-1
1528453184759459,1,2,5,2,-1,0,-3,-2
1528453184772667,0,0,-1,1,-1,-1,0,0
1528453184772667,0,-1,-3,-2,-1,0,-1,0
1528453184781699,0,0,-1,1,-2,-3,0,-1
1528453184781699,0,0,1,0,-2,0,0,-1
1528453184794664,0,0,3,0,1,0,-3,-1
1528453184794664,-2,0,-2,0,-2,-2,-3,0
1528453184803640,-2,-1,-3,-2,-1,-1,0,-2
1528453184803640,1,-1,-2,-1,0,-1,0,-2
1528453184809624,0,0,-1,0,1,0,0,0
1528453184809624,-2,-1,0,0,0,1,-1,0
1528453184818601,-1,0,1,-1,0,0,-1,-1
1528453184818601,-1,0,-3,-1,-1,-1,1,0
1528453184832563,-2,-2,-3,-1,-2,0,-1,0
1528453184832563,1,0,4,2,2,-2,1,-1
1528453184841538,0,0,-2,-1,-2,0,0,0
1528453184841538,-1,-1,-2,0,0,1,-1,0
1528453184847523,1,0,-3,0,0,-1,0,-1
1528453184847523,-1,-2,0,1,-1,-1,0,-1
1528453184870461,-2,1,2,0,0,0,-1,-1
1528453184870461,-1,-3,1,-1,-2,-1,0,-1
1528453184871468,-2,0,-1,-2,-1,-2,-3,1
1528453184871468,0,0,-1,-1,-1,0,0,-1
1528453184878862,-2,-2,-2,1,-3,-1,0,1
1528453184878862,1,0,-1,1,0,-1,1,-1
1528453184892921,-1,-1,-2,1,-1,0,0,-1
1528453184892921,0,-1,2,-1,-1,-1,0,-2
1528453184901595,-1,0,0,0,0,-1,0,0
1528453184901595,0,-1,-1,-2,-1,-2,-3,-1
1528453184907617,0,-1,0,-1,0,0,1,-2
1528453184907617,-2,-3,-4,-1,-2,-1,0,0
1528453184923535,1,2,1,0,0,-1,1,-1
1528453184923535,-2,-1,1,-1,-2,-2,0,0
1528453184930517,1,-1,-1,-2,0,-2,-2,-1
1528453184930517,-1,-1,-2,0,-1,0,-1,0
1528453184938497,0,-2,-2,-2,0,-1,0,0
1528453184938497,-2,1,-2,-1,0,-1,-1,-1
1528453184952459,0,-2,2,-1,0,-1,1,0
1528453184952459,-1,2,0,0,-1,1,0,0
1528453184961505,0,-2,0,0,0,0,-2,-1
1528453184961505,0,0,-1,-3,1,-1,0,0
1528453184967457,-2,0,-2,0,-1,1,0,-1
1528453184967457,-2,-2,-1,0,0,-1,1,1
1528453184983905,-2,-2,-2,1,-1,-1,-1,-1
1528453184983905,0,-1,0,-1,0,0,-1,-2
1528453184990698,0,-1,-1,-2,-2,0,-1,-1
1528453184990698,0,0,0,2,0,-3,-1,0
1528453184998977,-1,-2,-1,-1,-1,0,0,-2
1528453184998977,-1,-3,1,-2,-1,-2,0,0
1528453185012954,0,1,0,0,-2,-2,0,0
1528453185012954,0,-2,-3,-2,0,-1,0,-2
1528453185021917,0,2,1,0,1,-1,-1,0
1528453185021917,-1,0,2,2,-2,0,-1,-1
1528453185027902,-1,0,-1,-1,0,-1,-1,0
1528453185027902,-1,-2,1,0,0,-1,-1,0
1528453185043944,0,-2,-1,-2,0,1,-1,-1
1528453185043944,-2,1,0,0,-1,0,-2,0
1528453185050106,0,-2,-3,0,1,-1,-2,-1
1528453185050106,-1,-1,-1,-3,0,0,-2,-1
1528453185058947,-1,-1,-1,0,0,0,-1,-1
1528453185058947,0,1,0,1,1,0,0,0
1528453185073208,-1,-2,-1,-1,0,0,0,-1
1528453185073208,0,-1,-2,0,0,-1,-1,1
1528453185081850,1,0,1,-1,-1,-1,0,-2
1528453185081850,-1,-2,-3,-1,0,-2,-1,0
1528453185094843,-1,0,0,0,-2,-1,0,-1
1528453185094843,0,0,-2,-1,-1,0,0,0
1528453185103939,0,0,-3,0,-1,-1,0,0
1528453185103939,-2,-1,-1,0,-1,0,0,-1
1528453185119004,0,0,-1,-1,-1,0,0,0
1528453185119004,-1,-2,0,-1,-1,1,-2,0
1528453185120736,-1,0,-1,1,0,-1,0,2
1528453185120736,1,-1,1,-1,-1,-1,-2,1
1528453185132030,-2,-3,0,0,-1,-1,-1,-1
1528453185132030,0,1,-1,0,0,-3,0,-1
1528453185148998,-1,-1,-2,-2,0,-1,-1,1
1528453185148998,0,0,0,-1,-2,-1,0,-3
1528453185155134,-1,1,0,-1,-1,0,-1,-2
1528453185155134,0,1,-1,0,-3,-1,0,-1
1528453185164093,-1,0,0,-1,0,-1,0,-1
1528453185164093,0,0,-1,0,0,0,-1,0
1528453185179256,0,0,-1,-1,-2,0,0,0
1528453185179256,-1,1,-1,-2,1,0,0,0
1528453185185280,0,0,-1,-1,0,1,-1,-2
1528453185185280,-2,4,1,0,0,-1,1,-1
1528453185193077,-1,0,0,-1,0,-1,1,0
1528453185193077,2,1,1,0,0,0,-1,0
1528453185201991,0,-2,-2,-2,-2,-2,-1,-1
1528453185201991,0,-2,0,-1,0,-1,-1,0
1528453185224235,0,1,-1,-2,0,0,0,-1
1528453185224235,-2,1,-2,0,-1,0,-1,0
1528453185225931,0,-2,0,-2,-1,-2,-1,-1
1528453185225931,-1,-2,-3,-2,0,0,-1,-1
1528453185239226,0,0,0,0,-2,-2,-1,0
1528453185239226,-1,-3,-1,-2,-1,-1,1,1
1528453185241216,-1,1,-1,0,0,-1,0,1
1528453185241216,-1,-3,0,0,0,-1,0,0
1528453185252855,-1,-1,0,0,-1,0,-1,0
1528453185252855,-1,0,1,-1,0,0,-3,-2
1528453185261865,-1,-2,-2,-1,-1,-1,0,0
1528453185261865,-1,-1,-1,-2,0,1,1,0
1528453185274796,-1,-2,-1,-2,0,-1,0,0
1528453185274796,1,-1,-2,-2,0,-2,2,0
1528453185283773,0,-4,-1,-1,-1,0,-2,0
1528453185283773,0,-1,-2,-2,-2,-2,0,-3
1528453185298785,0,0,-1,-2,1,-1,-1,-1
1528453185298785,-1,3,0,-1,0,-1,-1,0
1528453185300726,1,1,2,0,-1,0,-1,0
1528453185300726,0,-2,-3,-2,-1,1,-2,1
1528453185312694,-1,-2,0,0,1,0,-1,0
1528453185312694,-1,-4,-2,-1,0,-2,-1,-2
1528453185321669,0,0,0,-1,-1,-1,-1,-2
1528453185321669,0,0,0,-1,0,-1,-2,-1
1528453185334635,0,-1,-1,0,-2,-1,-1,0
1528453185334635,-1,0,-1,1,0,0,0,0
1528453185351591,-2,0,-1,-1,-2,0,0,0
1528453185351591,0,-1,0,-2,-2,0,-1,0
1528453185358573,-2,-1,-1,2,0,0,-1,0
1528453185358573,1,-1,0,0,-1,-1,1,1
1528453185360567,-1,0,-2,-2,-1,0,0,0
