timestamp,emg1,emg2,emg3,emg4,emg5,emg6,emg7,emg8
1529289863422587,-3,-4,-5,-14,-45,-34,-17,-6
1529289863422587,-5,-4,-5,-1,-6,11,3,-1
1529289863422587,2,1,1,6,22,-4,2,0
1529289863422587,1,1,1,11,6,12,2,1
1529289863425581,0,-1,1,-3,14,7,1,-1
1529289863425581,-1,2,-5,-11,-19,-30,-18,-7
1529289863425581,-7,-5,-5,-14,-25,-14,3,0
1529289863425581,-4,-4,-4,-7,-4,-3,-1,-3
1529289863432558,0,-3,-5,0,8,1,-2,-2
1529289863432558,0,-4,-4,-5,3,18,-7,-6
1529289863439540,-3,-1,-3,-5,-19,-15,-3,-1
1529289863439540,-8,1,0,-3,-11,-24,-10,-7
1529289863447518,8,1,2,6,15,31,9,5
1529289863447518,3,1,4,6,16,6,15,5
1529289863464472,0,0,1,-7,-15,-5,-7,1
1529289863464472,-5,-6,-6,-9,-20,-41,-24,-11
1529289863467466,2,8,2,-1,-7,21,24,10
1529289863467466,-6,0,2,11,20,22,-5,-14
1529289863492442,-10,-4,1,5,11,-12,2,-11
1529289863492442,-7,4,-1,-2,-9,0,-4,-5
1529289863493447,10,-1,-2,-3,3,-13,-12,2
1529289863493447,4,-2,-2,-8,-32,-8,-3,4
1529289863532293,0,0,-2,4,19,15,5,6
1529289863532293,-2,1,7,10,10,2,-1,-6
1529289863533290,-3,-5,-4,-8,-8,-13,-13,-7
1529289863533290,-1,0,-2,-2,-9,-16,-7,1
1529289863536284,-4,-5,-8,-10,-18,-25,-8,-5
1529289863536284,-8,-4,-5,-3,-9,20,6,-8
1529289863537278,-4,3,0,-2,2,-8,-11,-2
1529289863537278,13,2,3,4,-3,17,12,7
1529289863543262,4,0,3,13,33,23,7,1
1529289863543262,2,1,-1,1,14,0,7,12
1529289863550244,13,-1,-2,-2,-8,12,12,11
1529289863550244,-6,-5,-5,0,1,-9,-5,-5
1529289863560216,-1,3,-3,-11,-18,-27,-11,0
1529289863560216,-8,-1,1,5,0,4,-7,-4
1529289863573182,13,2,2,5,18,13,25,12
1529289863573182,1,2,1,-1,1,-3,-25,-1
1529289863582164,-8,6,10,1,-12,-5,2,-18
1529289863582164,-7,-1,-26,-30,-35,-35,-16,-9
1529289863604101,-4,0,1,7,19,-2,18,4
1529289863604101,4,3,-1,0,9,14,-2,-7
1529289863606094,-3,-6,-1,7,6,24,36,10
1529289863606094,-14,-8,7,9,21,22,-21,-13
1529289863619059,-3,-6,-5,-1,-17,-4,-4,-4
1529289863619059,1,0,-1,2,5,3,0,-2
1529289863625042,4,1,-13,-11,5,-1,-2,0
1529289863625042,-9,3,-7,-4,-16,-18,-24,-12
1529289863641997,-14,-3,-9,-3,-5,-14,-5,3
1529289863641997,27,4,1,-3,-16,-16,0,-1
1529289863642996,-8,-4,-8,-4,-16,-8,-25,-16
1529289863642996,13,-1,-2,4,22,29,48,27
1529289863663941,-9,-1,1,2,8,0,-13,-9
1529289863663941,-12,-8,-8,-8,-29,-20,-15,-12
1529289863665934,6,-5,0,13,24,36,14,16
1529289863665934,13,-1,-3,3,10,5,15,7
1529289863678899,2,-1,-4,6,13,13,-13,-8
1529289863678899,-16,1,9,-2,-6,-12,5,-12
1529289863692862,-13,-7,-10,-6,-23,-25,-22,-12
1529289863692862,1,-5,0,-6,-9,-10,6,5
1529289863701838,-6,-3,-1,-2,0,-3,-16,-8
1529289863701838,-1,-5,-4,2,3,11,15,5
1529289863702836,-5,1,7,5,15,-6,-5,1
1529289863702836,19,-6,2,-10,-18,-27,-24,-4
1529289863723779,3,-5,-10,-10,-22,13,25,9
1529289863723779,-10,-4,-5,6,27,28,20,1
1529289863738740,0,3,8,4,2,-5,-6,3
1529289863738740,-2,3,4,-11,-30,-26,-18,-8
1529289863738740,-4,-1,19,1,4,0,2,-1
1529289863738740,-4,-2,16,21,44,38,5,9
1529289863746718,15,3,4,-4,-10,5,-1,-1
1529289863746718,-4,-7,3,3,15,8,3,-2
1529289863761678,7,-5,4,-5,-26,-26,-17,-6
1529289863761678,-26,-8,-11,-19,-14,-16,0,-7
1529289863763672,2,4,3,13,5,-7,1,2
1529289863763672,1,3,-5,-1,-9,-8,-9,0
1529289863783619,-24,-8,-14,-12,-9,-3,-4,-22
1529289863783619,14,-5,-8,1,11,15,7,0
1529289863785615,1,-13,-12,-12,-22,-20,-18,-5
1529289863785615,-12,-15,-7,10,8,2,27,-2
1529289863797581,9,-2,6,7,6,7,-17,-6
1529289863797581,-17,-6,-7,-7,-9,-3,-1,-2
1529289863806558,-2,-9,-12,-6,11,10,-10,-8
1529289863806558,1,-1,-6,-2,-2,-3,-5,-4
1529289863821518,13,-2,-8,1,3,0,16,17
1529289863821518,-4,-10,-5,-13,-23,-27,-15,-5
1529289863823513,-1,-20,2,0,-7,-5,0,3
1529289863823513,-5,-9,8,13,28,29,5,-8
1529289863843459,0,-11,9,4,4,1,-1,5
1529289863843459,11,-31,-10,-5,-8,-1,2,8
1529289863851437,-3,-15,-4,-25,-25,-30,-7,-9
1529289863851437,-8,-42,17,8,1,-4,-6,-4
1529289863857422,2,-33,-5,5,7,7,-1,-2
1529289863857422,8,-26,-3,4,1,-7,8,6
1529289863866444,-6,-15,1,2,9,28,6,4
1529289863866444,2,-12,-1,-17,-27,-33,-7,-2
1529289863881405,-8,-33,5,15,25,22,2,-1
1529289863881405,6,-41,21,12,15,17,11,3
1529289863883354,-14,-51,4,-13,-19,-20,-6,-9
1529289863883354,-13,-26,4,1,-4,-12,-19,-9
1529289863904297,22,-14,-12,-9,2,14,22,14
1529289863904297,-9,0,-1,-10,-17,-11,-3,-6
1529289863905294,15,-2,12,15,14,3,-1,1
1529289863905294,0,-12,-15,-5,2,14,5,3
1529289863917297,-5,-14,-2,-2,2,-12,-1,0
1529289863917297,4,3,-10,-13,-19,-27,-25,-6
1529289863927236,-2,21,-5,2,-9,1,5,5
1529289863927236,7,37,3,5,19,36,18,18
1529289863941200,0,56,-3,-2,-5,-12,-3,-2
1529289863941200,-7,60,5,0,-4,-8,-1,2
1529289863943192,21,46,6,-4,-9,-26,-11,1
1529289863943192,0,40,-17,-10,-17,3,6,1
1529289863971118,-7,39,27,12,26,22,7,-1
1529289863971118,10,27,16,6,2,-1,-20,-6
1529289863973113,-3,19,5,-8,-7,2,21,6
1529289863973113,-6,20,4,5,-2,-11,-4,3
1529289863978136,4,15,1,-10,-15,-37,-40,-18
1529289863978136,-42,10,1,0,5,24,6,2
1529289863987076,34,8,9,24,37,32,27,-5
1529289863987076,28,9,-5,4,6,3,-6,1
1529289864002036,-12,3,8,-10,-25,-5,5,-2
1529289864002036,-1,2,-1,-2,6,-18,7,8
1529289864003034,-15,4,-13,-19,-29,-25,-37,-11
1529289864003034,-12,1,4,0,0,5,4,4
1529289864024022,-6,-1,-22,-21,-50,-94,-16,-13
1529289864024022,13,3,-1,11,21,60,17,11
1529289864026017,41,1,7,23,59,63,15,13
1529289864026017,-16,0,-5,-2,-12,-11,9,6
1529289864037983,-13,1,-4,9,23,27,-7,0
1529289864037983,3,2,-8,-31,-73,-125,-53,-28
1529289864046919,69,0,2,8,19,59,0,34
1529289864046919,12,-1,-3,-6,-7,-16,-15,26
1529289864061876,11,1,-5,8,7,57,30,20
1529289864061876,6,-1,-4,6,17,-8,-10,-18
1529289864062911,-15,6,3,0,19,43,11,0
1529289864062911,13,3,-4,-8,-20,-82,-71,-39
1529289864091823,-3,18,-1,-8,-15,29,19,22
1529289864091823,-16,-10,3,10,27,59,39,12
1529289864092820,-33,2,3,4,-3,-22,3,0
1529289864092820,-6,0,3,-11,-4,13,1,-16
1529289864097781,-9,-1,-9,-14,-32,-48,-17,-13
1529289864097781,2,3,-2,2,-5,9,1,-1
1529289864106756,-27,-5,-9,-11,-16,-37,-8,-14
1529289864106756,-11,-9,4,17,22,39,28,3
1529289864121717,12,-4,20,7,12,4,-2,-6
1529289864121717,5,-5,-19,-20,-1,13,4,6
1529289864127701,-25,-12,2,-7,-26,-27,-4,-7
1529289864127701,3,8,-9,-7,-6,-37,-8,-2
1529289864143658,1,-5,-1,18,27,49,12,0
1529289864143658,-4,-9,7,-10,-7,-12,-14,-8
1529289864145652,-20,-8,-14,-4,-2,-7,3,-4
1529289864145652,-6,-11,3,6,4,23,5,-8
1529289864157622,-2,-4,-11,-3,-6,-17,-4,-6
1529289864157622,-4,-15,-22,0,3,-12,-13,-5
1529289864166596,-4,14,-5,-7,-11,12,14,0
1529289864166596,2,-1,-4,2,0,28,27,18
1529289864181602,-6,-4,-24,-17,-16,-17,-18,-13
1529289864181602,5,10,3,6,-8,-12,-9,-1
1529289864183600,-8,-15,5,7,5,2,4,1
1529289864183600,-2,2,-3,9,19,11,0,-7
1529289864211520,-3,-9,0,13,23,20,6,-1
1529289864211520,3,6,9,-1,-16,-8,4,5
1529289864213530,-12,-9,2,-5,-12,-12,-2,-6
1529289864213530,0,9,11,0,3,1,3,-1
1529289864217498,-1,-11,-3,1,10,10,2,0
1529289864217498,10,-12,5,10,9,2,0,13
1529289864226436,-6,4,-2,-6,-19,-21,-6,-6
1529289864226436,-8,-8,-1,-9,-9,-2,-4,-4
1529289864241428,3,7,2,1,5,1,-13,-13
1529289864241428,6,4,3,8,13,12,10,1
1529289864243392,-1,-3,-5,-8,-7,-29,-4,5
1529289864243392,-4,-3,-4,-6,-7,35,4,-14
1529289864264385,-10,-14,7,7,8,2,-5,-2
1529289864264385,5,14,-7,-7,0,1,-2,-5
1529289864265363,20,5,-8,1,0,-10,-13,1
1529289864265363,-9,1,1,-2,0,-7,11,5
1529289864286308,8,3,4,-3,-16,-16,-1,11
1529289864286308,-3,7,1,3,6,-2,2,-3
1529289864288271,2,10,-5,-8,-9,-10,-14,-2
1529289864288271,0,2,-7,-10,-22,-12,-12,-3
1529289864301417,-1,12,-4,-5,10,2,5,1
1529289864301417,-6,-1,6,16,17,16,17,9
1529289864308392,-3,8,-3,15,24,14,-11,-1
1529289864308392,-1,-10,-1,-4,-9,-27,-12,2
1529289864324200,-9,-1,-1,-10,-9,-6,-13,-21
1529289864324200,-4,8,1,-5,-12,-20,-13,-5
1529289864326169,-37,-8,-8,1,5,48,32,-3
1529289864326169,9,-9,-2,1,1,-15,-8,-3
1529289864338178,-1,-4,-5,-7,-10,-16,-4,2
1529289864338178,2,4,1,-4,-6,0,0,0
1529289864347452,-4,5,4,-5,-18,-28,-14,-11
1529289864347452,12,10,14,3,8,7,6,4
1529289864361478,0,-3,2,-3,1,2,5,1
1529289864361478,-10,-11,-1,-2,-1,-1,-14,-10
1529289864369191,-34,-12,-3,-7,-6,0,3,-4
1529289864369191,-23,-7,6,7,11,12,0,-4
1529289864384448,20,-10,52,8,12,27,19,6
1529289864384448,16,-5,12,-8,-5,-22,-12,-14
1529289864386145,16,-4,-2,-8,-15,-12,-5,21
1529289864386145,0,1,-34,-11,-2,-4,-3,-2
1529289864398272,-24,-2,-18,-13,-29,-61,-36,-18
1529289864398272,-5,-12,-33,15,21,57,25,6
1529289864407090,1,-6,-11,-4,2,-22,-13,-20
1529289864407090,37,6,-6,7,4,23,36,23
1529289864421052,-7,-18,2,22,45,44,1,21
1529289864421052,-13,-10,0,-17,-22,-23,-7,2
1529289864428341,19,2,5,2,-2,-24,-8,-10
1529289864428341,-13,-10,21,-4,-13,-32,-49,-22
1529289864444549,11,-7,2,-6,-8,9,32,30
1529289864444549,27,2,8,-1,-6,14,5,12
1529289864446391,-5,2,-6,1,8,-4,-4,-6
1529289864446391,-9,-4,-1,-6,-8,-6,-14,-14
1529289864466360,3,5,-5,-9,-16,-27,-10,-14
1529289864466360,-6,-10,-6,-3,7,4,5,0
1529289864468325,14,2,11,0,-5,11,10,12
1529289864468325,2,11,22,16,35,41,18,8
1529289864481590,-3,-1,24,7,9,2,5,-5
1529289864481590,-19,0,13,-13,-28,-32,-8,-3
1529289864488447,9,16,4,-6,-12,-40,-8,11
1529289864488447,-13,-13,-17,-8,-20,6,-24,-7
1529289864502316,36,8,-18,20,50,60,39,48
1529289864502316,-24,1,-15,5,-7,-13,11,-21
1529289864511292,37,17,-17,-28,-46,-19,-7,7
1529289864511292,-50,-20,1,5,37,69,18,-30
1529289864526671,23,8,6,20,23,48,9,1
1529289864526671,61,-6,5,22,48,47,33,89
1529289864528475,24,-18,-5,-5,-31,9,-1,-6
1529289864528475,14,9,6,12,33,43,15,17
1529289864549023,4,17,-13,-8,-9,49,55,57
1529289864549023,-65,-9,-3,1,6,-7,-12,-26
1529289864550848,-20,-13,-7,1,4,-1,-15,-38
1529289864550848,17,7,2,-25,-52,-15,50,51
1529289864563176,-4,16,1,-1,-3,-38,-13,-10
1529289864563176,29,15,-1,8,21,-19,-13,-7
1529289864571976,-5,-22,-1,-4,0,13,27,25
1529289864571976,-6,28,-18,-67,-107,-128,-85,-47
1529289864586774,-15,-31,-11,9,62,53,14,-14
1529289864586774,-2,11,4,7,-21,3,1,8
1529289864588984,1,-68,21,88,127,85,21,-10
1529289864588984,5,58,-6,-13,-26,-108,-42,-16
1529289864608715,30,37,-12,-26,-88,-3,-28,-18
1529289864608715,17,19,14,5,30,0,-19,-11
1529289864610709,-74,15,-23,-50,-58,-34,14,3
1529289864610709,0,-10,3,30,28,44,14,0
1529289864622677,-22,-19,-3,-12,-8,-26,-27,-53
1529289864622677,2,-57,0,17,12,48,36,-11
1529289864631653,4,-10,23,5,25,-6,-12,9
1529289864631653,-4,-35,0,-7,-20,-46,-10,-10
1529289864646613,0,24,10,-15,-35,-121,-48,-16
1529289864646613,-1,21,-8,-31,-46,-25,-45,-23
1529289864648608,3,9,-4,9,8,17,53,31
1529289864648608,17,7,-2,33,56,53,36,30
1529289864669725,-1,-38,-19,-4,-6,-23,-53,-33
1529289864669725,18,-14,-9,16,35,25,30,6
1529289864670551,21,25,-16,-44,-73,-106,-52,-8
1529289864670551,24,-10,-10,-4,4,73,24,24
1529289864682517,-33,-21,-1,33,31,-1,28,4
1529289864682517,-7,18,-14,-35,-54,-106,-39,-18
1529289864699509,-27,-18,8,29,55,127,5,-29
1529289864699509,2,-25,-8,9,8,-7,7,9
1529289864707452,-10,6,-9,-21,-25,-10,-13,-15
1529289864707452,-17,-13,-12,-15,-23,1,-7,-10
1529289864712437,11,1,-1,-16,-29,-4,-4,0
1529289864712437,-18,-19,2,10,28,29,-6,-14
1529289864729392,2,-19,-5,-5,-5,37,24,17
1529289864729392,-6,1,-2,-2,-9,3,-5,-10
1529289864730391,-15,-29,2,18,32,33,6,-1
1529289864730391,2,-16,-1,-11,-12,3,0,-7
1529289864742406,-18,13,-1,-1,-22,-12,-5,-9
1529289864742406,-1,2,6,2,15,35,9,9
1529289864751380,-1,-14,-2,-11,-15,-20,-21,-16
1529289864751380,-2,-4,-1,-2,-6,-2,10,1
1529289864766341,6,2,4,20,13,18,11,7
1529289864766341,-12,-10,-3,-8,8,12,-2,-3
1529289864780303,3,1,-10,-13,-7,-3,-3,0
1529289864780303,-1,-7,2,9,8,6,-2,-8
1529289864789279,-5,8,8,7,-3,-1,1,5
1529289864789279,-3,-13,9,3,-3,8,-3,-2
1529289864791226,-8,-3,-17,-19,-11,-5,-3,-7
1529289864791226,4,-1,4,13,13,18,7,1
1529289864803195,-6,-7,-11,-2,-10,-5,-13,-11
1529289864803195,-6,-20,-11,-20,-12,9,-5,-7
1529289864818215,8,-11,14,18,16,17,15,10
1529289864818215,-9,-12,-20,-3,1,12,5,-3
1529289864826180,-1,28,-5,-26,-5,9,1,-5
1529289864826180,1,28,3,9,4,6,4,2
1529289864833155,1,-3,0,-4,-6,-3,-8,-10
1529289864833155,-2,-2,-3,0,-9,-20,-9,-7
1529289864849123,-1,7,-1,22,10,-12,-2,0
1529289864849123,-4,-34,-17,-26,-1,-7,2,2
1529289864851114,7,-20,12,11,0,-19,-2,3
1529289864851114,2,-72,1,0,-8,-31,-11,-2
1529289864863036,-4,-27,-17,-16,-1,-9,-2,3
1529289864863036,-8,16,8,6,-6,-25,0,4
1529289864872058,-7,-42,8,15,6,-15,1,5
1529289864872058,-4,2,4,-10,-2,-15,-5,0
1529289864886022,-3,-39,10,-11,-22,-45,-21,-3
1529289864886022,-7,-46,-11,2,-13,-41,-20,-12
1529289864892991,2,11,-5,0,16,23,13,8
1529289864892991,8,13,23,14,16,5,12,11
1529289864908959,7,13,12,9,7,6,5,6
1529289864908959,-3,-22,-4,-5,-7,-10,-3,0
1529289864910908,-6,13,-13,-25,-25,-35,-22,-10
1529289864910908,7,1,7,5,2,6,0,10
1529289864922929,-2,20,-27,-16,-4,-4,2,-1
1529289864922929,4,28,29,14,5,3,-1,0
1529289864931888,-1,40,-35,-18,-2,0,2,3
1529289864931888,-2,48,17,9,-6,-8,-7,-1
1529289864945861,15,42,15,-6,-2,-2,7,10
1529289864945861,1,41,-11,7,13,23,16,7
1529289864959824,-9,15,7,-11,-5,-5,-8,-6
1529289864959824,0,45,22,4,1,-7,-1,25
1529289864968800,13,-5,-3,-8,-12,-14,-10,-13
1529289864968800,-2,-4,15,0,-1,9,5,1
1529289864970747,15,2,5,13,0,-3,2,6
1529289864970747,12,-31,-34,-19,-4,-3,1,2
1529289864982762,-8,-13,15,6,0,2,1,3
1529289864982762,1,-20,23,2,1,1,-2,-2
1529289864991692,-8,-27,42,-11,0,-6,-7,-9
1529289864991692,-8,-20,41,-20,-16,-6,-3,-14
1529289865005702,1,-6,47,12,3,2,0,2
1529289865005702,-6,35,8,-14,-4,-3,-4,-7
1529289865012682,5,37,2,-4,-5,-4,-1,4
1529289865012682,-4,19,-29,8,0,-1,-3,-8
1529289865028640,-8,3,-16,-3,10,14,10,2
1529289865028640,0,-3,-36,-4,3,5,-3,1
1529289865030587,1,15,-18,18,6,-2,-3,10
1529289865030587,-12,14,-55,-12,-1,4,8,-20
1529289865051968,-15,1,-41,2,-5,-4,-4,-8
1529289865051968,36,9,-23,6,2,0,1,22
1529289865052781,3,6,-43,-7,-10,-23,-30,-15
1529289865052781,-3,-22,-49,-22,0,13,5,-1
1529289865065773,29,72,6,14,1,2,8,10
1529289865065773,-19,103,-13,0,5,9,6,-4
1529289865073906,3,127,-18,-14,-10,-7,-7,-12
1529289865073906,-4,119,26,10,1,-10,-13,-1
1529289865089682,-12,-62,30,-10,-5,-2,0,1
1529289865089682,-5,-115,82,2,-2,-4,-6,-6
1529289865090680,-1,-128,96,18,11,13,12,9
1529289865090680,-8,-128,68,2,-1,-2,-7,-9
1529289865110712,-10,-123,-13,-19,-2,4,4,0
1529289865110712,3,-114,-35,9,-1,-8,-3,-1
1529289865111683,-2,-107,-43,13,8,9,5,0
1529289865111683,5,-90,-70,-10,-7,-4,-1,3
1529289865125708,-3,-72,-48,3,7,8,5,-1
1529289865125708,3,-55,-24,14,1,-4,-1,10
1529289865134007,-20,-47,-42,-2,4,14,19,-1
1529289865134007,34,-32,-10,2,0,-3,-6,15
1529289865149267,17,-27,-16,-15,-10,-9,-6,12
1529289865149267,-20,-21,-5,4,-8,-8,-8,-41
1529289865149267,-5,-12,4,0,-3,-2,5,8
1529289865149267,19,-12,18,6,10,11,6,9
1529289865171525,-12,-10,-10,-11,-8,-4,-4,-6
1529289865171525,7,-5,3,-7,-5,-6,-10,1
1529289865172443,-4,-5,19,4,-3,-5,-5,-5
1529289865172443,-23,-5,26,-5,-6,-4,2,-4
1529289865185411,33,-4,33,3,7,1,-9,2
1529289865185411,-13,0,25,10,8,10,14,5
1529289865193391,2,-19,11,14,-5,1,-4,-5
1529289865193391,-9,-41,-23,-19,-9,-7,-1,-2
1529289865208532,-6,-48,-4,9,4,8,3,0
1529289865208532,1,-70,-28,-8,7,5,5,16
1529289865209348,11,-88,-13,4,4,6,6,-3
1529289865209348,-8,-91,-14,-3,-2,-3,-6,-7
1529289865231093,-15,-67,15,16,-4,-8,-6,-18
1529289865231093,-12,-44,-35,-29,-11,-6,-5,-12
1529289865231751,28,-46,-6,-10,-10,-13,-28,-26
1529289865231751,-36,-50,4,11,2,0,3,-30
1529289865245712,-31,-48,3,-5,0,1,-12,-18
1529289865245712,13,-45,16,-5,-4,-1,18,14
1529289865253691,3,-5,20,2,-2,3,5,6
1529289865253691,-8,11,19,1,-1,-4,-7,-3
1529289865268836,2,8,20,11,1,1,4,-9
1529289865268836,7,-9,18,-4,-1,-2,-4,2
1529289865269823,-1,-48,-8,-7,-7,-7,-3,5
1529289865269823,16,22,38,16,2,5,7,10
1529289865290897,-25,-29,-36,-21,6,8,6,5
1529289865290897,9,-27,4,11,-3,-6,-3,25
1529289865291591,3,-113,-6,-2,5,4,6,-8
1529289865291591,-29,-128,-3,-2,-7,-5,-7,-10
1529289865305889,12,-27,-6,1,-5,-8,-3,7
1529289865305889,10,72,-19,-5,-1,4,-2,4
1529289865314056,-34,127,2,1,2,-2,2,-14
1529289865314056,-2,127,-7,-3,0,-4,-3,24
1529289865329015,44,125,-2,0,-3,-1,2,29
1529289865329015,-19,98,-8,-4,2,7,-3,-51
1529289865329906,14,122,2,4,-1,-2,1,16
1529289865329906,-19,88,11,18,6,3,8,0
1529289865359305,20,70,-32,-40,-12,-9,-9,-4
1529289865359305,1,55,2,9,1,3,-4,-1
1529289865359976,6,67,10,-3,1,1,5,9
1529289865359976,3,26,-10,3,4,1,-5,-7
1529289865364962,-4,25,12,0,-7,-7,-9,-6
1529289865364962,-15,16,-7,1,-3,-5,-2,-6
1529289865373117,-4,3,-14,-6,-3,-2,-4,8
1529289865373117,-6,22,-8,-6,2,3,5,2
1529289865388649,-23,9,-9,-10,-1,1,2,-6
1529289865388649,50,22,25,19,9,7,4,19
1529289865389301,-20,11,12,5,5,2,-1,-13
1529289865389301,-6,16,-3,-10,-9,-10,-13,-13
1529289865411609,2,11,8,1,-10,-12,-17,-17
1529289865411609,-75,-18,-4,-4,-6,-6,-11,-13
1529289865411609,3,12,6,7,6,4,-1,11
1529289865411609,-40,5,-18,-8,1,2,2,1
1529289865425384,44,23,0,7,11,13,15,8
1529289865425384,0,-22,-11,-1,-11,-9,-3,-5
1529289865434220,-12,-28,-13,-2,-7,-11,-8,-2
1529289865434220,-19,-5,-6,-18,-10,-2,-2,-29
1529289865449139,-3,19,36,5,5,1,-3,4
1529289865449139,-4,2,49,0,9,7,3,-5
1529289865449139,-17,-15,27,0,-1,1,0,-3
1529289865449139,56,7,8,6,0,-6,-1,27
1529289865472078,-3,-11,-33,3,-8,-10,-2,5
1529289865472078,17,22,-20,1,1,0,2,5
1529289865473078,-1,3,-51,-30,-11,-6,-9,-10
1529289865473078,6,-6,-20,4,-1,-2,-4,-12
1529289865485044,-1,3,4,-5,-4,-3,2,0
1529289865485044,0,-9,-26,3,-1,-4,-5,2
1529289865501002,-3,5,10,6,6,3,7,7
1529289865501002,0,-10,4,3,1,1,-2,-8
1529289865517146,-23,-6,8,2,1,6,9,-4
1529289865517146,-16,-22,13,15,10,13,7,-2
1529289865518095,-10,13,4,4,4,-5,-24,-1
1529289865518095,36,7,6,-1,1,5,15,2
1529289865531453,-17,-23,1,-1,0,0,-9,-23
1529289865531453,-3,-6,-6,-10,-10,-5,-8,-8
1529289865532158,36,-2,-11,-14,-14,-10,0,27
1529289865532158,-7,5,13,6,-2,-4,-8,3
1529289865545357,-16,-16,-3,6,6,-1,1,-7
1529289865545357,11,-2,-3,-7,-2,1,6,10
1529289865561320,-10,-2,5,2,-3,-1,-5,-17
1529289865561320,-2,-7,-5,-10,-3,-8,-3,0
1529289865568811,2,-6,18,25,2,4,2,1
1529289865568811,-2,8,-19,-17,-3,-2,-2,-2
1529289865569475,2,-2,-13,-13,4,6,6,-4
1529289865569475,1,-17,-6,9,-8,-5,-4,-1
1529289865590861,-1,0,5,2,1,1,2,8
1529289865590861,1,-10,5,-1,-2,-5,-6,-3
1529289865591827,-7,5,1,-3,-2,-3,7,6
1529289865591827,1,2,-5,-5,3,3,-11,-21
1529289865605861,-12,-7,-2,-2,1,-6,4,-5
1529289865605861,6,-4,5,2,0,-1,-9,0
1529289865613661,-22,-13,3,-1,0,6,8,-14
1529289865613661,21,-1,5,1,3,1,-1,11
1529289865628820,-9,-1,3,0,-4,-4,-4,-5
1529289865628820,3,5,0,-8,-5,-2,0,-7
1529289865636165,-8,-12,7,8,-5,-5,-5,-7
1529289865636165,-3,-1,-2,-1,0,1,4,7
1529289865651624,-3,0,6,-1,1,-2,-1,1
1529289865651624,-1,10,-17,-4,0,3,3,-3
1529289865651624,-3,1,9,0,-1,1,-7,-17
1529289865651624,-1,1,4,12,6,2,4,3
1529289865665377,1,-2,-16,-7,1,6,3,5
1529289865665377,-2,9,11,10,3,2,1,3
1529289865673489,7,6,-21,-12,-9,-9,-4,-2
1529289865673489,14,10,3,-2,2,3,2,10
1529289865688675,3,-8,-5,-6,-3,-3,-3,1
1529289865688675,1,4,7,-2,-3,-5,-5,4
1529289865689492,26,4,5,4,-2,-3,0,8
1529289865689492,-2,-6,-12,-8,-3,0,3,4
1529289865710657,-15,4,0,-1,-4,-5,-8,2
1529289865710657,-17,-9,0,-1,-4,-3,-2,-9
1529289865711654,6,-13,1,2,6,8,1,3
1529289865711654,-9,3,6,-1,-5,-5,-1,4
1529289865725619,0,-5,-1,-3,3,5,3,-2
1529289865725619,10,-11,-17,-6,-7,-8,-6,3
1529289865733912,-2,-5,7,2,1,1,4,2
1529289865733912,-6,-5,-13,-6,-1,-6,-6,-4
1529289865749656,-3,2,-1,-1,-1,-2,1,1
1529289865749656,-1,-5,4,2,1,-3,0,-1
1529289865749656,0,-10,-5,-2,-1,-1,-2,-1
1529289865749656,1,5,6,2,-4,-1,-1,-4
1529289865771016,-5,4,-3,4,2,1,-2,-8
1529289865771016,36,6,-9,-11,-7,-10,-8,19
1529289865771986,-15,5,14,10,5,10,10,3
1529289865771986,-4,6,9,5,8,8,1,-3
1529289865794876,1,6,-23,-10,-3,-5,-4,-11
1529289865794876,-3,11,0,-4,0,8,4,6
1529289865794876,-2,4,3,9,-2,-5,-1,1
1529289865794876,0,-1,-1,0,4,4,4,3
1529289865808844,4,13,6,3,-1,-2,-4,4
1529289865808844,-13,4,0,-7,-8,-9,-9,-11
1529289865808844,2,-4,-1,-4,-1,2,3,0
1529289865808844,-5,4,-3,0,1,1,-2,-7
1529289865830949,-1,-5,1,-1,-1,-5,-4,-2
1529289865830949,-7,-3,-5,0,2,5,1,-7
1529289865831780,1,-3,4,3,2,1,-4,-10
1529289865831780,16,2,-1,-1,-5,-6,-2,4
1529289865853722,-8,2,-7,-3,-2,1,-3,13
1529289865853722,3,-7,3,3,0,-3,0,-2
1529289865854719,38,6,-1,0,-1,-3,-1,19
1529289865854719,-22,-6,0,-3,0,-1,-1,-10
1529289865868681,2,-4,-2,0,-2,0,-2,4
1529289865868681,-9,-6,0,1,-1,0,4,-2
1529289865869679,-21,-9,-7,-5,-2,-4,-5,-10
1529289865869679,-6,0,2,-1,1,2,8,13
1529289865890869,10,-10,2,-2,-5,-4,-2,-1
1529289865890869,-6,-10,1,4,8,6,9,2
1529289865891864,-2,-7,-5,0,0,1,-1,-2
1529289865891864,-3,-6,2,-1,-2,0,-6,-9
1529289865915246,-9,-5,1,-1,-4,1,0,3
1529289865915246,-6,12,3,1,-2,-4,-4,-18
1529289865916201,14,-1,-7,-5,-3,-5,0,7
1529289865916201,-2,-7,-7,-6,-2,3,2,-1
1529289865928342,35,2,6,7,8,6,7,17
1529289865928342,-29,-9,-2,2,3,2,1,-5
1529289865929160,-19,-10,5,2,-1,0,0,-9
1529289865929160,6,11,5,3,-1,-4,-1,9
1529289865951282,4,-6,-1,-5,-4,-3,-4,-7
1529289865951282,-1,10,-8,-8,-8,-8,-8,3
1529289865952283,-5,-4,-1,6,5,6,10,-12
1529289865952283,1,-2,-8,-2,-4,-2,-3,10
1529289865974518,-12,-16,-3,-1,0,2,1,-9
1529289865974518,-1,-19,0,1,1,1,2,1
1529289865975500,-4,-3,-4,-4,-4,-4,-3,3
1529289865975500,9,-11,-2,-2,-1,-2,-4,-3
1529289865988638,-2,-12,-2,0,-1,-2,0,5
1529289865988638,3,-24,0,1,0,1,3,1
1529289865989305,-1,-13,-2,-3,-3,-1,-2,2
1529289865989305,-3,-5,-4,-2,-4,-4,-6,-11
1529289866010564,-15,-15,2,2,1,3,1,-5
1529289866010564,-4,-13,-1,1,2,2,5,-2
1529289866011382,-36,-1,-2,0,1,4,-2,7
1529289866011382,19,107,-2,-2,-3,-5,-11,-10
1529289866034745,-2,126,-1,-5,-4,-5,-3,-4
1529289866034745,-20,114,-4,-3,-3,1,3,0
1529289866034745,23,-13,-1,0,0,3,0,11
1529289866034745,-31,-106,0,3,4,3,10,-21
1529289866048896,4,-128,0,-3,0,-3,-10,-5
1529289866048896,-4,-128,-3,-3,-3,0,4,-1
1529289866048896,11,-96,0,2,1,2,-2,2
1529289866048896,-4,-111,-4,-1,-3,-2,2,0
1529289866071831,2,-86,-1,0,-1,-2,0,-12
1529289866071831,5,-82,3,-3,-3,-7,-10,-4
1529289866071831,-7,-48,-3,-6,-6,-6,0,-11
1529289866071831,-8,-53,3,-1,-2,1,-5,-10
1529289866093811,-11,-42,1,1,0,-2,-1,-1
1529289866093811,17,-33,0,-2,-3,0,-3,8
1529289866094770,-11,-11,-3,-5,-5,-4,-3,-5
1529289866094770,2,-15,-3,2,6,5,1,5
1529289866108735,-5,-11,-5,-3,-2,1,-2,0
1529289866108735,7,-14,-1,1,1,-1,1,-1
1529289866109734,1,4,-2,0,-3,-2,0,-3
1529289866109734,1,-6,-2,-5,-6,-10,-12,-3
1529289866131017,-7,-5,-3,1,1,2,6,-5
1529289866131017,6,-8,-1,2,2,2,-2,2
1529289866131672,-2,2,-4,0,0,-1,3,-4
1529289866131672,8,-3,-6,-3,-4,-1,0,14
1529289866154060,12,-3,-3,-1,-1,-2,-1,-1
1529289866154060,-1,-3,-3,-3,-3,-3,7,7
1529289866155024,-12,4,3,0,-1,0,-1,-1
1529289866155024,5,-3,4,-1,0,2,0,5
1529289866168986,-1,-1,2,-1,-3,-6,-4,-1
1529289866168986,1,-3,5,0,1,1,3,3
1529289866168986,7,2,17,-1,-1,-5,-9,-1
1529289866168986,0,-2,25,2,-1,-1,5,-2
1529289866191340,-2,-2,22,3,-2,-1,-3,0
1529289866191340,1,-2,23,-8,0,-4,-8,-8
1529289866192305,-1,1,16,-3,1,1,3,-1
1529289866192305,0,-1,15,-3,-2,-5,-10,-8
1529289866214494,-2,-1,16,2,3,2,-3,3
1529289866214494,2,-2,4,0,-1,1,15,-1
1529289866215494,-10,-41,-9,-3,-2,-3,-9,-10
1529289866215494,4,-63,-19,-4,-7,-3,12,4
1529289866228347,9,-60,-11,3,5,5,8,5
1529289866228347,5,-61,-17,3,2,3,-5,-3
1529289866229275,-2,-37,-24,-4,-4,-3,-9,-2
1529289866229275,-6,-26,-27,1,-1,-1,2,2
1529289866251216,-8,-23,-28,-5,-3,-6,-7,-7
1529289866251216,-5,-20,-19,0,-1,-2,-4,-2
1529289866252396,8,-5,-13,2,1,1,3,1
1529289866252396,4,-1,-11,-1,-1,-2,-5,-1
1529289866274493,-5,6,-15,-5,-3,-2,2,1
1529289866274493,0,10,-8,0,-1,-2,-7,-3
1529289866275153,1,9,-4,0,-2,0,3,2
1529289866275153,0,13,0,0,-1,-1,0,-1
1529289866288120,-4,8,2,-3,-3,-3,-3,-1
1529289866288120,-1,6,3,0,-2,-2,-2,-1
1529289866289147,1,9,2,-1,-1,-3,0,-3
1529289866289147,-1,9,7,1,1,1,2,0
1529289866311056,-1,7,1,-1,0,-1,1,-1
1529289866311056,0,-2,4,-1,-2,-3,-1,1
1529289866312052,1,2,5,-2,-2,-4,5,4
1529289866312052,1,4,5,-1,0,-5,2,7
1529289866334321,-1,-3,1,-3,-4,-5,7,10
1529289866334321,0,1,2,0,-2,-7,5,12
1529289866334994,0,6,1,2,-1,-4,11,13
1529289866334994,-1,8,-3,0,-2,1,9,10
1529289866349098,0,11,-3,0,-2,3,6,2
1529289866349098,0,15,-3,0,0,5,0,-5
1529289866349098,1,17,-3,-2,-1,5,-4,-11
1529289866349098,-2,15,-1,0,2,3,-12,-19
1529289866370927,-3,12,2,-1,-1,1,-18,-19
1529289866370927,-2,4,1,-2,0,-3,-23,-20
1529289866371894,-2,-1,0,-1,1,-9,-23,-18
1529289866371894,-4,5,2,-2,-4,-7,-21,-17
1529289866393992,-2,8,2,-2,0,4,-15,-15
1529289866393992,-2,8,-3,-1,-2,10,-9,-10
1529289866394993,-1,13,-2,-1,-2,12,-6,-7
1529289866394993,-1,9,-1,3,-1,5,1,-1
1529289866409171,0,8,-3,-5,-3,0,4,3
1529289866409171,0,8,-1,0,-2,2,4,5
1529289866409171,1,5,-2,1,1,0,7,6
1529289866409171,1,3,-4,1,-1,-1,5,8
1529289866432071,1,2,-2,2,-1,-4,7,6
1529289866432071,0,-3,-3,-1,-1,-4,7,6
1529289866439154,0,-3,1,1,1,-6,4,4
1529289866439154,2,-1,0,-3,0,-3,3,3
1529289866454359,0,-1,-2,0,0,-2,1,3
1529289866454359,0,1,-1,1,-1,-4,2,3
1529289866455355,1,0,-3,0,-2,-2,2,2
1529289866455355,-1,-4,-2,-3,-1,0,0,1
1529289866468319,-1,0,0,1,0,-3,2,0
1529289866468319,-1,-1,-2,-2,-1,0,0,-1
1529289866469313,-1,0,-1,-1,-1,-1,0,0
1529289866469313,0,1,0,-1,-1,3,-1,0
1529289866491258,0,-1,0,-1,0,6,0,1
1529289866491258,-1,0,1,-2,0,4,-2,-1
1529289866492256,-1,2,0,-1,-3,-1,0,-1
1529289866492256,-2,-1,-1,-2,0,-4,0,-2
1529289866514532,-1,-3,-3,-1,-3,-5,-2,1
1529289866514532,-1,-1,-1,-1,0,-3,-1,-2
1529289866515548,-1,0,-1,-1,-2,-1,-1,1
1529289866515548,-1,-2,1,-1,-2,-2,0,-1
1529289866528508,-2,0,-1,-2,-3,-4,-1,1
1529289866528508,-1,0,-1,-1,-2,-1,0,0
1529289866529326,0,0,-1,0,-1,-1,-3,-1
1529289866529326,-1,0,-1,-1,-1,-1,-7,-2
1529289866551447,-3,1,-1,-1,-2,0,5,-1
1529289866551447,-1,-2,0,-1,-3,-1,-1,-1
1529289866552426,1,0,0,-1,-1,-1,-1,-3
1529289866552426,0,-2,-3,-1,-2,-3,0,-2
1529289866574423,-1,-3,0,-1,-1,-2,-3,0
1529289866574423,-1,2,-1,-2,-2,-3,-2,-2
1529289866575421,-2,1,-1,-1,-1,0,2,0
1529289866575421,-1,1,0,2,-1,-2,-3,-4
1529289866588448,-7,-3,-3,-4,-4,-5,-3,-4
1529289866588448,3,0,1,0,-1,-1,-1,-1
1529289866596628,0,-2,1,-2,-2,-3,-2,-2
1529289866596628,-1,0,0,0,-1,-1,1,0
1529289866611444,0,-1,-1,-1,-2,1,-1,-3
1529289866611444,-2,-2,-3,0,1,-2,1,0
1529289866611444,-3,-2,-2,0,-2,-1,-2,-1
1529289866611444,-1,-1,-1,-2,-2,0,1,-1
1529289866634852,3,0,-1,-1,0,0,-1,0
1529289866634852,-2,-1,-1,-1,-2,-2,-3,0
1529289866634852,-2,-3,-1,0,1,0,0,-1
1529289866634852,-1,1,-2,-2,0,0,1,-1
1529289866648057,2,1,-1,0,-2,0,-3,-1
1529289866648057,-2,-1,-2,-1,-1,-2,-2,-1
1529289866656388,0,-2,-1,-1,-1,-1,1,0
1529289866656388,0,-2,-1,-2,1,0,-1,-1
1529289866671008,-2,-2,1,0,-2,-2,-1,-2
1529289866671008,-1,-1,-1,-2,-1,-2,1,-1
1529289866671993,-1,0,0,0,-1,0,-1,-2
1529289866671993,-1,-2,-1,-1,-1,-1,-1,0
1529289866694119,-1,-2,0,0,0,-1,-1,0
1529289866694119,-1,-1,-2,0,-2,-2,-2,0
1529289866694935,-1,1,-3,-2,-2,-2,-1,-1
1529289866694935,-1,-1,-2,-1,-2,-1,-1,-1
1529289866708477,-1,-1,1,0,0,1,-1,-2
1529289866708477,-1,-2,-1,-1,-3,0,0,0
1529289866716437,1,-1,-1,0,0,-1,-1,-2
1529289866716437,1,-1,-2,-1,-1,-1,-1,0
1529289866731084,-2,-2,-1,-3,-1,-2,-2,-1
1529289866731084,-1,-1,0,-1,0,-1,-2,-3
1529289866732082,-2,-1,-1,-1,0,0,-1,-1
1529289866732082,-1,-3,-3,-3,0,0,-1,1
1529289866754022,-1,0,-1,1,-2,-2,0,-1
1529289866754022,0,0,-1,0,-1,-1,-1,-1
1529289866755019,-1,2,-2,-2,-2,-2,1,-1
1529289866755019,-1,-1,0,-1,0,0,-1,-1
1529289866768305,0,0,-1,-1,0,0,0,0
1529289866768305,-1,0,0,-2,-1,-2,1,-1
1529289866776962,-1,0,-1,0,-2,-3,-4,-1
1529289866776962,-1,-3,-2,2,0,-2,0,-2
1529289866789926,1,-1,-4,-1,-1,-1,-2,0
1529289866789926,-2,-1,-1,0,-2,-1,-1,-1
1529289866798905,-2,-2,0,-1,-2,0,0,-1
1529289866798905,0,-1,1,-2,0,0,-1,-2
1529289866814280,-1,-1,-2,-1,-2,-1,-2,0
1529289866814280,0,0,-2,-2,-1,-2,1,-1
1529289866816087,0,2,0,-2,-2,0,-1,0
1529289866816087,-1,5,-2,-1,0,-1,-1,0
1529289866828237,-2,0,-2,-1,-2,-2,-1,-1
1529289866828237,-1,-1,0,-2,-2,-2,0,-2
1529289866837031,-1,-4,-1,-1,0,-1,-1,-2
1529289866837031,-2,-4,-2,-2,-2,-1,1,-1
1529289866850274,-2,-2,0,0,-1,-1,2,0
1529289866850274,-1,0,-3,-1,0,0,-1,-2
1529289866859237,1,-1,-1,-1,-1,-1,-2,0
1529289866859237,0,-1,1,-3,0,-1,0,1
1529289866874478,-1,0,1,0,1,-1,0,-2
1529289866874478,-2,-1,-1,0,-1,-1,-2,1
1529289866876158,-1,0,-3,-2,-1,-2,-1,1
1529289866876158,-2,0,-3,-1,-3,0,1,1
1529289866888128,-1,-2,-1,-2,-1,-3,1,0
1529289866888128,0,-2,-1,1,-1,-3,2,-1
1529289866897101,-1,-4,-1,0,-1,-3,4,1
1529289866897101,1,-3,-1,-1,-1,-3,0,0
1529289866910113,0,-2,-1,0,-2,0,-2,-2
1529289866910113,-1,2,0,-1,-2,2,-2,-2
1529289866919041,0,0,1,0,-2,0,-4,-4
1529289866919041,-2,-1,-1,0,-1,1,-6,-3
1529289866934001,0,1,-3,-2,-2,0,-7,-3
1529289866934001,-1,1,0,-3,-2,0,-7,-5
1529289866935995,0,0,0,-2,-1,1,-6,-5
1529289866935995,-3,2,0,0,-1,1,-6,-3
1529289866957418,0,0,0,0,-1,0,-4,-1
1529289866957418,-3,1,0,-2,-1,-1,-2,-1
1529289866958310,-2,-1,-1,-1,-2,1,0,-2
1529289866958310,1,-1,1,-1,-1,-1,0,0
