timestamp,emg1,emg2,emg3,emg4,emg5,emg6,emg7,emg8
1528439868737188,0,0,-2,0,-1,-1,1,-1
1528439868737188,-1,-1,-2,-1,-2,0,1,-1
1528439868740217,0,-1,-1,-2,-1,0,-1,-1
1528439868740217,-1,-1,-1,-2,0,-1,0,1
1528439868746162,-2,1,1,1,0,-1,-2,-1
1528439868746162,1,1,0,-1,0,0,-1,-1
1528439868753144,-2,1,0,-1,-3,0,1,-1
1528439868753144,-1,-1,0,1,-1,1,0,0
1528439868761126,-1,-1,0,0,-1,2,-1,1
1528439868761126,-2,-2,1,0,-1,-2,-2,-1
1528439868785059,0,-1,0,-1,-1,0,0,-1
1528439868785059,-1,0,0,-2,2,-1,-1,-1
1528439868791043,-1,-2,0,-2,-1,0,0,-1
1528439868791043,-2,1,-1,-1,-2,0,-1,0
1528439868806021,0,0,-2,-1,0,-2,0,-1
1528439868806021,0,0,-1,-2,-3,-1,-1,0
1528439868812984,1,-2,-3,-1,-1,0,-1,-1
1528439868812984,-2,-1,-1,-1,1,-1,-1,0
1528439868835922,1,0,1,-2,0,-1,0,0
1528439868835922,0,0,0,-2,0,-1,1,0
1528439868850883,-1,0,0,-1,0,0,-2,-1
1528439868850883,-1,0,-1,0,-2,0,-2,-1
1528439868857864,-2,-1,-1,0,-2,-1,0,-1
1528439868857864,-1,-1,0,1,0,-1,0,0
1528439868865843,-1,-1,0,-2,-1,-2,0,-1
1528439868865843,-2,0,-3,0,1,-1,0,0
1528439868872824,-1,0,-1,-2,-1,-1,1,0
1528439868872824,-1,-1,0,1,-1,0,-1,0
1528439868890781,0,-1,-1,2,-1,1,-1,0
1528439868890781,0,2,-1,0,0,0,-1,0
1528439868902744,0,-2,-2,-1,0,-1,-2,0
1528439868902744,-2,-2,-1,0,1,-1,-1,-2
1528439868910724,-3,-1,0,-2,-1,-1,-2,-1
1528439868910724,-1,-2,-1,-2,-1,-2,0,-1
1528439868917705,0,1,-2,-1,0,-2,1,-2
1528439868917705,-1,-1,-2,-2,-1,-1,-1,0
1528439868925684,0,0,0,-1,1,-1,-2,0
1528439868925684,-2,-1,-1,1,-2,-1,-1,-1
1528439868949618,-1,-2,-3,-1,0,1,-1,-1
1528439868949618,-1,-1,0,1,0,-1,0,-2
1528439868963619,0,-1,-1,0,-2,1,0,-2
1528439868963619,-1,0,1,-1,-2,-1,-1,-1
1528439868970563,-1,-2,-1,1,0,-2,0,1
1528439868970563,1,0,-3,0,-1,-1,1,0
1528439868985523,-1,0,0,-1,1,0,-2,1
1528439868985523,0,-1,1,-1,0,0,-1,-1
1528439869002518,0,0,1,-1,-1,1,1,-1
1528439869002518,0,0,1,-1,1,-3,-1,0
1528439869015443,0,-1,-2,-1,-1,0,-2,-1
1528439869015443,-1,0,-2,0,-2,-1,-2,1
1528439869023435,0,-1,-3,-1,-1,-2,-1,-2
1528439869023435,0,0,1,-1,-1,0,0,-1
1528439869038418,0,-1,-1,0,-1,-1,-1,0
1528439869038418,-1,0,-2,2,0,0,0,0
1528439869053370,-2,-2,-1,-1,-2,0,-1,1
1528439869053370,0,-1,0,-1,-1,0,-1,0
1528439869068302,1,-2,1,-2,0,1,-1,1
1528439869068302,0,1,1,0,0,-1,-1,-2
1528439869075335,0,1,2,-1,-1,0,-1,-1
1528439869075335,-2,0,0,1,-1,0,-1,0
1528439869083314,-1,2,-2,-1,0,0,0,-1
1528439869083314,0,-1,0,-1,0,-1,1,1
1528439869098262,-1,-1,-2,-1,0,1,0,-2
1528439869098262,0,0,-2,-2,1,-1,0,-2
1528439869105203,0,-1,0,0,1,0,0,0
1528439869105203,0,-1,-2,0,-1,-1,-3,-1
1528439869121168,0,-2,0,0,-2,0,1,-1
1528439869121168,-2,-1,-2,0,-1,-2,1,0
1528439869136121,-2,-1,0,-1,-1,-1,-1,1
1528439869136121,-1,-1,0,0,-1,-1,-1,-2
1528439869143103,-1,0,1,1,-1,-3,1,-3
1528439869143103,0,-1,1,0,0,1,-1,-1
1528439869158062,1,-1,-3,0,1,-3,0,0
1528439869158062,-2,-1,-1,-1,-1,-2,-1,1
1528439869166080,-1,-1,-2,-1,0,-3,-1,1
1528439869166080,-2,-2,0,-1,-1,-2,-3,-2
1528439869188034,-2,-1,0,-1,0,0,0,0
1528439869188034,0,0,0,0,0,-1,0,-2
1528439869202942,-1,-2,-2,0,-1,-1,0,-2
1528439869202942,-2,-2,-1,0,-1,-1,-1,0
1528439869225934,0,0,-1,-1,0,1,-1,-1
1528439869225934,-1,-1,-1,0,0,-1,1,2
1528439869240889,1,-2,0,-1,-1,0,-1,-1
1528439869240889,1,-2,-1,0,-1,-1,1,-1
1528439869247823,1,0,-1,2,0,-3,-2,-1
1528439869247823,0,0,-1,-3,0,-1,0,-1
1528439869255854,-1,-1,-1,-1,-1,-1,-2,-1
1528439869255854,0,-1,1,0,-1,0,0,-2
1528439869270762,-2,-1,-1,-1,-1,-1,-1,-1
1528439869270762,0,0,-2,-1,-1,-2,0,0
1528439869277743,-1,1,-2,0,-1,0,-2,0
1528439869277743,-2,-1,0,0,-1,-3,-1,0
1528439869285721,1,-1,0,1,0,-1,-2,0
1528439869285721,0,-1,-3,-1,-3,0,0,-1
1528439869300717,-2,-1,0,-1,1,-1,0,0
1528439869300717,0,0,1,0,0,0,-1,0
1528439869315679,0,-1,1,0,0,1,-2,-1
1528439869315679,-1,-1,-1,0,-1,-1,-2,0
1528439869323619,-1,0,-1,-2,-1,-1,1,-1
1528439869323619,-1,-1,-2,-2,-1,-1,-1,0
1528439869338582,0,-1,1,0,-1,-1,-1,-1
1528439869338582,-1,1,0,0,-2,-1,0,-1
1528439869345562,0,0,-1,2,-1,0,1,0
1528439869345562,-1,1,0,-1,0,0,-1,0
1528439869360523,2,-1,-1,-1,0,-1,0,0
1528439869360523,-1,-2,2,0,-1,0,0,-1
1528439869375520,-1,-1,1,1,-2,-1,0,-2
1528439869375520,-2,-2,0,0,-1,0,-1,-1
1528439869383496,0,0,-2,-2,-2,0,0,0
1528439869383496,-1,-1,0,-1,-2,-1,-1,1
1528439869398420,-2,0,-1,-1,0,-1,0,1
1528439869398420,1,-1,0,-3,-2,0,-1,-2
1528439869405400,0,0,0,1,-1,0,-2,-2
1528439869405400,-1,-2,0,0,-1,-1,-1,-1
1528439869420361,-1,-4,0,-2,0,-2,0,0
1528439869420361,0,-1,-1,0,-1,-1,-2,-2
1528439869435322,1,-2,-2,-1,0,1,-1,-1
1528439869435322,1,-2,-2,-1,0,0,0,0
1528439869443301,0,0,0,0,0,1,-1,-1
1528439869443301,0,0,-1,0,-1,-2,0,-1
1528439869458261,0,1,0,-1,-1,-1,-1,-1
1528439869458261,1,2,-2,-1,-1,0,-1,-1
1528439869465285,1,1,-2,-1,0,0,-2,0
1528439869465285,0,0,-1,-1,1,0,-1,0
1528439869480247,-3,0,0,0,-3,0,-2,-1
1528439869480247,0,0,-2,-2,2,0,-1,-1
1528439869503193,0,1,1,0,-1,0,1,-2
1528439869503193,-1,1,-1,-1,1,-2,-2,-1
1528439869511118,0,1,-1,-1,-2,-1,-1,-1
1528439869511118,-2,-1,-1,1,-2,0,1,-1
1528439869526107,-1,0,0,1,1,-1,-1,-1
1528439869526107,-3,-2,-2,-1,1,1,1,-1
1528439869533072,-1,-1,0,-1,-1,0,0,0
1528439869533072,-2,-1,-1,-1,-1,0,0,0
1528439869548075,0,-1,0,-2,-1,-1,-1,-2
1528439869548075,-1,0,1,0,0,0,0,-3
1528439869570992,-1,1,-1,1,0,-1,-1,-2
1528439869570992,1,0,-1,0,-2,-1,-1,0
1528439869585922,-1,0,0,-1,-1,0,-1,-1
1528439869585922,0,-2,-2,-2,-1,0,-1,-1
1528439869592927,-1,-1,0,-2,0,0,0,2
1528439869592927,-1,-1,1,-1,-2,-1,-2,-1
1528439869607912,0,-1,1,0,0,-2,0,-3
1528439869607912,-1,1,-2,1,1,0,-2,-2
1528439869622873,1,-2,-3,1,-2,0,2,0
1528439869622873,2,-2,-1,-2,-1,0,1,0
1528439869637780,0,-1,1,-1,0,-1,-2,-3
1528439869637780,0,-2,1,1,-1,1,0,-1
1528439869645811,-3,1,1,-2,-1,1,-2,-1
1528439869645811,-1,-2,-1,-1,-2,-1,-1,0
1528439869660718,0,0,1,-2,-1,0,-2,-1
1528439869660718,0,-1,-1,-2,1,-1,0,0
1528439869676223,-2,0,0,0,-1,0,-1,-2
1528439869676223,1,-1,1,0,0,-1,0,-1
1528439869683972,-1,-1,-1,0,-2,0,-1,-1
1528439869683972,-1,0,-1,0,1,-1,-2,0
1528439869698247,-1,1,-1,-3,-2,-1,-3,0
1528439869698247,-1,-1,-1,-1,0,0,-1,0
1528439869706473,-1,-2,-2,0,-1,-2,0,-1
1528439869706473,-1,-1,-1,-1,0,-2,-1,-1
1528439869721454,0,0,0,0,-1,-2,2,0
1528439869721454,0,0,-1,0,-2,-1,-2,1
1528439869735933,-1,-1,-3,1,1,0,0,1
1528439869735933,0,-2,-4,-1,1,0,-1,0
1528439869743866,2,-1,0,-2,0,-2,-1,-2
1528439869743866,0,1,-1,-1,0,-1,1,-2
1528439869758559,1,3,0,-1,-2,0,-1,-1
1528439869758559,-2,3,-2,-2,1,-1,0,0
1528439869765852,2,-1,-1,0,0,1,-2,2
1528439869765852,0,-1,1,1,-2,-2,0,1
1528439869789018,0,0,-1,-2,0,-2,-1,-2
1528439869789018,-2,0,-1,-1,-2,0,-1,-1
1528439869803971,-1,-1,-1,1,0,0,-1,-2
1528439869803971,1,-1,-1,-2,0,-2,-3,0
1528439869810371,-1,0,-2,-2,-1,-1,0,0
1528439869810371,0,0,0,0,0,0,-1,0
1528439869825682,0,-1,-1,0,0,0,-1,-1
1528439869825682,-1,1,2,-1,-1,-1,2,-1
1528439869840948,0,0,0,-1,0,0,0,-2
1528439869840948,0,-2,0,0,0,0,-1,-2
1528439869863801,1,-2,-1,-1,-1,-2,1,-2
1528439869863801,-1,-1,-2,0,-2,0,-1,-1
1528439869871087,0,0,-2,1,-1,1,0,-2
1528439869871087,-1,-1,-2,0,0,-1,-2,-2
1528439869893832,-1,2,1,0,-2,-1,0,0
1528439869893832,0,1,0,-2,0,-1,0,-2
1528439869900742,-1,0,0,1,-1,-1,-1,0
1528439869900742,-1,-1,0,-1,-2,-1,-1,-1
1528439869907722,1,-1,-2,0,-1,0,0,-1
1528439869907722,-1,-2,0,-2,1,0,0,0
1528439869922682,-1,1,-1,-2,1,0,-1,0
1528439869922682,-2,0,1,-1,0,0,1,1
1528439869930927,-1,0,0,-2,-2,0,-1,1
1528439869930927,0,0,-1,-1,-2,-2,-1,1
1528439869946131,-2,-2,0,0,0,-1,-2,-3
1528439869946131,0,-1,-3,1,0,0,0,-1
1528439869960492,-1,0,0,-3,-1,-2,0,-1
1528439869960492,-1,0,0,0,-1,2,-2,-1
1528439869976340,-1,0,0,-1,0,-1,-2,0
1528439869976340,-1,0,0,1,0,0,0,-2
1528439869983869,1,0,-1,-1,-2,1,-1,-1
1528439869983869,-1,0,-1,0,0,-2,1,0
1528439869998833,-1,0,1,-1,0,0,0,-1
1528439869998833,0,0,1,0,-1,-2,-1,0
1528439870006382,0,0,-3,-1,0,-1,2,0
1528439870006382,-1,0,0,0,-1,-3,-1,-2
1528439870021074,0,-1,0,-1,0,1,-1,0
1528439870021074,-1,-1,0,-1,-2,-2,-1,-2
1528439870043012,0,-2,0,-1,0,0,-1,-1
1528439870043012,0,0,-1,-2,-3,1,-1,-1
1528439870058785,-1,-1,-1,-1,-2,-1,-2,-1
1528439870058785,0,-1,-1,0,-1,1,0,0
1528439870073475,0,-1,0,0,0,-2,-1,0
1528439870073475,-1,1,-3,-2,0,-1,1,-1
1528439870080705,-2,-1,-2,0,-2,-1,0,-1
1528439870080705,0,-1,-2,-2,-2,-2,-1,-1
1528439870088786,0,-3,-1,-1,-2,-1,0,-1
1528439870088786,0,-1,-3,-1,-1,0,0,0
1528439870104002,-2,-1,-1,-2,0,-2,1,0
1528439870104002,1,-1,-2,-1,0,-1,-1,0
1528439870126037,0,-2,-1,0,-2,0,-1,-2
1528439870126037,-1,-1,-3,0,-1,-1,-3,-1
1528439870133884,0,-1,0,0,0,-2,0,0
1528439870133884,-1,-1,-1,0,0,0,0,-2
1528439870148341,-1,-2,-1,-3,0,1,-1,-1
1528439870148341,1,-1,-1,-2,0,0,0,1
1528439870163558,-1,0,-1,1,1,0,0,-1
1528439870163558,1,-2,1,-1,0,-1,-1,-1
1528439870178590,-1,0,0,-1,-1,0,0,-1
1528439870178590,0,-1,1,-1,0,-1,0,-1
1528439870185860,-1,-1,-1,-1,-1,-1,1,0
1528439870185860,0,-1,-1,-1,0,-1,-1,-2
1528439870201415,-1,1,-1,1,-1,0,-2,0
1528439870201415,-2,0,2,-1,0,-1,1,-2
1528439870208185,-2,-1,-1,0,-1,0,-1,-1
1528439870208185,1,-2,0,-1,-1,2,0,0
1528439870223355,-2,0,0,0,0,0,0,1
1528439870223355,1,-1,0,1,1,-2,0,0
1528439870238458,1,-1,-2,-1,-1,-1,0,0
1528439870238458,0,1,-3,0,-2,-1,-1,1
1528439870246030,0,0,-1,0,-2,0,-2,-1
1528439870246030,-1,1,-1,0,-2,1,-2,0
1528439870260438,-2,-1,1,0,-1,0,-2,1
1528439870260438,-2,-1,0,0,-1,1,-1,-1
1528439870268486,2,-1,-1,1,0,-2,0,0
1528439870268486,0,0,-1,-1,-1,-2,0,-1
1528439870283221,-1,-1,-2,-1,-1,-2,0,0
1528439870283221,-1,-1,0,-2,0,-2,2,0
1528439870298217,0,-1,-2,-1,-1,0,0,0
1528439870298217,0,0,-1,-2,0,0,0,-1
1528439870306196,-1,1,-1,-2,-1,-2,-1,-1
1528439870306196,0,-1,0,1,-1,-3,-1,-2
1528439870320195,0,0,0,-1,-1,0,0,-1
1528439870320195,0,0,-1,0,-1,0,-2,0
1528439870328174,-2,-1,-1,1,1,-2,0,0
1528439870328174,-1,-2,-1,-1,-2,-2,0,-1
1528439870343376,0,-1,0,0,-1,-1,-1,-2
1528439870343376,0,-1,-1,1,-2,-1,-1,0
1528439870350639,0,-1,-1,-2,-1,0,0,1
1528439870350639,-1,0,-3,0,-1,-1,0,-1
1528439870358683,-1,-1,0,-1,-2,0,0,-1
1528439870358683,-1,-1,-3,-2,0,1,0,-1
1528439870366045,0,-2,-1,0,-1,0,-2,-2
1528439870366045,0,1,0,0,0,-1,-1,0
1528439870380981,-2,-1,-1,0,1,-1,-2,-1
1528439870380981,-2,-1,-2,0,-1,-1,-1,0
1528439870387723,-1,-1,-2,0,0,1,0,1
1528439870387723,0,-1,0,0,0,0,-1,-1
1528439870403680,-1,0,-1,-1,-1,1,1,0
1528439870403680,0,0,0,-1,0,-2,-1,-2
1528439870410689,-2,0,0,-1,0,-1,1,0
1528439870410689,-1,0,0,-2,-1,-2,0,0
1528439870418785,0,1,1,-1,0,-1,-3,-1
1528439870418785,1,0,-1,0,-2,0,1,1
1528439870425880,-1,1,0,1,0,0,0,-2
1528439870425880,0,0,-1,0,0,0,0,0
1528439870440600,2,-2,-2,-1,0,-1,1,0
1528439870440600,-2,-1,-2,-1,-1,-1,-2,-2
1528439870455804,0,-2,-1,-1,-2,-1,-1,0
1528439870455804,-1,-2,-1,0,-1,-1,-1,-1
1528439870470771,-2,-1,-2,-2,0,0,1,-1
1528439870470771,0,-1,0,-1,0,-1,-1,-1
1528439870478541,-1,0,-2,1,-1,-1,2,1
1528439870478541,-1,-2,0,-1,1,0,0,-1
1528439870485484,-1,-2,-1,0,-1,-1,-1,-1
1528439870485484,1,-1,1,-1,-1,-1,1,0
1528439870493459,1,-1,0,0,-2,-1,-1,-1
1528439870493459,-1,-1,-1,-1,-2,0,-1,-1
1528439870508664,-2,1,-1,-1,-1,-2,-2,-3
1528439870508664,0,0,1,1,-1,-1,1,-2
1528439870523636,-1,0,1,-1,0,-2,-2,-2
1528439870523636,-2,0,0,-2,-2,-1,-1,-1
1528439870531407,0,0,0,1,-1,0,-1,0
1528439870531407,1,1,-1,0,0,1,-2,1
1528439870538848,-1,1,-1,0,-2,0,-3,1
1528439870538848,-1,-1,-1,-1,-1,-1,-1,-2
1528439870545628,-1,-2,0,-1,0,1,-2,0
1528439870545628,0,0,0,-1,-3,-1,0,0
1528439870561102,0,0,1,-1,-2,-1,-2,0
1528439870561102,0,0,0,-1,-1,-1,0,0
1528439870568117,-1,-1,-1,-1,0,-1,0,-1
1528439870568117,-1,-1,-1,0,-1,-1,-1,0
1528439870583227,0,-1,-1,-1,-1,-1,-1,-1
1528439870583227,0,0,-1,0,-1,0,1,1
1528439870590571,-2,-2,-1,-1,0,-1,-1,0
1528439870590571,-2,-1,-2,0,-1,-1,0,-1
1528439870598563,-3,0,-2,0,0,0,0,-1
1528439870598563,-1,-1,-2,0,0,-1,-1,0
1528439870613388,-2,0,-2,-2,0,-1,0,-2
1528439870613388,1,-1,0,-1,0,0,0,1
1528439870628677,-1,0,0,-1,-1,0,0,0
1528439870628677,0,-1,1,-1,0,0,1,-1
1528439870636501,-1,0,-1,0,-1,-1,-2,-2
1528439870636501,-1,0,0,-1,0,-1,-2,-2
1528439870651083,1,-2,1,0,1,-1,-1,-1
1528439870651083,-2,0,-2,-1,0,-1,-2,-2
1528439870658386,1,-2,-1,-3,-1,1,0,1
1528439870658386,-1,-3,-2,0,-1,1,0,0
1528439870666078,-1,0,-2,-1,0,-1,0,0
1528439870666078,-1,-1,-1,1,-1,-1,0,0
1528439870680987,1,-1,0,0,0,0,0,0
1528439870680987,-1,0,0,-1,-2,-1,0,0
1528439870687967,1,0,0,0,-1,0,0,1
1528439870687967,-1,0,-1,-1,-1,-2,0,-1
1528439870702965,0,-1,0,0,0,-1,1,-1
1528439870702965,0,-2,1,-1,0,0,-1,0
1528439870710944,-1,-1,-1,-1,0,0,0,-1
1528439870710944,0,0,0,-1,0,-1,-1,1
1528439870717940,0,-3,-2,-1,-1,-1,2,0
1528439870717940,-1,-1,-1,-1,-1,-2,0,0
1528439870725920,-1,-2,1,-1,0,0,-1,0
1528439870725920,0,0,0,0,-1,0,-2,-1
1528439870747864,-2,1,0,-1,0,-1,-3,0
1528439870747864,-3,0,0,-2,-2,0,-1,-1
1528439870755840,-1,-1,-2,-1,0,-1,0,-3
1528439870755840,0,0,-1,-1,0,0,-2,0
1528439870770801,0,-1,-2,-2,-2,-2,-1,-2
