timestamp,emg1,emg2,emg3,emg4,emg5,emg6,emg7,emg8
1528451412302922,2,0,-20,11,-5,8,3,3
1528451412302922,-3,-9,-25,-20,3,8,1,0
1528451412310901,5,16,70,32,5,-4,1,1
1528451412310901,-7,-15,-13,-8,-15,-8,-3,-4
1528451412325861,-5,-14,-29,-30,-7,-4,-5,-4
1528451412325861,3,14,87,65,23,9,3,1
1528451412334852,0,0,-34,-5,0,-3,1,0
1528451412334852,-1,9,-8,-17,-10,4,-4,-1
1528451412356778,-6,-19,-4,13,5,2,-1,-3
1528451412356778,2,-3,-98,-73,-19,-23,-8,0
1528451412358773,-3,5,87,34,-3,12,6,-3
1528451412358773,0,-9,-59,1,9,1,2,1
1528451412370741,2,11,77,-15,-1,-4,-2,-1
1528451412370741,-6,-18,-25,36,2,4,-3,-4
1528451412379717,-2,-4,-69,-47,-8,-14,-16,-1
1528451412379717,0,12,77,31,-26,-15,-10,-3
1528451412394678,1,0,-47,-10,11,24,13,1
1528451412394678,6,14,-9,33,9,8,16,2
1528451412396671,-5,-14,58,-8,9,11,4,0
1528451412396671,-1,-2,-13,-15,14,-20,-18,4
1528451412417616,-3,1,-16,-24,-5,6,23,-5
1528451412417616,0,2,13,27,17,19,1,1
1528451412418613,-5,-9,-26,-18,-1,-13,-36,-6
1528451412418613,1,3,-20,10,-13,13,26,2
1528451412439568,-1,3,3,4,-25,-40,-11,-1
1528451412439568,-4,-5,13,-9,0,-1,16,0
1528451412441551,-5,-11,-19,12,8,4,-30,-6
1528451412441551,-1,-8,-9,-17,-6,-12,1,-1
1528451412454519,3,3,-15,0,-8,-4,-18,0
1528451412454519,0,-3,10,-21,-26,-4,3,-3
1528451412456513,-5,0,-24,-12,-1,5,15,4
1528451412456513,-2,-15,-4,6,11,18,-4,-3
1528451412477455,5,5,25,33,41,14,9,10
1528451412477455,5,2,15,0,2,-7,-22,-6
1528451412478453,-16,-12,-15,-3,-3,-8,11,-2
1528451412478453,-9,-5,-14,-22,-14,-5,-3,-7
1528451412499407,-10,3,14,9,-22,-16,-19,-6
1528451412499407,7,-3,6,-10,1,1,-17,2
1528451412501392,7,12,-19,6,6,5,18,3
1528451412501392,-11,-4,4,6,7,3,18,0
1528451412514358,3,-5,-8,-7,1,8,-21,-1
1528451412514358,-12,-3,5,-6,-26,-25,14,-4
1528451412516369,11,8,-1,-3,-9,10,-4,-2
1528451412516369,9,5,6,18,30,-1,-39,4
1528451412537296,6,5,9,2,1,12,-22,1
1528451412537296,-4,-1,-1,-4,6,-7,-21,-8
1528451412539291,1,-1,-5,-7,-16,9,17,0
1528451412539291,-1,-5,-2,-6,-8,-13,-6,-4
1528451412551261,-5,-7,-5,5,3,-2,29,0
1528451412551261,0,-6,-1,-1,-1,2,-21,-2
1528451412567215,-1,2,-4,-4,0,-11,-7,-1
1528451412567215,1,8,17,2,-6,4,8,0
1528451412575194,0,-6,-5,0,5,6,29,-1
1528451412575194,-5,3,-24,-3,-2,-11,5,-1
1528451412576192,-1,-7,29,4,3,19,29,0
1528451412576192,2,3,12,-5,-6,3,-9,0
1528451412597170,6,16,21,24,1,-6,22,1
1528451412597170,-5,-6,16,1,7,15,-24,2
1528451412599131,-5,-6,0,-46,-22,-16,-1,-5
1528451412599131,3,-4,-26,-9,4,2,-6,-1
1528451412611099,1,-1,-7,21,12,-3,-1,-2
1528451412611099,0,23,97,63,5,4,27,6
1528451412620075,4,-2,-57,-19,0,2,-1,-8
1528451412620075,-9,-18,52,7,-13,-6,1,0
1528451412635036,-1,4,4,-8,-12,-14,-21,-4
1528451412635036,-6,-14,78,18,3,3,10,-10
1528451412636034,-1,1,-16,-11,-3,-7,-12,2
1528451412636034,3,13,-37,12,-5,-3,2,1
1528451412656976,-2,-31,-73,-32,14,5,6,1
1528451412656976,1,2,51,-37,-11,-3,-4,6
1528451412658971,1,25,97,23,-2,-4,-5,-4
1528451412658971,5,8,51,65,29,21,14,3
1528451412670940,1,-1,-14,-40,-18,-11,-12,1
1528451412670940,4,-1,-128,-47,0,3,6,11
1528451412679916,-15,-25,54,8,-15,-15,-11,-31
1528451412679916,3,11,-53,7,8,3,8,-3
1528451412694908,4,5,15,1,-1,1,-4,3
1528451412694908,0,3,-42,-30,-8,-8,-1,-4
1528451412695907,-9,-23,-86,-43,-13,-4,-2,4
1528451412695907,-3,-1,35,-2,-19,-15,-8,-2
1528451412716816,-4,-2,6,22,1,10,-1,-3
1528451412716816,1,-4,3,1,25,4,8,4
1528451412718811,4,4,-74,4,3,-4,-2,7
1528451412718811,-5,-8,58,-11,-13,9,2,-4
1528451412730781,-2,-2,-43,-25,17,-5,-18,0
1528451412730781,1,4,26,25,7,13,18,-7
1528451412739756,5,5,24,35,13,10,4,8
1528451412739756,1,-5,-35,-36,-4,-16,-14,-1
1528451412754714,0,7,49,9,-26,-19,-8,-4
1528451412754714,-7,-3,-12,12,-7,17,16,-1
1528451412756709,1,2,8,12,15,-1,1,3
1528451412756709,-1,-2,-30,-22,-9,-2,3,-1
1528451412776656,-4,2,18,10,-6,-10,-8,-7
1528451412776656,6,-2,-4,1,-9,-11,4,11
1528451412778651,4,-1,-12,-10,-2,16,8,19
1528451412778651,-4,-1,-5,-5,6,9,-3,-39
1528451412790619,-10,5,16,15,5,-3,-1,4
1528451412790619,-12,-12,-13,-7,-6,-19,-20,-21
1528451412799598,24,2,12,3,-7,-4,8,9
1528451412799598,-18,1,-8,3,2,-2,5,14
1528451412814555,-10,-8,8,0,-5,6,11,2
1528451412814555,-5,-1,-7,-6,-4,0,-14,-24
1528451412816549,4,6,7,15,19,3,6,6
1528451412816549,8,-3,-5,-3,9,-1,-13,2
1528451412837496,3,-4,-2,-5,-2,10,15,4
1528451412837496,1,-1,7,-5,-16,-15,-9,11
1528451412838494,-8,-5,-2,2,-7,-10,-12,-13
1528451412838494,8,5,-4,-8,-4,0,24,4
1528451412850459,-1,1,15,6,-2,0,-2,1
1528451412850459,2,-1,-5,3,4,2,-6,-2
1528451412859436,1,8,7,6,11,5,6,-5
1528451412859436,-6,-2,83,-2,1,-3,-3,3
1528451412874394,3,0,-14,13,-2,-3,-7,-2
1528451412874394,5,10,-23,2,-2,-4,-3,0
1528451412876390,4,19,104,8,2,1,2,10
1528451412876390,10,9,-4,5,16,6,4,16
1528451412897333,-21,-36,-19,-6,-21,-11,-15,-27
1528451412897333,0,-4,35,-3,-6,-1,-1,-4
1528451412898331,-5,-2,-67,-12,1,1,-2,-1
1528451412898331,1,14,33,45,-11,-7,-9,2
1528451412910299,9,13,-35,-6,14,6,6,3
1528451412910299,-2,-1,-32,16,4,2,0,2
1528451412919275,-5,-11,-75,-16,-21,-13,-4,-1
1528451412919275,1,-2,7,-13,6,1,0,-2
1528451412934234,3,2,-10,-27,6,3,1,0
1528451412934234,-4,-2,24,-16,-2,-1,-3,-3
1528451412936230,-2,-1,-13,27,-3,-7,-10,-5
1528451412936230,-3,-11,-49,-43,-17,-17,-9,-5
1528451412957174,4,10,39,15,-1,1,7,-2
1528451412957174,1,-6,-13,-1,12,21,39,7
1528451412959170,-3,-7,-6,-1,1,-3,-30,-7
1528451412959170,-1,1,-7,14,-3,-2,26,-1
1528451412971136,0,-1,1,-12,-6,-16,-54,3
1528451412971136,-1,0,-7,-4,-7,-7,1,-1
1528451412980114,-2,-1,20,9,2,-3,7,2
1528451412980114,-3,-7,-24,-11,3,20,28,10
1528451412995072,-2,1,10,-4,-7,-6,3,-18
1528451412995072,-6,-6,-21,-10,-10,-12,-25,-10
1528451412996083,-1,2,11,-1,0,1,-6,-5
1528451412996083,0,-5,-17,-4,2,0,-5,1
1528451413017013,1,2,-3,2,3,3,18,11
1528451413017013,2,9,5,16,-3,-1,-9,1
1528451413019008,-2,2,22,-3,2,-2,6,-2
1528451413019008,-7,-21,-82,-33,-4,-6,-9,-3
1528451413031007,1,5,23,15,3,8,5,2
1528451413031007,-5,-22,-94,-30,0,-5,-9,-3
1528451413039953,5,20,94,36,11,7,10,4
1528451413039953,3,-10,-60,-25,0,0,-7,-3
1528451413054086,-1,15,48,57,2,-3,2,16
1528451413054086,19,20,36,-15,-20,-9,-7,-5
1528451413060898,-38,-29,-52,-8,-10,1,3,3
1528451413060898,17,11,-54,-4,28,16,2,4
1528451413077019,-21,-12,96,-16,-25,-17,-12,-13
1528451413077019,8,9,0,19,12,5,8,33
1528451413078859,2,22,92,-35,-17,-11,-10,-38
1528451413078859,-17,-30,-59,29,-3,-2,-7,15
1528451413099832,23,-8,-65,-30,12,8,0,-46
1528451413099832,4,1,6,-11,7,-2,4,1
1528451413101824,5,-10,-33,12,-2,-6,6,38
1528451413101824,-1,6,39,-2,-2,-4,-14,9
1528451413114128,3,6,-22,-6,-3,-10,-12,-6
1528451413114128,-15,-11,-3,5,-4,3,9,5
1528451413120946,2,-6,-26,-13,3,15,15,-28
1528451413120946,5,9,59,8,-2,0,-13,0
1528451413137060,2,-1,-28,-3,2,7,18,23
1528451413137060,-5,0,28,26,-2,-22,-35,-16
1528451413138899,4,-9,-41,-17,2,1,39,37
1528451413138899,-9,7,20,4,-3,8,-49,-32
1528451413160291,-6,-1,-22,-11,-3,5,8,-11
1528451413160291,-5,-6,-3,-5,-3,0,18,4
1528451413161290,0,-5,-12,9,-4,-11,-21,-13
1528451413161290,2,7,16,0,-6,-13,4,-10
1528451413174422,3,1,4,16,6,0,7,10
1528451413174422,-11,-5,4,-6,-2,2,-9,-2
1528451413181395,3,-3,-19,-9,-5,-2,-7,0
1528451413181395,-2,1,19,13,-3,-6,5,-6
1528451413197565,-5,-2,-10,-5,-1,0,-7,15
1528451413197565,2,-2,-2,0,5,7,11,-1
1528451413199411,-1,-1,-8,-1,1,-3,-18,-13
1528451413199411,-1,4,19,3,0,0,14,5
1528451413219561,-3,-13,-43,-4,-3,-2,2,1
1528451413219561,0,-3,8,11,1,-1,-6,-9
1528451413221547,0,3,-1,-2,4,3,-1,-1
1528451413221547,1,1,-32,23,-5,-5,3,1
1528451413233877,0,6,2,-40,-1,-3,-2,5
1528451413233877,-2,-10,38,22,0,1,-3,-6
1528451413240857,-1,-7,-109,-25,-5,-4,-9,4
1528451413240857,-10,-12,127,-3,-15,-4,5,-12
1528451413255659,-7,-2,2,44,1,1,-5,1
1528451413255659,2,5,-40,-48,3,1,2,1
1528451413264642,5,6,28,27,16,10,5,2
1528451413264642,5,3,-60,-35,3,3,5,9
1528451413279591,-4,-2,-20,11,-4,-5,0,-5
1528451413279591,-8,-7,55,4,-10,-5,-6,-2
1528451413281584,-5,-1,-12,-6,-8,-10,-8,-22
1528451413281584,5,4,-8,1,1,0,0,14
1528451413302672,-1,-1,28,19,6,4,0,1
1528451413302672,9,12,-64,-26,12,5,7,5
1528451413303584,-12,-13,49,-6,-11,-4,-7,-4
1528451413303584,-3,11,82,55,-7,-5,-4,3
1528451413315658,-4,-14,-61,-59,-13,-5,-1,-5
1528451413315658,0,1,-11,10,1,2,-1,0
1528451413325516,5,-1,-21,10,15,9,6,7
1528451413325516,2,1,-45,-5,2,1,3,1
1528451413339791,-2,6,29,-9,-3,-5,-1,-5
1528451413339791,-12,-11,50,39,-15,-5,-14,-15
1528451413341623,-2,-6,44,-24,-8,-1,-2,3
1528451413341623,0,0,-13,12,8,2,3,-5
1528451413362725,21,25,-7,6,24,11,16,19
1528451413362725,-13,-5,38,20,-13,-4,-7,-6
1528451413363567,-8,-14,42,-15,-16,-8,-12,-29
1528451413363567,-5,-7,8,-25,-10,-6,-2,-3
1528451413375690,-1,-4,-30,-1,1,1,0,0
1528451413375690,11,17,-31,-13,10,2,9,8
1528451413384727,2,1,38,60,10,2,2,12
1528451413384727,-14,-19,-115,-70,-14,-6,-4,-13
1528451413399668,1,1,44,13,-4,-2,-4,-2
1528451413399668,0,1,-6,2,-5,-4,-2,-1
1528451413401662,0,2,-37,-18,-4,-1,-1,2
1528451413401662,-1,-2,12,7,3,1,1,-1
1528451413422757,0,0,15,7,-9,-27,-32,-2
1528451413422757,-4,-7,-18,-9,-3,2,-16,-5
1528451413423654,8,7,-14,0,12,42,52,15
1528451413423654,7,8,17,6,2,-4,15,6
1528451413435729,-12,-12,-2,0,-5,-3,-12,-7
1528451413435729,-1,-3,-2,-6,0,-17,-16,-2
1528451413445569,2,2,-6,-2,-1,-11,-15,-3
1528451413445569,-1,0,17,3,-3,3,-2,-2
1528451413459547,-2,-4,2,-1,-13,-4,10,2
1528451413459547,3,1,1,8,14,10,15,5
1528451413461501,0,8,-14,19,10,2,-3,1
1528451413461501,-4,-13,-45,17,6,3,3,-4
1528451413482586,-1,9,7,-36,-14,-7,-4,-4
1528451413482586,7,4,12,5,1,2,5,1
1528451413483580,-8,-21,-46,-14,-3,-10,-4,12
1528451413483580,-7,33,107,5,7,-3,-12,-48
1528451413495575,-18,-48,-72,-6,-25,-22,-23,6
1528451413495575,9,-5,-5,-4,8,19,64,42
1528451413504625,-23,-9,62,30,-17,10,-28,-60
1528451413504625,-7,10,-84,-63,6,-8,-31,-7
1528451413519626,-11,10,59,37,8,6,19,53
1528451413519626,3,1,64,90,-8,-20,-42,-35
1528451413525748,12,10,-17,-18,-3,11,52,0
1528451413525748,-2,-22,-36,22,-2,-13,-24,22
1528451413542294,-8,-4,-34,-19,8,26,24,-12
1528451413542294,-6,-9,-47,-20,1,-14,-1,29
1528451413544122,-2,6,8,3,-1,-12,-39,8
1528451413544122,1,-4,28,0,-6,-22,-5,-4
1528451413556249,4,5,-11,-3,3,-36,25,-3
1528451413556249,1,9,24,-8,13,106,39,-18
1528451413565066,5,1,-15,-26,-6,-22,-9,-6
1528451413565066,3,1,-9,-4,-1,3,24,8
1528451413579395,5,-2,29,37,4,-19,-31,-5
1528451413579395,-9,-7,-39,-62,-18,-38,-33,-17
1528451413586371,1,6,10,20,11,1,1,12
1528451413586371,0,-9,-10,4,-3,7,-7,14
1528451413602537,-1,0,21,0,1,11,-6,-13
1528451413602537,0,-1,-3,-15,-8,-9,2,-9
1528451413603531,3,1,-22,-6,-1,-5,-10,7
1528451413603531,3,1,46,21,0,-7,17,3
1528451413625338,0,-3,-20,-19,-5,17,-16,-22
1528451413625338,-4,-3,-39,-19,-5,-7,-19,-1
1528451413626307,2,-1,7,4,0,-13,6,9
1528451413626307,0,1,13,8,3,10,4,-1
1528451413639301,1,4,3,-2,3,17,10,-3
1528451413639301,1,-2,-3,4,-1,-20,-3,5
1528451413646389,-4,-2,-5,-3,-4,-5,-6,-1
1528451413646389,-2,-4,-1,-4,-4,9,9,0
1528451413662645,2,3,-1,-4,3,4,-4,-4
1528451413662645,-2,0,9,10,0,-16,-6,-5
1528451413663577,-1,-1,-7,-13,-5,-2,3,-2
1528451413663577,-4,-1,-1,2,-2,5,-2,-1
1528451413684780,4,2,11,6,4,-2,-1,0
1528451413684780,-2,0,9,3,0,-4,1,-3
1528451413686626,-1,-1,-9,-9,0,2,0,4
1528451413686626,2,-2,3,1,0,0,3,4
1528451413699601,0,-2,-23,-4,0,0,-3,-3
1528451413699601,-2,-1,2,-6,-2,-2,1,-2
1528451413706074,0,2,9,0,-1,-2,-3,3
1528451413706074,-1,-3,-15,0,0,2,-1,-1
1528451413721872,0,1,11,1,-2,2,10,-2
1528451413721872,-2,-1,-9,-8,-2,1,-1,-1
1528451413723871,0,-3,9,0,1,2,3,0
1528451413723871,0,1,3,1,-1,-3,-9,-2
1528451413744811,0,2,5,-3,1,13,10,0
1528451413744811,0,1,2,-1,-2,-11,2,0
1528451413746900,-3,-2,-5,0,-3,-4,-6,-2
1528451413746900,-1,0,-2,-1,-1,0,-1,-1
1528451413759139,-1,0,6,0,0,-3,-2,-2
1528451413759139,-3,-1,-6,-2,0,-4,-6,-1
1528451413766089,-3,-1,-3,-2,-2,0,3,-1
1528451413766089,0,-2,1,-2,-2,-2,-4,0
1528451413782089,1,1,2,-2,0,-3,-2,-2
1528451413782089,-1,0,5,1,1,2,3,-1
1528451413783923,-1,-1,-2,-1,-1,-5,-9,0
1528451413783923,1,-1,0,-1,-2,6,19,-1
1528451413804866,-2,-1,4,1,1,-1,-3,-2
1528451413804866,0,-3,-7,-1,-1,-1,-3,0
1528451413806894,-1,-2,-6,-1,-2,-6,-5,-1
1528451413806894,-1,0,1,0,0,1,1,-1
1528451413818191,-1,1,0,-1,-1,-1,4,-1
1528451413818191,-2,-2,-4,-1,-2,-1,-3,-3
1528451413827006,-1,-1,-1,-1,0,2,26,4
1528451413827006,1,1,-3,0,2,10,-17,-3
1528451413842288,0,0,5,0,-2,-1,2,-3
1528451413842288,-2,-3,0,-1,-2,-3,-2,-2
1528451413844148,0,-1,0,0,-1,-2,6,1
1528451413844148,-2,-3,-4,-3,-2,-4,8,-1
1528451413864575,0,0,-1,1,0,-2,-6,-2
1528451413864575,-3,0,2,-1,0,-1,1,-1
1528451413866407,-1,-2,-6,-2,-2,-2,-15,-4
1528451413866407,-2,-2,-3,-3,-2,-4,5,-2
1528451413878510,1,-1,-1,-2,0,-1,-6,-2
1528451413878510,1,0,-1,-3,-3,-2,-2,-2
1528451413887657,-3,-2,-4,-3,-1,2,-5,1
1528451413887657,-1,-1,0,-1,-3,-4,-7,-1
1528451413902615,0,-1,2,-1,-2,0,1,0
1528451413902615,-2,-1,-1,-1,0,0,4,-1
1528451413903613,-1,0,-3,0,1,6,0,-2
1528451413903613,1,0,0,-1,-1,1,-1,0
1528451413924693,-1,-1,1,-1,-1,-2,-1,-1
1528451413924693,0,1,-1,0,-3,-6,-12,-2
1528451413926552,0,0,2,-1,0,1,-8,-2
1528451413926552,-2,-2,0,0,-2,-5,-1,-2
1528451413938526,-1,-1,-2,-1,0,-1,-3,-1
1528451413938526,-1,-2,-1,0,-1,-2,4,-1
1528451413947496,0,0,3,0,-1,1,-2,-1
1528451413947496,1,0,-5,-2,0,-1,0,0
1528451413962636,0,-1,-2,2,-1,-5,-13,0
1528451413962636,1,0,1,-1,0,4,17,3
1528451413963633,0,-1,0,1,0,-3,-5,-3
1528451413963633,-1,-2,3,1,-2,-3,0,0
1528451413984577,0,0,0,-1,1,4,21,1
1528451413984577,-2,-2,-2,-1,-2,4,-27,-1
1528451413986571,-1,-1,-1,-4,-3,-8,-12,-1
1528451413986571,0,-1,2,0,1,0,17,2
1528451413998539,0,-1,-3,0,0,-3,-12,-1
1528451413998539,-2,-1,-1,-1,-2,1,11,-2
1528451414007516,0,-1,-2,-2,-1,-2,0,1
1528451414007516,-2,-2,0,-2,-1,-4,-4,-2
1528451414022531,-1,-1,-2,-2,-5,-2,-4,-2
1528451414022531,0,-2,-3,-3,-1,-2,-5,0
1528451414023511,-1,0,-3,-1,-1,-1,1,-2
1528451414023511,-2,1,-2,-1,-3,-5,-6,-3
1528451414044478,-1,-1,-1,-1,-2,9,7,0
1528451414044478,0,-1,-1,-3,-2,-3,-7,-2
1528451414046412,0,-2,-5,-2,-3,-1,7,-1
1528451414046412,-2,-2,0,-1,-1,0,-5,-1
1528451414058441,-3,-2,-5,-2,-1,-4,-4,-2
1528451414058441,0,-1,-1,1,1,-8,-1,-3
1528451414067356,-3,-2,0,-2,-1,2,-7,-2
1528451414067356,0,1,1,0,2,10,10,-2
1528451414082317,-3,-3,0,-2,0,-4,-7,-2
1528451414082317,-1,-1,-1,0,-1,-1,4,0
1528451414084311,0,-1,-1,1,0,-5,-1,-2
1528451414084311,-2,-4,-2,-1,-2,-3,-12,-1
1528451414104256,0,-2,0,0,0,-3,3,2
1528451414104256,0,-1,-1,-1,-1,1,4,1
1528451414106251,-1,-2,-2,-1,-2,-10,3,0
1528451414106251,-1,1,-1,-1,-2,8,-34,-3
1528451414118219,1,0,0,-1,0,-1,6,2
1528451414118219,-3,-2,-3,-1,-1,-4,-5,-1
1528451414127204,0,1,-1,-1,-1,-1,-1,1
1528451414127204,0,1,0,0,-2,-7,1,0
1528451414142155,-1,-1,-3,-3,-3,-1,-4,-2
1528451414142155,0,-1,2,0,-1,0,-4,-2
1528451414144150,-2,-1,-5,0,-2,1,6,-1
1528451414144150,-1,-2,-3,1,1,-4,4,0
1528451414165094,-1,-1,0,0,-2,0,-5,-3
1528451414165094,-1,-2,1,-2,-1,3,11,0
1528451414166107,1,-3,-1,-2,-2,3,-3,-1
1528451414166107,0,3,-3,0,-1,-3,3,0
1528451414178059,-1,-1,-1,-1,-2,-1,-14,-2
1528451414178059,-1,-2,-6,1,0,2,2,0
1528451414187035,-2,-1,1,-1,-1,-1,-2,-2
1528451414187035,0,-1,2,-2,0,-3,-6,0
1528451414201995,0,-1,1,-1,0,5,14,1
1528451414201995,-1,1,-2,-1,0,0,-1,-1
1528451414203990,-1,-2,-5,-2,-2,-1,-7,-4
1528451414203990,-2,-2,-2,-3,-2,-6,0,-3
1528451414224934,-3,-1,-2,-1,-1,-5,-10,-1
1528451414224934,-2,-2,-1,0,0,3,2,-1
1528451414225931,-1,2,-2,0,-2,0,2,1
1528451414225931,-1,-1,1,-3,-2,-2,2,-3
1528451414237907,-1,1,1,0,0,-3,-2,-3
1528451414237907,-1,1,-7,1,-1,-3,-5,-2
1528451414246875,-1,-1,12,0,-3,-2,0,0
1528451414246875,-1,-2,0,-3,-4,0,3,0
1528451414261835,-1,-3,-3,-2,-1,-2,1,0
1528451414261835,-1,-1,-4,-1,-1,-2,-1,-1
1528451414263830,-2,-2,1,-1,-2,-1,1,-1
