timestamp,emg1,emg2,emg3,emg4,emg5,emg6,emg7,emg8
1529292126035875,0,-3,0,-1,-1,-1,-1,-2
1529292126035875,-3,-1,0,-2,-1,-2,-2,0
1529292126036872,-1,-1,0,-1,-1,-2,-1,-2
1529292126036872,-2,-3,0,-1,0,-2,-1,-2
1529292126037869,-2,0,-2,-1,-2,-2,0,1
1529292126037869,0,-2,-1,1,0,0,-1,0
1529292126039864,1,-2,0,0,0,1,1,2
1529292126039864,1,-1,-2,-1,-1,0,0,-1
1529292126045847,0,0,-1,1,-2,-2,0,-1
1529292126045847,-3,-1,-3,1,0,-1,1,-1
1529292126052829,-2,1,-3,-1,-1,3,2,1
1529292126052829,-1,3,-2,-1,-1,-3,-1,1
1529292126063799,0,-2,-2,-2,2,2,-1,0
1529292126063799,1,-1,0,0,-1,-3,-2,-1
1529292126076765,-1,-2,0,-2,-4,-3,-2,-3
1529292126076765,-2,0,0,1,-1,2,1,-2
1529292126082748,0,2,0,-1,-1,0,-1,-2
1529292126082748,0,0,0,-1,-1,0,0,-2
1529292126092723,-1,0,-2,-2,1,0,0,0
1529292126092723,2,-3,-2,0,-2,0,-1,-1
1529292126105688,1,-1,-3,-1,-1,-2,-1,0
1529292126105688,-1,0,-1,-3,0,1,-1,-1
1529292126112668,-2,0,-1,0,-2,-1,-2,-1
1529292126112668,-3,-1,-2,0,-1,-1,-1,0
1529292126159545,0,0,0,-1,-3,-2,0,-2
1529292126159545,-1,-1,0,1,4,-1,-2,-3
1529292126160541,-2,-1,0,-2,0,0,-3,0
1529292126160541,-1,-1,-3,-4,-2,-3,-1,-2
1529292126162536,-1,-1,-2,-3,0,-1,-1,-1
1529292126162536,2,3,1,1,-2,-2,0,1
1529292126172509,-2,1,0,0,-1,-2,0,0
1529292126172509,-3,0,-1,-7,0,-1,-2,1
1529292126173507,-2,-2,1,7,-6,1,1,1
1529292126173507,-1,-5,-1,1,3,-5,-2,-1
1529292126187469,1,-3,0,-2,-3,0,-3,-1
1529292126187469,2,0,0,4,-3,-1,-1,0
1529292126188467,-2,0,-8,-1,14,3,1,-2
1529292126188467,-2,-4,-12,-8,-8,-2,2,-2
1529292126202429,-3,-1,17,16,-9,-1,3,-1
1529292126202429,6,5,12,11,32,5,0,1
1529292126209410,-9,-8,-13,-6,-2,4,-3,-4
1529292126209410,3,4,12,0,-24,-14,-6,0
1529292126219383,6,-5,-29,-16,18,0,0,1
1529292126219383,8,19,38,40,0,9,6,4
1529292126232348,4,5,15,5,2,0,-1,4
1529292126232348,-8,-7,-12,-14,8,6,0,-3
1529292126241324,-9,-11,-8,0,-9,-4,-3,-6
1529292126241324,-5,-14,-21,-23,-9,-1,1,-2
1529292126247311,2,1,0,5,9,8,2,3
1529292126247311,-3,0,3,2,-4,-2,-3,-2
1529292126262269,-4,-2,0,-3,1,-4,-1,-3
1529292126262269,-12,-16,-19,-12,-2,-8,-6,-8
1529292126269250,-9,-20,-26,0,-10,-7,-6,-9
1529292126269250,19,14,17,18,3,4,4,9
1529292126279224,16,27,40,16,3,20,7,11
1529292126279224,10,23,24,2,4,4,5,10
1529292126292189,-1,4,5,-4,-3,-2,-2,-2
1529292126292189,-21,-20,-33,-22,-22,-19,-19,-16
1529292126301165,-7,-17,-37,-6,-7,-9,-6,-5
1529292126301165,-2,-1,-3,-3,-8,-4,-1,1
1529292126307148,5,10,18,2,0,0,-5,-4
1529292126307148,-6,-1,-32,3,15,10,3,-3
1529292126322110,-3,15,-2,0,-1,-4,2,-3
1529292126322110,5,47,10,-1,-3,-5,-3,-2
1529292126330089,1,57,7,-2,3,-3,11,11
1529292126330089,1,42,38,3,8,5,-6,-4
1529292126339064,-10,-39,-17,-11,-4,-11,-21,-14
1529292126339064,4,-53,-18,0,4,7,18,4
1529292126352030,8,-16,25,2,-6,-3,-3,-1
1529292126352030,-6,-35,19,2,5,11,-2,-7
1529292126361005,-4,-18,-13,-11,-9,-4,23,13
1529292126361005,-7,-33,-16,-6,-5,-7,-13,-8
1529292126366990,4,-16,-10,-1,0,-2,-1,-1
1529292126366990,4,-14,-4,1,1,0,4,5
1529292126381952,8,2,15,3,6,14,8,-2
1529292126381952,-10,-15,-20,-11,-11,-5,-15,-16
1529292126389928,3,2,-8,-8,-2,1,-1,0
1529292126389928,10,29,11,3,8,2,-5,7
1529292126398904,-6,-1,-8,-3,5,2,8,5
1529292126398904,-7,8,-12,2,2,3,25,15
1529292126411870,13,8,3,-8,-7,-4,-11,-16
1529292126411870,6,14,13,3,-3,-30,-41,-6
1529292126420845,7,1,3,-6,-9,-12,-14,-5
1529292126420845,-17,5,-12,-7,-14,4,0,-6
1529292126426829,-3,-14,-8,5,-4,32,32,6
1529292126426829,15,18,13,7,-4,14,18,20
1529292126441789,7,20,19,4,3,2,-12,-12
1529292126441789,9,3,0,-4,5,0,-6,-2
1529292126449768,-25,-34,-16,-13,-1,-2,10,21
1529292126449768,6,-35,-30,-7,3,21,45,25
1529292126458745,-10,14,2,11,7,-5,-14,-24
1529292126458745,-1,18,43,14,10,-15,-16,-29
1529292126471709,-2,-1,-1,-4,-2,-16,-14,2
1529292126471709,-7,-7,-20,-23,-26,-19,-6,0
1529292126480684,-9,-22,-13,-3,-5,22,39,27
1529292126480684,-5,4,-6,2,-13,-7,-11,-13
1529292126486669,19,14,14,11,-4,-26,-10,12
1529292126486669,1,-9,0,7,8,-6,-9,-7
1529292126502626,1,9,6,0,-3,-9,-16,-3
1529292126502626,-3,1,4,-4,-13,0,36,17
1529292126509608,-11,-20,-15,-8,11,-21,-33,-28
1529292126509608,-21,-16,-11,-5,8,5,23,-12
1529292126518584,0,1,-3,2,9,-12,-12,-1
1529292126518584,9,19,26,-2,10,20,-27,-22
1529292126532582,19,10,6,2,-3,13,29,17
1529292126532582,-8,11,4,10,4,10,-5,-14
1529292126549502,-3,-1,6,-7,-22,-1,21,16
1529292126549502,-29,-32,-29,-3,4,-9,-12,-16
1529292126550533,-12,-7,-6,-5,5,13,41,1
1529292126550533,8,-7,-4,5,8,-10,-25,4
1529292126562505,25,17,17,1,6,-2,32,35
1529292126562505,8,14,8,0,0,7,22,7
1529292126569447,-25,-7,-5,0,0,-4,-68,-59
1529292126569447,10,-4,-8,2,2,12,76,82
1529292126584407,2,2,-1,6,10,-5,-46,-39
1529292126584407,26,2,-1,-4,2,-1,-24,15
1529292126592386,-32,-12,-8,-7,2,-3,7,-2
1529292126592386,21,7,-2,3,-27,-16,-11,-19
1529292126601362,5,12,9,10,5,12,-19,1
1529292126601362,1,-6,-3,6,9,20,21,64
1529292126607345,1,3,6,5,0,22,21,-6
1529292126607345,-21,-20,-19,-20,-16,-25,-22,-29
1529292126622306,-2,4,3,2,6,14,11,2
1529292126622306,8,-3,-7,0,-9,-16,10,48
1529292126629289,1,0,2,4,30,0,-32,-40
1529292126629289,-13,-2,1,1,18,22,24,-6
1529292126653225,9,-1,-3,-5,-13,-9,-19,-14
1529292126653225,-12,0,-2,-4,-17,-6,7,-9
1529292126653225,18,6,-4,-9,-15,-12,8,19
1529292126653225,9,7,14,25,18,9,1,-4
1529292126661203,4,7,6,2,-5,0,11,19
1529292126661203,-24,-14,-8,-5,26,3,-27,-64
1529292126667186,29,24,15,13,-17,-8,5,24
1529292126667186,-8,10,6,-7,-6,-7,-8,-25
1529292126682147,9,-1,-14,-9,6,13,39,52
1529292126682147,-20,-10,-7,8,17,25,-1,-28
1529292126690125,7,4,2,7,-12,-2,2,14
1529292126690125,-22,-8,-12,3,21,8,-19,-17
1529292126705085,20,20,26,7,-2,14,35,32
1529292126705085,15,-2,-1,-11,-3,-6,8,-2
1529292126712067,-19,-9,-5,4,11,6,-4,7
1529292126712067,-37,-34,-28,7,14,-3,-6,-16
1529292126721042,35,38,28,11,-11,-5,28,-5
1529292126721042,6,12,3,3,-2,-31,-18,11
1529292126727026,-32,-40,-44,-19,7,5,35,-6
1529292126727026,9,68,69,22,-6,-4,-25,75
1529292126741987,-18,-33,-21,-3,5,37,32,-36
1529292126741987,41,15,0,-2,-2,11,-21,27
1529292126749965,7,7,3,11,20,1,10,11
1529292126749965,-24,-1,0,-9,-2,22,-30,-20
1529292126764924,-27,-14,-11,0,8,23,-41,8
1529292126764924,17,-3,-1,3,3,19,1,-41
1529292126771907,-20,-24,-26,-17,-17,-99,-35,20
1529292126771907,27,-15,-10,-7,-4,-47,19,23
1529292126780882,2,8,24,10,-18,-98,-42,-18
1529292126780882,-12,-18,-14,-7,15,35,9,-17
1529292126786868,70,34,41,19,3,34,-32,46
1529292126786868,-54,-55,-39,-18,6,56,52,-14
1529292126801828,57,26,14,7,0,-9,4,-9
1529292126801828,-7,-25,-27,-8,8,46,-4,28
1529292126809806,-21,-7,-7,-15,-37,20,12,-13
1529292126809806,55,30,21,6,-16,-8,65,66
1529292126824765,-53,-32,-24,-3,7,4,38,-30
1529292126824765,-3,-4,2,4,-12,-18,-9,-23
1529292126831747,-21,3,13,12,7,10,36,-14
1529292126831747,9,-5,-5,-8,-14,-12,-7,-33
1529292126841719,-20,-20,-23,-15,-13,-17,-25,-34
1529292126841719,25,20,27,15,-17,-68,31,21
1529292126855683,-5,3,9,1,11,-12,11,4
1529292126855683,0,-3,-3,-4,12,-6,-13,-35
1529292126861666,31,19,12,2,8,-33,-34,35
1529292126861666,23,13,1,-12,-14,-29,-35,-12
1529292126869646,-40,-8,-10,-7,13,45,-24,-15
1529292126869646,86,22,6,-20,-54,-48,-5,8
1529292126886600,-25,-21,-5,-5,10,10,-24,18
1529292126886600,-37,-33,-26,-20,6,43,-6,13
1529292126892584,14,30,30,4,-9,1,-44,-31
1529292126892584,-7,-8,-9,-8,23,47,-24,23
1529292126901560,6,0,-4,-8,-1,5,-36,-28
1529292126901560,6,5,7,1,-9,-24,-1,6
1529292126915522,12,-8,-13,-19,1,30,-20,10
1529292126915522,-9,11,12,11,9,26,-23,-18
1529292126922505,9,6,-6,-11,-10,13,1,-2
1529292126922505,-27,7,12,-4,-6,27,2,-5
1529292126929486,21,6,1,55,5,-30,3,-4
1529292126929486,-3,10,9,-3,-7,5,-16,-15
1529292126944445,-27,-7,-6,1,-7,11,-6,-24
1529292126944445,7,4,5,-5,7,29,39,4
1529292126952424,-2,4,3,-17,-39,-61,-6,0
1529292126952424,12,16,16,10,-8,-34,14,-20
1529292126961400,-36,-35,-37,-27,11,67,20,8
1529292126961400,18,24,24,28,-8,-36,0,7
1529292126975371,8,4,4,-28,-13,14,28,8
1529292126975371,-30,-8,-8,53,28,-11,0,-6
1529292126982344,-6,-8,-6,-14,1,-8,-3,-11
1529292126982344,-10,-4,-11,6,6,4,1,-5
1529292126989326,-13,-12,-9,-8,16,19,22,-5
1529292126989326,1,-9,-7,-19,2,10,5,2
1529292127004285,-4,-1,1,15,7,-3,14,5
1529292127004285,-12,-10,0,-1,-1,-15,7,-4
1529292127021241,-1,0,0,-1,-1,5,7,9
1529292127021241,-2,0,1,-11,1,35,-4,7
1529292127022239,-4,2,2,9,-11,-37,-7,-6
1529292127022239,-9,0,3,-1,-4,3,11,5
1529292127035203,6,-1,2,4,5,9,-3,-5
1529292127035203,-4,-4,-5,-4,3,13,1,2
1529292127042183,-5,-8,-11,0,2,18,19,6
1529292127042183,22,39,36,9,-11,-19,-3,10
1529292127049166,-14,-19,-17,-7,-7,-6,-19,-42
1529292127049166,-6,16,14,0,-14,-25,6,-5
1529292127065123,-7,-12,1,-5,-9,-22,2,0
1529292127065123,-22,-23,-22,-12,4,2,2,-11
1529292127072104,31,15,6,8,9,1,18,24
1529292127072104,-28,-11,-8,-5,16,32,-9,-15
1529292127081081,2,20,24,9,-6,-20,-53,-35
1529292127081081,0,-15,-15,-2,6,13,12,40
1529292127095042,-66,-30,-18,-6,-5,-9,-49,-61
1529292127095042,51,13,9,-2,-6,4,19,68
1529292127102023,-5,-18,-20,-13,-8,-18,7,-73
1529292127102023,44,19,1,-4,1,3,-101,-60
1529292127110002,-32,1,7,2,0,-2,22,-30
1529292127110002,-22,-11,-13,-6,12,20,1,4
1529292127124962,3,-7,-14,-7,2,22,-7,39
1529292127124962,-32,8,21,14,5,-8,22,28
1529292127139922,11,-1,-11,-7,6,22,12,6
1529292127139922,1,4,3,-3,-14,-35,-34,-36
1529292127146904,-9,-11,-12,-3,17,33,20,38
1529292127146904,-7,-12,-14,-6,-4,0,7,-5
1529292127155880,24,23,18,9,1,-10,5,34
1529292127155880,-21,-12,-3,0,2,-6,6,6
1529292127169844,12,13,8,5,7,1,10,21
1529292127169844,-11,-12,-6,0,1,3,15,2
1529292127170841,22,21,19,9,-8,-30,3,13
1529292127170841,-3,-7,-6,-2,1,-3,6,-9
1529292127185801,0,5,-3,-2,5,3,-1,-5
1529292127185801,6,2,2,-4,-8,-13,-4,-12
1529292127191785,0,-8,-5,-1,11,14,9,18
1529292127191785,-8,-15,-11,-3,-7,-13,-5,-12
1529292127206745,24,40,38,17,-9,-27,-4,20
1529292127206745,-22,-15,-12,-6,-3,4,3,4
1529292127215720,4,-11,-15,-7,-2,5,6,14
1529292127215720,7,3,7,3,-2,-8,-4,-3
1529292127230681,-7,-1,0,0,-4,-8,-4,-5
1529292127230681,12,2,-1,-2,-1,-12,6,5
1529292127230681,2,-5,-2,-4,3,1,-3,-1
1529292127230681,7,4,3,-2,2,-15,-5,-9
1529292127244642,0,-10,-6,-1,5,-1,9,5
1529292127244642,0,0,-1,-3,2,0,1,-7
1529292127252623,3,4,1,-11,3,-1,1,4
1529292127252623,-1,-1,3,3,-1,-3,-2,-1
1529292127267581,3,1,11,8,3,7,1,2
1529292127267581,2,2,2,1,2,4,1,1
1529292127275566,1,-5,-9,-10,0,8,1,-1
1529292127275566,-6,-8,-18,8,-2,8,-4,-12
1529292127290520,1,0,-1,-12,-6,5,-4,-4
1529292127290520,13,21,15,-52,-18,-11,2,4
1529292127291518,4,2,-13,-15,-8,-13,2,6
1529292127291518,2,0,-11,-11,-1,3,-4,-3
1529292127304483,-1,-6,-5,21,5,23,0,3
1529292127304483,-4,-4,12,25,7,14,-1,1
1529292127312461,-1,0,-1,-3,-4,0,-6,-1
1529292127312461,0,5,10,-3,-3,28,-2,-1
1529292127327422,-6,-7,-3,7,-1,39,-3,-5
1529292127327422,-4,-5,-12,-2,-6,40,-3,-5
1529292127335401,3,0,6,9,-4,38,-4,0
1529292127335401,-7,-11,-3,5,-6,20,-4,-6
1529292127350360,9,11,5,-10,-15,-4,-2,6
1529292127350360,-7,-12,-12,12,-3,17,-1,-2
1529292127351358,2,3,6,10,-12,16,-4,3
1529292127351358,-2,-3,0,3,-5,-3,-1,0
1529292127364323,-4,0,2,-8,-6,89,1,1
1529292127364323,-5,-4,-9,-6,-2,110,0,-2
1529292127372301,-4,-5,-2,18,6,86,-1,-2
1529292127372301,-2,1,5,-6,4,-25,1,2
1529292127387262,5,5,5,-3,1,-117,0,3
1529292127387262,-4,-7,-5,7,2,-128,-1,1
1529292127395240,-1,0,5,0,3,-93,2,3
1529292127395240,2,0,-3,-6,-2,-85,-2,2
1529292127410200,-3,-7,-12,-3,2,-86,0,1
1529292127410200,1,3,2,4,1,-48,-1,2
1529292127411197,2,0,-3,-3,1,-36,0,1
1529292127411197,4,6,7,-1,-2,-34,-1,2
1529292127425160,-4,-3,-2,1,-4,-45,-1,-2
1529292127425160,-3,-4,-1,0,-5,-48,-2,-3
1529292127432142,-3,-4,-7,-4,-5,-9,0,-3
1529292127432142,1,2,5,4,-6,-2,-2,0
1529292127447101,-6,-6,-1,-3,-6,26,8,2
1529292127447101,1,4,7,4,-15,30,-11,-2
1529292127455080,1,4,10,6,-13,-16,-1,3
1529292127455080,2,2,1,1,-9,1,11,3
1529292127470040,-1,-6,-12,-8,-7,-18,-30,-5
1529292127470040,-4,-5,-7,-3,10,-30,-21,-15
1529292127471038,-4,-4,-7,-3,20,-3,38,10
1529292127471038,2,1,-6,-6,20,-2,-7,-8
1529292127485000,-6,-1,9,3,22,-4,-13,-33
1529292127485000,-1,-1,-2,2,20,-3,7,4
1529292127491980,2,-1,0,2,15,1,-16,-3
1529292127491980,-2,-2,0,-3,-4,19,5,-6
1529292127506942,3,0,-3,-2,-1,14,12,5
1529292127506942,4,-1,3,1,-2,8,1,-3
1529292127514920,-4,-4,1,-2,7,7,0,-8
1529292127514920,0,-1,-3,0,6,17,2,6
1529292127529880,-6,-3,-9,0,27,10,3,5
1529292127529880,-6,-12,-7,-1,18,22,9,2
1529292127530877,8,7,1,4,0,26,-5,7
1529292127530877,8,5,15,5,-13,19,2,9
1529292127544840,2,11,9,2,-5,28,5,9
1529292127544840,-3,2,9,0,-12,10,10,4
1529292127551821,-1,-5,-7,-5,-13,-10,1,1
1529292127551821,-6,-10,-13,-6,-13,-21,-5,-5
1529292127566782,-2,-3,-14,-8,-12,-27,5,2
1529292127566782,5,10,6,2,-2,-27,6,9
1529292127575758,-2,1,1,-7,-17,-7,-10,-4
1529292127575758,0,4,-2,-3,6,-6,7,3
1529292127590718,2,-2,-1,-4,-4,-8,3,9
1529292127590718,-2,-1,-3,1,8,-4,-7,-1
1529292127590718,-2,1,1,-9,-36,-13,-17,-3
1529292127590718,-3,0,-2,0,15,20,10,-2
1529292127604680,-5,-9,-7,2,24,1,-2,0
1529292127604680,-5,-6,-5,-2,-10,-3,-7,-3
1529292127611662,6,4,9,8,12,-6,2,2
1529292127611662,-4,-2,0,7,22,-9,-7,-6
1529292127635598,10,15,9,10,-3,17,0,6
1529292127635598,3,10,11,3,6,9,7,6
1529292127636594,-6,-9,-8,-2,15,-4,2,1
1529292127636594,-11,-12,-9,-15,-8,5,-15,-11
1529292127650557,-13,-29,-25,-3,11,20,1,-8
1529292127650557,13,11,-6,14,38,4,5,2
1529292127651555,14,32,43,9,-9,28,6,5
1529292127651555,7,1,3,4,-2,15,0,4
1529292127664519,-4,-2,-4,-3,-5,10,3,-4
1529292127664519,-14,-24,-23,-15,-21,1,0,-8
1529292127672498,-4,-13,-16,-5,-19,-8,3,-5
1529292127672498,3,5,6,14,18,-61,-13,-1
1529292127687458,0,-4,-1,-9,-19,-37,-8,-10
1529292127687458,-6,-3,3,8,-5,12,5,-5
1529292127695437,-7,-1,-1,0,-20,-17,-6,-6
1529292127695437,-6,0,1,4,-13,6,-1,-1
1529292127710399,-1,-2,-1,2,-15,0,1,2
1529292127710399,5,-1,2,-3,-2,-2,-4,-1
1529292127711396,1,-7,-5,-2,18,2,-4,-3
1529292127711396,2,-10,-5,-6,-12,29,3,0
1529292127724360,13,6,10,1,21,24,6,7
1529292127724360,6,-7,1,13,7,9,2,3
1529292127732339,-2,-19,-15,2,10,-4,1,1
1529292127732339,14,12,5,7,-24,2,7,10
1529292127747299,7,10,11,6,-7,7,4,9
1529292127747299,3,3,-5,1,-1,1,0,7
1529292127755278,0,3,8,4,-16,1,2,7
1529292127755278,-1,2,-1,-16,-31,4,3,3
1529292127770238,0,5,5,7,-54,-10,3,2
1529292127770238,0,6,8,-17,-45,-20,-2,-2
1529292127771236,-4,2,-16,6,9,-2,-7,-6
1529292127771236,0,6,7,-7,-3,-22,-2,-3
1529292127784235,-3,0,-1,-5,7,2,4,-3
1529292127784235,-7,-8,-10,-18,7,14,3,-6
1529292127792179,2,5,10,17,40,5,8,1
1529292127792179,-5,5,2,-1,44,3,-3,-8
1529292127807138,-1,7,-3,-3,31,1,-4,-2
1529292127807138,1,13,2,9,10,-9,-4,1
1529292127815145,1,14,-1,-11,9,-1,1,0
1529292127815145,1,9,-9,-3,-4,5,-1,3
1529292127830111,-2,18,1,1,16,3,-2,1
1529292127830111,3,17,3,-3,6,-3,-3,1
1529292127838057,0,9,0,-11,2,3,2,-1
1529292127838057,-3,-1,0,4,8,5,-1,-3
1529292127845072,1,-3,2,-6,1,-6,1,-2
1529292127845072,-1,-17,-10,-14,-23,10,3,-2
1529292127852018,-1,-15,11,21,3,-2,0,-2
1529292127852018,0,-17,-2,-7,-2,7,6,0
1529292127866978,-6,-8,-5,1,-2,14,-2,-2
1529292127866978,-5,-7,-5,1,-3,-15,-7,-5
1529292127874958,0,-3,-11,-3,6,5,0,-3
1529292127874958,-1,-5,1,10,-13,9,3,-3
1529292127889917,0,-12,2,3,-10,1,-1,0
1529292127889917,-4,-12,1,6,14,7,2,-2
1529292127897896,-2,-11,-3,-3,8,-8,-4,-2
1529292127897896,-2,-1,2,-1,1,2,-2,1
1529292127904877,0,-5,0,-4,-16,-12,-2,-1
1529292127904877,2,10,3,1,1,-4,-2,1
1529292127911859,-1,0,2,-6,-22,-13,-4,-2
1529292127911859,-2,-2,-2,0,-26,2,0,-2
1529292127926819,-1,1,1,-2,10,1,-6,-5
1529292127926819,1,-5,-1,-11,-3,1,-2,-2
1529292127935800,-5,-10,-3,-7,4,-7,-5,-3
1529292127935800,-5,-9,-2,10,33,4,-2,1
1529292127949757,-3,-3,1,-2,-2,-8,-3,-1
1529292127949757,0,-2,-2,-1,7,-8,-1,-1
1529292127957735,-1,0,-10,-11,4,5,0,1
1529292127957735,0,-1,-7,-2,4,-3,0,1
1529292127964717,0,0,-5,-1,8,-8,-1,-1
1529292127964717,-1,0,-2,-3,-9,-3,-1,-1
1529292127971700,-2,-2,-1,2,1,0,1,0
1529292127971700,4,1,-4,-2,5,-5,1,1
1529292127986660,4,-1,-3,4,-1,-6,1,2
1529292127986660,-3,-1,-1,4,2,-4,-3,2
1529292127995671,-1,-2,-2,0,1,0,0,2
1529292127995671,-3,0,-1,-2,-3,-7,-3,-2
1529292128009600,0,-1,-3,-3,-1,-3,1,-1
1529292128009600,0,-2,-5,4,-6,-2,2,-1
1529292128017621,3,0,-2,-1,-8,2,1,-1
1529292128017621,1,3,-1,-1,-9,-1,-3,-4
1529292128032536,-1,3,-3,0,-9,1,-2,-5
1529292128032536,-4,2,0,1,0,0,-1,-2
1529292128033533,2,2,0,-1,-4,10,3,0
1529292128033533,1,-1,1,-1,-3,0,-2,1
1529292128047540,-3,-4,4,1,-5,-13,1,0
1529292128047540,-1,-6,7,2,-1,-1,0,-4
1529292128055509,-2,-4,4,-2,-5,-6,-6,-1
1529292128055509,-1,-3,3,1,-2,4,1,0
1529292128069438,-2,-1,2,1,-1,5,4,-1
1529292128069438,1,-3,2,0,-1,0,-1,0
1529292128078414,-4,-1,1,1,0,1,1,-1
1529292128078414,-3,1,1,-1,3,3,-1,-1
1529292128093375,-1,2,3,1,3,4,-2,1
1529292128093375,2,5,2,0,2,4,0,-1
1529292128093375,1,3,2,0,3,3,1,-1
1529292128093375,-1,1,3,-2,0,-1,0,0
1529292128107335,1,-4,0,-3,-3,4,0,-1
1529292128107335,-1,-2,-1,-3,-3,2,1,1
1529292128115315,-3,0,-2,-5,-1,2,1,0
1529292128115315,-2,0,-3,-2,1,-1,-1,1
1529292128129279,1,-1,-1,0,2,3,1,3
1529292128129279,0,0,1,-2,-1,-1,2,2
1529292128138279,3,-2,-4,-4,-5,-7,2,0
1529292128138279,2,-1,-3,-5,-1,-2,3,0
1529292128153215,-1,0,-4,-1,1,3,2,-1
1529292128153215,0,1,-2,1,-1,1,-1,-1
1529292128153215,1,1,1,0,-1,-1,0,0
1529292128153215,1,-2,0,1,1,-5,1,0
1529292128167176,1,0,-2,-1,-9,-2,2,0
1529292128167176,-1,-2,-1,0,-1,5,2,0
1529292128175155,-3,-1,-2,3,2,-4,1,-2
1529292128175155,-2,-2,-1,-2,-1,0,-2,-3
1529292128190114,-2,0,1,1,-2,0,-2,-1
1529292128190114,-5,0,1,0,-1,-2,-2,1
1529292128198093,1,-4,-3,0,0,2,0,0
1529292128198093,0,0,0,0,-1,-3,-2,1
1529292128213099,1,0,-1,0,-1,-2,-2,-2
1529292128213099,2,0,0,1,2,-3,-1,-1
1529292128214099,1,0,1,1,0,-1,-3,-2
1529292128214099,-4,0,-2,-1,-3,-1,-1,-2
1529292128227016,-2,-2,-2,0,0,1,-1,-1
1529292128227016,2,1,-1,0,-1,-1,-1,0
1529292128234995,-2,-1,0,-3,-4,2,-2,0
1529292128234995,-1,-4,-1,0,0,0,-2,-2
1529292128249955,-1,-4,0,1,4,0,-2,-2
1529292128249955,-2,-4,0,0,-3,-3,-2,-1
1529292128257933,0,-2,0,-1,0,-1,-1,0
1529292128257933,-1,2,-1,0,1,3,0,2
1529292128272894,-1,0,0,-1,4,9,5,2
1529292128272894,1,2,1,1,3,4,2,1
1529292128273891,-3,0,-2,-4,-4,-18,-13,-7
1529292128273891,1,-2,0,-1,-3,-11,-3,-2
1529292128286856,3,3,2,-1,-1,-3,-2,0
1529292128286856,-1,1,0,-2,0,-1,3,1
1529292128295832,-3,-1,0,0,-3,7,6,2
1529292128295832,-1,0,1,-1,-2,4,2,2
1529292128309796,-3,-2,-1,-2,-2,-3,1,1
1529292128309796,2,-2,1,0,-2,1,0,1
1529292128317774,-1,1,-1,1,2,1,-1,-1
1529292128317774,0,0,0,2,-3,0,0,-2
1529292128332733,0,-2,0,-1,-3,-1,-1,-1
1529292128332733,0,-3,-2,-1,-3,-4,-2,1
1529292128333731,0,-4,-3,0,1,0,1,0
1529292128333731,2,0,-2,0,1,0,1,-1
1529292128346697,0,0,-2,0,-3,-1,0,0
1529292128346697,-2,1,-1,0,0,-2,-1,-2
1529292128355672,-1,1,0,0,0,2,1,-1
1529292128355672,-1,-2,-1,-1,0,1,-1,-2
1529292128369636,-1,-1,-2,-2,-1,-2,-3,-3
1529292128369636,0,0,-2,-2,0,0,-1,-2
1529292128377615,1,-2,2,1,1,2,1,2
1529292128377615,-2,-2,-2,-2,0,0,-2,-1
1529292128392574,-1,-1,0,-1,-4,-3,0,1
1529292128392574,-1,1,-3,1,-1,-3,-1,-3
1529292128393571,0,-1,-1,-1,-1,1,1,0
1529292128393571,-2,-2,1,1,-1,-1,0,-1
1529292128407580,-1,-1,0,-2,0,-3,-3,0
1529292128407580,-1,-2,-1,-2,0,-2,-2,2
1529292128415556,2,-2,-1,-2,-2,1,-3,0
1529292128415556,0,-1,-1,-2,-3,-4,-4,0
1529292128429477,-3,0,-2,-1,-1,0,-2,0
1529292128429477,-2,0,-2,-1,1,-1,0,-1
1529292128437488,1,0,0,-2,2,-1,0,1
1529292128437488,0,-1,-3,-1,-2,0,1,-2
1529292128452413,-1,-3,1,0,1,1,-1,-2
1529292128452413,-1,-1,1,0,-2,0,-1,0
1529292128453410,-1,1,2,0,2,4,1,0
1529292128453410,0,1,1,-2,-1,-1,0,0
1529292128467420,0,-1,-1,-2,-3,-3,2,0
1529292128467420,0,1,-2,-1,-1,-1,0,-3
1529292128476349,0,2,-1,0,-1,1,0,-1
1529292128476349,0,0,-1,0,-1,2,-2,-1
1529292128489361,-2,-2,-1,1,1,-3,-2,-1
1529292128489361,-1,-3,1,1,-1,-2,-3,1
1529292128498326,-1,-2,0,-1,-1,-2,0,0
1529292128498326,1,1,0,-1,0,-1,2,1
1529292128512254,0,2,-3,-2,1,0,1,2
1529292128512254,0,-2,-3,0,-4,0,-2,-1
1529292128521230,-2,0,-1,-1,-2,0,0,-3
1529292128521230,-1,0,0,1,1,4,-2,-1
1529292128527214,-2,0,-1,-3,-1,0,-1,-2
1529292128527214,-3,0,0,-1,-1,0,-1,-3
1529292128536190,-1,-1,0,-1,-1,-2,1,0
1529292128536190,0,-1,-1,-2,0,0,2,-2
1529292128550154,1,-1,1,0,1,1,1,0
1529292128550154,1,0,-1,-1,0,-1,-1,0
1529292128559129,3,0,-1,-2,-1,-2,-1,1
1529292128559129,0,0,0,-1,2,-3,-1,2
1529292128572133,-1,1,-1,1,-2,-3,-2,-1
1529292128572133,-1,0,0,2,-2,-2,-2,-2
1529292128581070,0,-2,-1,-1,-1,1,-1,-4
1529292128581070,2,-3,2,-2,-1,1,-1,0
1529292128596030,-1,-2,0,-1,-1,-1,0,0
1529292128596030,-5,-4,-1,0,-2,-2,0,2
1529292128598061,-2,1,-2,1,-2,-2,-2,0
1529292128598061,-1,0,-3,0,1,0,1,-2
1529292128609995,2,1,0,-1,-1,-1,0,0
1529292128609995,1,1,1,-2,0,0,0,1
1529292128618969,2,1,1,1,1,-3,-1,-1
1529292128618969,-2,0,0,-1,0,-2,-1,0
1529292128631934,0,-2,-2,0,1,0,-1,0
1529292128631934,0,-1,-1,-1,1,1,2,2
1529292128641907,-2,-1,-1,0,0,1,1,-1
1529292128641907,-2,0,-1,-1,-2,1,-1,-2
1529292128646894,-2,-2,0,0,-1,1,-1,-3
1529292128646894,-2,0,-1,-1,0,-1,-1,-1
1529292128656868,-1,-4,-1,-2,0,-2,-1,-1
1529292128656868,-1,-1,2,-1,-1,0,1,1
1529292128669878,0,2,-1,-1,0,0,0,0
1529292128669878,1,1,-3,0,-2,-1,1,0
1529292128678810,-2,0,-2,-1,0,-1,-2,0
1529292128678810,1,1,-3,0,-2,-1,-1,1
1529292128691820,1,-1,-1,0,-1,0,-1,-1
1529292128691820,1,-3,2,-2,0,-2,-2,-1
1529292128700793,1,-2,-1,0,-3,-2,1,-3
1529292128700793,0,-4,-3,0,3,1,-1,-1
1529292128706780,-2,-2,-1,-1,-1,-2,-1,-2
1529292128706780,-2,0,0,-2,0,-1,-1,-1
1529292128715748,-2,2,2,0,-1,-1,0,1
1529292128715748,-2,1,3,-1,-3,-1,-2,-2
1529292128729711,0,1,-1,-2,-2,0,-3,-2
1529292128729711,-3,-1,-1,1,-1,0,-3,-1
1529292128738649,0,2,0,-3,2,0,0,0
1529292128738649,1,1,0,0,0,-1,-1,0
1529292128752621,-2,0,0,-3,-1,-2,0,-1
1529292128752621,3,0,0,0,-2,0,1,0
1529292128761636,0,-4,-3,1,0,1,0,-3
1529292128761636,-1,-1,-4,-1,0,-2,0,-2
1529292128775549,-2,0,-3,-1,-1,-2,-1,-2
1529292128775549,-1,0,-1,1,2,1,-1,0
1529292128777546,1,1,-1,-1,0,-1,-2,0
1529292128777546,1,-1,1,-1,-1,0,-1,-2
1529292128789545,-1,-1,1,0,-1,-2,0,2
1529292128789545,0,0,0,-1,0,-2,-1,1
1529292128798490,-2,-3,0,-1,-2,0,-2,0
1529292128798490,-4,-3,-1,-3,-3,-1,1,-1
1529292128812488,0,-2,-1,0,1,1,1,-1
1529292128812488,0,-2,-2,-1,2,1,-2,-1
1529292128829407,-1,-1,-2,-2,-1,2,-1,0
1529292128829407,2,0,0,1,0,0,0,-2
1529292128830432,1,-1,1,2,-3,0,0,1
1529292128830432,-2,0,-2,0,-1,-2,0,0
1529292128836430,-2,-1,0,-2,-3,-4,-1,1
1529292128836430,-1,1,-1,-1,-2,-3,-2,1
1529292128849353,0,1,0,-1,-1,0,0,0
1529292128849353,-1,-2,-1,0,1,-1,0,0
1529292128858349,0,0,-1,1,-1,1,3,1
1529292128858349,2,-2,-2,0,-1,0,-1,-2
1529292128872330,0,0,-1,-2,-2,-1,-1,-3
1529292128872330,0,-2,-2,-4,0,-1,-2,-3
1529292128881268,-2,-1,-4,-2,0,-2,0,-3
1529292128881268,0,0,1,-1,-1,1,-1,1
