timestamp,emg1,emg2,emg3,emg4,emg5,emg6,emg7,emg8
1529297447717349,0,-1,-2,1,0,-1,-2,-1
1529297447717349,-2,-1,0,0,-5,0,0,-1
1529297447724330,0,-2,-2,-4,2,1,-1,-1
1529297447724330,1,0,1,-1,-1,-3,0,-2
1529297447739291,-1,-1,0,-4,-1,-2,0,0
1529297447739291,0,-1,-2,4,5,1,0,-1
1529297447754251,0,-1,-2,-2,-4,-4,-3,-1
1529297447754251,-2,-2,-3,-5,-4,1,-2,-2
1529297447763226,0,0,-1,0,-2,-2,0,-1
1529297447763226,-1,-1,-2,-2,2,-3,0,1
1529297447777191,0,-2,-1,-2,6,7,1,-1
1529297447777191,0,-3,-2,-4,-4,2,-1,-1
1529297447792154,0,-1,0,1,5,4,-3,0
1529297447792154,0,-3,-2,-1,-3,-9,-5,-2
1529297447808114,-1,-2,-3,-1,-16,-16,-4,-2
1529297447808114,-2,-1,-2,-4,-6,4,-1,-1
1529297447814099,-1,0,0,-2,-7,3,0,0
1529297447814099,0,1,1,2,12,-10,1,-1
1529297447829049,-1,0,-3,-6,-20,15,0,-1
1529297447829049,0,1,-1,-3,12,-4,-1,1
1529297447837028,-1,-1,-1,-1,13,-1,-2,-1
1529297447837028,0,0,1,5,2,11,-3,-1
1529297447851989,-3,-2,-2,1,4,-31,2,-1
1529297447851989,-1,-1,-3,-3,-6,8,-4,-4
1529297447866949,3,2,0,1,30,8,-4,-1
1529297447866949,-1,-1,-2,-1,-17,6,-5,-2
1529297447873930,-1,0,1,-2,4,-23,5,1
1529297447873930,-5,-3,-6,-5,-20,-4,-13,-4
1529297447888890,-3,-4,-1,5,-9,-17,5,-2
1529297447888890,1,-1,-2,2,24,2,-2,-2
1529297447896876,0,-1,-1,7,4,11,-3,-3
1529297447896876,-3,-3,-3,-8,-21,4,4,-3
1529297447912826,-1,1,0,-9,-22,-20,-7,0
1529297447912826,0,1,-2,-8,-1,-21,-8,-3
1529297447926815,-2,0,2,-6,15,36,-3,0
1529297447926815,-1,-2,-1,5,-19,22,21,3
1529297447934788,0,-3,-3,-19,-42,-78,-14,-5
1529297447934788,-1,0,-1,11,33,16,-9,-1
1529297447949773,-1,0,2,8,19,32,11,-1
1529297447949773,-1,2,2,6,12,21,5,1
1529297447956752,-2,-1,-2,0,-13,-15,5,0
1529297447956752,1,-1,-1,-12,-33,-20,5,-1
1529297447971696,0,-2,0,-7,17,38,-7,-1
1529297447971696,0,-2,0,9,-25,-15,6,1
1529297447986667,0,-2,-6,-24,-37,-49,-11,-3
1529297447986667,-6,-7,-12,-10,-24,-77,-17,-9
1529297447994608,0,3,7,25,62,90,12,3
1529297447994608,3,5,6,13,41,3,8,4
1529297448010616,-2,-5,-1,9,3,-39,-1,0
1529297448010616,-3,-1,-3,-22,-33,3,-11,-6
1529297448016575,-5,-2,-7,5,-14,-104,-25,-9
1529297448016575,-2,-4,-3,-13,24,127,20,1
1529297448039540,1,2,5,14,-13,-43,-3,1
1529297448039540,-2,-3,-3,-3,5,-35,-8,-2
1529297448046469,-2,-5,-4,-11,-6,33,-4,-2
1529297448046469,-3,-2,-4,-10,-1,-29,-4,-4
1529297448054486,1,1,-1,-4,-27,-36,-7,-1
1529297448054486,-2,-2,0,0,11,3,-2,-2
1529297448069409,-3,-5,0,33,26,18,3,-2
1529297448069409,1,0,-1,-4,-14,-16,-2,1
1529297448076425,-4,-4,-4,-12,22,-7,0,-1
1529297448076425,0,2,3,12,13,15,4,2
1529297448091376,1,10,-7,1,-4,-5,-2,-1
1529297448091376,-1,-13,-5,-1,-17,-15,1,-1
1529297448106310,-1,-3,-7,2,18,10,-3,0
1529297448106310,-5,-4,1,-6,-19,-1,1,-3
1529297448122266,0,7,10,0,-26,-35,-5,-2
1529297448122266,-5,0,-4,12,30,22,-5,-3
1529297448137226,5,12,7,2,13,18,3,-1
1529297448137226,-2,0,-10,-6,-6,7,3,-2
1529297448144247,-3,-3,4,-3,13,-5,1,-3
1529297448144247,1,10,11,9,-18,-12,-1,4
1529297448159171,-5,-6,-2,-26,1,6,-4,-4
1529297448159171,3,12,3,5,-15,-21,-3,0
1529297448167147,0,-8,-9,-6,-7,0,-2,1
1529297448167147,-4,-6,-1,7,15,6,3,-2
1529297448174129,9,1,-2,17,-16,-19,-4,-1
1529297448174129,1,3,3,-27,9,13,3,2
1529297448189089,-15,-10,-10,-21,-8,-4,-2,-2
1529297448189089,-5,-8,-13,-6,3,-2,-3,-3
1529297448197068,-1,9,11,19,2,18,1,0
1529297448197068,3,-11,-4,5,-3,-8,-2,-2
1529297448212027,2,-8,-26,-9,-5,2,-1,-1
1529297448212027,-3,-4,-2,-6,-5,-5,-3,0
1529297448219008,-5,-1,-3,4,5,-1,2,-2
1529297448219008,2,1,13,5,1,-12,-3,-2
1529297448234014,-5,-8,-10,-5,9,1,3,0
1529297448234014,-2,2,-1,-4,-8,-9,2,-6
1529297448248928,5,-3,-1,3,-15,-15,-9,7
1529297448248928,-2,2,-3,1,2,5,4,0
1529297448256951,0,0,9,-4,10,3,7,0
1529297448256951,-5,-10,-13,3,0,1,-6,-4
1529297448271893,-4,5,-11,0,3,6,-11,-7
1529297448271893,5,7,13,-13,-53,-43,-7,-2
1529297448279845,-9,-6,-1,-6,25,22,7,2
1529297448279845,0,0,-5,6,15,6,1,1
1529297448293815,-1,-1,-8,2,-7,24,-4,-4
1529297448293815,1,4,0,-10,2,-11,-2,0
1529297448309778,-3,0,10,2,11,6,6,0
1529297448309778,0,-3,-6,-13,18,15,3,-1
1529297448316772,2,0,-2,4,-27,-38,-13,0
1529297448316772,-6,-5,-3,-9,-17,-2,-5,-6
1529297448331732,5,4,5,27,14,6,8,3
1529297448331732,-3,-2,1,10,31,14,0,-3
1529297448339684,0,-4,-4,-4,0,-9,-2,0
1529297448339684,-1,3,-3,16,0,4,-2,0
1529297448354644,-2,-4,-6,-16,7,-5,-3,-1
1529297448354644,1,4,2,-3,-14,-8,-2,0
1529297448369606,0,3,4,-33,-4,-1,1,0
1529297448369606,-4,-11,-10,28,8,16,2,0
1529297448376589,0,-1,2,1,5,-8,-4,-3
1529297448376589,-2,-3,-4,-40,-26,-6,-1,0
1529297448399563,1,2,2,75,23,4,3,1
1529297448399563,-1,-1,-4,-50,-2,-3,-3,-1
1529297448406600,-1,-1,5,19,4,-4,-1,-2
1529297448406600,-1,2,-6,-26,-1,2,1,-2
1529297448422502,-5,-20,-18,-10,-22,-11,-2,-4
1529297448422502,2,8,-11,-7,2,1,-2,0
1529297448436714,1,1,14,-13,-3,-2,-4,-1
1529297448436714,0,1,15,17,2,1,0,-2
1529297448445093,0,2,-5,-18,-21,-10,-2,-3
1529297448445093,-1,-6,1,19,16,1,0,0
1529297448458911,1,4,9,0,0,6,0,9
1529297448458911,-4,-10,-15,11,-5,0,1,-2
1529297448473824,3,1,3,2,-5,-6,-1,-3
1529297448473824,-3,-1,3,7,-3,6,1,1
1529297448490013,-2,-3,3,6,5,-3,-2,-2
1529297448490013,-4,-7,-1,0,-6,-4,-6,-3
1529297448496763,-2,1,-2,-3,-7,-9,1,-4
1529297448496763,3,3,6,-2,-1,7,-5,-1
1529297448511343,-5,-4,-4,-9,-4,-8,2,2
1529297448511343,-6,-2,-5,3,8,19,-1,-2
1529297448519346,0,-1,-2,-2,-15,-9,-3,-1
1529297448519346,-5,-2,2,5,2,-13,-4,-8
1529297448534602,-2,-1,4,-1,7,-1,-4,-4
1529297448534602,-1,-1,3,2,-21,-18,-12,-3
1529297448549228,-2,-2,-3,-5,1,9,-1,-2
1529297448549228,3,0,2,0,-2,-8,0,-2
1529297448556720,0,1,1,-2,-4,2,5,0
1529297448556720,-1,-4,-5,-10,-32,-41,-10,-2
1529297448571466,-4,-5,0,5,11,31,9,0
1529297448571466,2,0,0,3,18,15,-1,1
1529297448579224,-1,0,-2,9,7,4,5,2
1529297448579224,-1,1,3,2,5,1,1,3
1529297448594559,2,1,2,-9,-15,-13,-3,-1
1529297448594559,-2,-1,-6,-5,-15,-21,-1,-3
1529297448602713,-1,-2,1,0,9,17,-3,2
1529297448602713,-4,-1,-1,0,3,7,6,-1
1529297448617317,-3,1,-2,-2,12,-4,-1,-3
1529297448617317,-2,-1,3,-3,10,18,8,2
1529297448632252,-3,0,-1,2,-4,-6,-5,-4
1529297448632252,1,3,6,-4,-6,-6,-4,0
1529297448640147,-2,-2,1,1,-10,-8,-1,-2
1529297448640147,-1,-2,-2,8,8,6,0,0
1529297448654225,-2,-3,-3,-7,0,-1,-1,-1
1529297448654225,-1,-3,-1,12,3,-6,-1,-1
1529297448662234,1,2,3,-1,-7,-2,-3,-2
1529297448662234,2,1,6,-7,5,3,1,1
1529297448677163,0,-4,-7,0,-2,-2,-2,0
1529297448677163,-1,-1,-1,1,-5,-2,-1,-2
1529297448692123,-2,-1,3,1,-6,-3,0,-1
1529297448692123,-3,-1,-3,-20,-8,-7,-1,-2
1529297448699661,0,0,0,-5,20,14,4,0
1529297448699661,0,-2,1,13,1,-4,-6,-3
1529297448714792,0,-2,-2,-18,-3,3,3,0
1529297448714792,-3,-1,-1,19,-5,-1,-3,-2
1529297448722172,-2,-1,1,14,6,-11,-5,-2
1529297448722172,-1,1,-1,-8,7,8,1,3
1529297448737406,0,3,-2,-10,-3,-2,-11,-3
1529297448737406,0,-2,-3,2,0,1,12,1
1529297448752143,-2,-3,0,-1,-1,-4,-6,-2
1529297448752143,0,1,1,27,-4,-7,-1,-1
1529297448759123,-2,-2,1,13,1,-5,-5,-4
1529297448759123,0,0,-2,-31,0,-1,-7,-2
1529297448774093,-1,-2,-3,-2,-4,0,4,1
1529297448774093,1,1,3,-37,-7,0,-1,2
1529297448782072,0,-4,-6,4,-6,2,0,-1
1529297448782072,-1,1,2,20,-5,-5,-3,-2
1529297448803974,0,3,8,12,0,-5,-11,-1
1529297448803974,-3,-2,-5,-17,-7,1,11,0
1529297448818934,2,6,4,9,-6,1,-1,-2
1529297448818934,-3,-2,10,-1,15,3,-1,0
1529297448826912,-4,-9,-24,-25,-17,-8,-2,-1
1529297448826912,-1,-4,-9,-4,0,0,-3,-2
1529297448841872,1,-3,-5,22,5,-4,2,-1
1529297448841872,-1,-7,-21,-17,-13,-3,-8,-3
1529297448856880,0,6,20,1,-4,-1,2,0
1529297448856880,-2,-2,1,-8,2,2,-1,-1
1529297448878824,-2,-2,0,-8,-3,-3,-2,-3
1529297448878824,0,1,2,-4,-10,-5,5,0
1529297448886810,-3,-2,-2,-8,-3,-2,-18,-2
1529297448886810,0,0,5,17,1,3,16,1
1529297448901712,-1,0,-1,-1,9,1,-7,-1
1529297448901712,-3,-7,-11,6,-4,-4,-14,-2
1529297448909690,-4,-3,-2,-13,-1,-1,13,-1
1529297448909690,2,5,13,6,2,0,-4,0
1529297448924683,-1,-1,-10,-9,-2,3,6,0
1529297448924683,-4,-8,-1,-7,-5,-3,-13,-4
1529297448939663,1,5,12,-12,-6,-1,2,0
1529297448939663,-2,2,7,-11,-11,-3,2,3
1529297448969530,-2,-3,-7,3,4,-2,-3,-3
1529297448969530,-3,-8,-11,-7,-8,-1,-3,-4
1529297448976512,-1,-2,14,6,3,3,3,7
1529297448976512,1,3,-15,-2,8,-2,-3,-12
1529297448991505,-5,-9,-40,-10,-5,-2,-1,-4
1529297448991505,-2,-4,1,1,-8,-4,-3,5
1529297449014436,2,4,14,16,9,1,5,0
1529297449014436,1,5,10,-10,-2,-2,3,-9
1529297449029397,-2,-6,-31,4,10,-5,6,1
1529297449029397,3,6,18,13,11,9,10,-2
1529297449044391,-1,0,3,-3,-4,0,-25,-11
1529297449044391,-8,-18,-48,-29,-19,-4,-8,-6
1529297449051367,0,7,26,25,-5,-2,-2,-5
1529297449051367,2,2,19,-9,9,-1,2,5
1529297449059291,-1,-7,-37,7,-13,-5,7,2
1529297449059291,-2,-4,1,-8,13,3,-2,-3
1529297449067273,-1,0,-8,-11,-11,-10,-1,-1
1529297449067273,0,0,6,0,-18,-14,-4,-3
1529297449082230,1,-5,-20,-11,-8,1,2,-5
1529297449082230,-4,-13,-37,-1,2,-9,-8,-5
1529297449097190,-3,-2,0,-28,-11,-28,-8,-4
1529297449097190,0,-3,-7,4,-26,-4,-1,0
1529297449104222,1,7,20,7,23,-2,2,0
1529297449104222,0,1,10,13,-2,3,-1,-2
1529297449119185,-1,-5,-6,-3,38,45,10,5
1529297449119185,0,2,2,-6,-11,-14,3,2
1529297449127163,-4,-5,-11,-23,1,7,-7,-5
1529297449127163,-2,-8,-36,-13,-22,-16,-11,-5
1529297449142114,0,-5,-20,-12,-10,-6,4,-2
1529297449142114,-6,-4,-7,10,20,4,-5,-2
1529297449157334,1,5,15,16,-17,9,-7,1
1529297449157334,-3,-9,-8,-32,-12,-19,3,-5
1529297449164586,-1,-1,4,-2,-11,-4,2,3
1529297449164586,0,3,13,1,-2,-14,1,-1
1529297449179501,-2,-1,-4,5,-1,-3,-3,1
1529297449179501,-3,1,-3,21,24,20,15,13
1529297449194539,2,4,17,7,17,19,2,-10
1529297449194539,4,5,4,-11,-6,11,-17,7
1529297449210031,-2,-1,3,-5,4,0,-1,5
1529297449210031,2,4,10,8,-2,-5,-12,-6
1529297449232101,-1,-4,-11,-13,-4,0,0,4
1529297449232101,-3,-5,-8,-4,-2,-4,1,-3
1529297449240074,-2,6,17,7,1,2,7,-1
1529297449240074,1,-4,-10,-4,-4,7,-5,3
1529297449246714,-4,-3,-7,-3,7,5,13,-4
1529297449246714,-1,-2,-7,-2,-1,0,-1,1
1529297449255037,-2,-2,1,-7,-10,-7,-4,2
1529297449255037,0,3,17,14,4,0,0,-9
1529297449269110,2,-1,2,3,-2,-2,10,-12
1529297449269110,-2,-2,-3,0,3,1,-21,-9
1529297449285081,0,-2,-6,-4,2,-3,4,14
1529297449285081,-7,-1,-5,5,0,3,7,0
1529297449300057,3,-6,7,2,3,1,7,-3
1529297449300057,-4,4,13,6,-7,-3,0,6
1529297449307248,2,-1,0,7,-5,-4,6,-1
1529297449307248,-4,-3,-9,-24,-1,2,-7,-3
1529297449321270,4,11,3,-6,-17,-1,-3,7
1529297449321270,-1,-1,4,14,8,3,9,2
1529297449337230,-1,-5,-9,16,15,0,-1,3
1529297449337230,0,-2,-8,-3,0,1,5,-2
1529297449344533,-7,-9,5,-10,-4,-6,-24,-18
1529297449344533,-4,-2,5,-18,-15,-3,11,3
1529297449359431,5,7,-10,-13,-7,0,6,0
1529297449359431,5,2,5,-6,-11,-3,-13,18
1529297449367410,2,-3,-8,14,21,3,-2,1
1529297449367410,5,23,19,9,-3,4,18,6
1529297449389626,0,2,-2,6,18,9,1,2
1529297449389626,2,-7,-4,34,23,3,3,2
1529297449396632,2,18,12,-10,-11,-5,-1,-3
1529297449396632,-2,-1,7,-11,-23,-3,-7,-2
1529297449412157,0,7,-5,11,14,-4,2,-3
1529297449412157,-3,-9,-5,-17,-23,-8,3,-1
1529297449419503,3,10,25,-2,33,6,-4,4
1529297449419503,-1,-7,-18,6,-1,3,-6,-7
1529297449434454,-2,-4,-12,-10,-2,0,-4,5
1529297449434454,-2,-4,-10,3,-15,-6,-2,-10
1529297449442666,1,7,13,-4,-15,-7,-4,4
1529297449442666,-6,-6,2,7,16,4,6,-3
1529297449457482,-1,-7,9,-6,3,-1,-4,-4
1529297449457482,-3,-10,-20,0,-1,3,2,1
1529297449464912,1,4,10,-10,-17,-4,0,3
1529297449464912,0,1,10,-2,6,-5,1,-1
1529297449479460,-3,-1,-8,8,1,9,2,1
1529297449479460,5,9,9,19,6,-9,-3,0
1529297449486405,-6,-6,13,-7,-14,1,-6,-2
1529297449486405,-2,-2,-8,-8,6,11,3,-3
1529297449494384,-1,-2,-12,-1,2,-6,-2,-1
1529297449494384,0,5,2,8,7,6,2,3
1529297449509634,-2,3,4,-2,-7,-8,0,1
1529297449509634,3,10,12,5,1,-1,2,0
1529297449516855,-6,-14,-17,-8,-6,0,-7,-5
1529297449516855,-2,-3,-12,-10,-5,-4,0,-4
1529297449531585,-5,-5,17,5,10,5,-2,-5
1529297449531585,0,1,-15,-7,-3,3,5,3
1529297449540218,-2,-3,-15,-20,-8,-6,-4,-3
1529297449540218,1,5,2,8,28,2,-4,-3
1529297449547201,1,2,-10,10,-13,-2,1,1
1529297449547201,-1,-4,-1,-11,4,0,-1,4
1529297449554470,-2,-5,-3,-5,-7,-6,-1,-9
1529297449554470,-1,-1,-4,-12,-7,4,4,1
1529297449569139,4,8,10,9,1,-3,0,-2
1529297449569139,-5,-9,-3,-7,-9,-12,-6,-3
1529297449577400,0,2,-3,-1,-4,-3,3,2
1529297449577400,0,2,1,9,-3,8,0,0
1529297449591403,-1,-1,12,-6,5,-5,-5,-1
1529297449591403,-1,-3,-9,3,-6,-1,6,1
1529297449599343,1,5,6,7,8,1,-8,-3
1529297449599343,4,2,3,18,-8,-6,-2,5
1529297449606325,0,-5,-3,-14,-5,2,1,1
1529297449606325,-4,-6,-15,-11,1,1,-2,-1
1529297449614583,2,7,7,11,3,3,6,-3
1529297449614583,-4,-4,4,-4,4,1,-3,-3
1529297449636750,1,4,8,-1,-15,-8,-3,2
1529297449636750,-2,-5,0,1,-5,-7,-9,-8
1529297449644802,-2,-4,-10,-3,9,14,5,5
1529297449644802,-2,1,-1,-5,-6,-4,3,-2
1529297449659705,-1,0,6,-3,5,0,-3,-1
1529297449659705,0,1,8,-3,-11,-4,-1,-3
1529297449667543,-2,-2,-4,3,13,-5,-5,1
1529297449667543,0,-3,1,-1,-4,-7,-10,-5
1529297449674692,-1,0,-5,15,12,11,24,3
1529297449674692,1,-3,-6,-1,-4,0,-3,0
1529297449689648,-3,3,5,6,12,-7,-11,-4
1529297449689648,-5,0,8,2,-2,-3,-5,-1
1529297449697482,4,4,2,4,4,7,10,3
1529297449697482,-5,-5,-9,-2,0,-4,-8,-4
1529297449712613,-3,-9,-14,-7,-16,0,2,-1
1529297449712613,-1,0,3,2,10,-4,0,0
1529297449719631,3,2,5,0,-2,-4,-5,3
1529297449719631,-5,3,10,5,-2,2,4,-6
1529297449726621,-1,-1,-6,-11,-9,-7,-10,-4
1529297449726621,2,-2,-9,2,3,5,1,-2
1529297449734599,-3,-4,-3,0,-2,3,-4,-1
1529297449734599,1,1,-3,2,7,-1,5,-5
1529297449756507,3,1,11,9,1,1,6,13
1529297449756507,3,2,4,-2,0,0,-1,-10
1529297449764478,-2,-4,-5,0,-3,-4,-1,-3
1529297449764478,-2,-1,-3,-1,0,-9,-6,-1
1529297449787531,0,-2,-2,-2,2,9,-1,-3
1529297449787531,0,1,6,-4,-8,1,-2,4
1529297449794682,-4,-5,-5,-2,-2,-2,-1,-3
1529297449794682,0,-4,-6,-3,4,7,1,4
1529297449801932,-3,-3,-2,0,2,-6,-1,-1
1529297449801932,0,0,3,9,5,1,-2,3
1529297449816973,-1,0,-1,8,10,-2,-3,-2
1529297449816973,-1,-3,-6,-11,-13,1,-1,-2
1529297449825171,-2,-4,0,20,7,-2,0,-1
1529297449825171,-1,-2,-2,-3,-2,4,0,0
1529297449832244,0,1,-2,-20,-15,-2,-3,-4
1529297449832244,-2,-3,-6,8,-1,-2,1,-1
1529297449839983,1,1,2,1,9,0,2,-2
1529297449839983,0,-4,-5,1,5,3,0,-1
1529297449846902,-3,-1,0,-5,-1,-2,-4,-2
1529297449846902,2,6,8,-3,-1,-3,0,0
1529297449855091,-4,-8,-4,-10,-13,-3,-1,-4
1529297449855091,-1,-1,-1,7,4,0,-4,-1
1529297449869753,1,4,-1,6,2,-2,1,-1
1529297449869753,-3,-3,-1,-9,-2,-1,0,0
1529297449877139,0,3,3,2,0,-2,0,0
1529297449877139,-2,-3,-6,-2,1,-2,0,-2
1529297449891697,-3,-4,-6,-1,-5,-3,-1,-2
1529297449891697,-1,-1,3,4,5,2,-1,0
1529297449906654,-1,0,3,0,-1,1,-1,-2
1529297449906654,-2,-3,-3,-7,-5,-3,-2,0
1529297449914664,-1,-2,-2,1,3,-2,-2,-1
1529297449914664,-2,-1,3,-1,2,-1,0,0
1529297449921828,-1,-1,-2,-2,-4,-2,-2,-1
1529297449921828,-1,0,-1,0,-1,0,-2,-1
1529297449936592,0,-4,-3,-3,-3,-2,-3,-2
1529297449936592,0,0,2,0,2,0,1,-3
1529297449944796,-1,2,-2,0,-4,-2,-2,-1
1529297449944796,-1,-3,-3,-5,-3,-1,2,1
1529297449959831,-2,-1,-1,0,-3,1,1,1
1529297449959831,0,-1,1,2,3,0,1,0
1529297449967601,0,1,-1,-6,-4,-1,-2,-2
1529297449967601,-1,0,1,1,-3,-2,-2,-1
1529297449974803,0,-1,-1,1,2,1,-1,-1
1529297449974803,0,0,1,0,1,-1,-2,-2
1529297449989726,-2,0,-1,-1,1,1,0,0
1529297449989726,-3,-5,-5,-4,-7,-2,-2,-3
1529297449997582,0,4,3,0,-2,-5,-2,-2
1529297449997582,-2,-3,-4,-1,0,0,-1,-2
1529297450012454,-3,-3,-4,-2,-1,1,0,0
1529297450012454,0,0,-1,-2,1,0,-1,0
1529297450019379,-1,-1,-1,-1,-1,-1,0,1
1529297450019379,0,1,3,1,-5,-2,-1,-1
1529297450027547,2,0,1,0,1,-3,-2,-1
1529297450027547,0,0,0,0,3,1,0,0
1529297450034608,-2,-4,-4,-4,-4,-3,-3,-3
1529297450034608,1,1,0,0,-1,-1,-1,-1
1529297450050020,0,-2,-1,0,0,3,0,-1
1529297450050020,1,1,0,1,-1,0,0,1
1529297450057084,1,0,-1,-1,-3,-3,-3,0
1529297450057084,-1,1,1,-2,-1,-2,-1,0
1529297450072047,-4,-6,-7,-3,0,-1,0,-3
1529297450072047,-1,0,-3,-1,-2,-1,-3,-2
1529297450079762,0,-2,-3,-2,-4,-1,-2,-1
1529297450079762,-1,-1,-2,1,3,-1,-1,-1
1529297450087003,1,2,2,1,-1,-1,-1,1
1529297450087003,-1,-3,-1,-1,1,3,1,0
1529297450094993,-1,0,1,-1,1,-1,-2,-1
1529297450094993,0,-2,-2,-3,-4,-3,-2,0
1529297450109274,1,3,1,2,2,-1,-1,1
1529297450109274,-4,-7,-5,-3,-4,-2,0,-4
1529297450117498,-1,-1,0,5,4,1,1,0
1529297450117498,-2,0,0,-10,-2,-2,0,-1
1529297450132479,-3,-2,-3,-4,-5,-3,-3,-2
1529297450132479,2,3,1,3,0,-2,-2,1
1529297450147495,-3,-3,-2,0,2,0,-1,-1
1529297450147495,-3,-2,-5,2,2,1,1,-4
1529297450154726,-2,-4,-4,-7,-7,-4,-1,-2
1529297450154726,2,3,4,-1,0,-1,-1,1
1529297450161989,-2,-9,-7,-4,-2,1,1,-2
1529297450161989,-1,-1,0,1,0,0,0,-2
1529297450176709,-2,-1,0,-3,-1,-2,0,1
1529297450176709,-4,-4,-5,-4,-10,-3,-3,-2
1529297450184970,-1,3,2,1,5,0,-2,-1
1529297450184970,0,-6,-4,-2,-2,0,-2,1
1529297450192171,3,3,3,4,-3,0,-2,-2
1529297450192171,0,1,-3,0,3,-4,-2,-2
1529297450199211,-2,-1,-1,-1,-7,-1,-1,-1
1529297450199211,-2,-4,-4,-1,1,1,0,-2
1529297450207188,-2,-3,-3,2,4,2,0,-1
1529297450207188,-3,-3,-4,-5,-5,0,-1,0
1529297450214426,4,5,6,-2,-7,-2,-1,-1
1529297450214426,-4,-3,-1,-5,-9,-2,-2,-3
1529297450229500,-3,-7,-9,-1,12,5,1,-2
1529297450229500,0,0,0,2,2,0,1,0
1529297450237704,0,2,-1,0,2,0,-2,1
1529297450237704,1,0,4,-1,-4,-3,-3,1
1529297450251846,-1,-2,0,-2,-5,-2,-2,-2
1529297450251846,-1,-2,-5,-5,-4,-1,-1,-1
1529297450259831,-2,-4,-2,-3,-2,1,0,-2
1529297450259831,1,-3,-22,2,4,1,1,-1
1529297450267589,-1,2,3,-7,1,-1,1,1
1529297450267589,2,8,56,36,-2,1,0,1
1529297450274806,-1,0,3,0,-1,-3,-4,-2
1529297450274806,-1,-2,-20,-16,-2,0,-1,-1
1529297450289820,-2,-10,-42,-14,-1,-1,-2,-1
1529297450289820,-3,-2,-4,-12,0,-3,0,1
1529297450297534,1,-2,-17,-16,-6,-2,0,-1
1529297450297534,0,9,34,17,5,0,-2,0
1529297450311487,-2,1,31,36,-2,-3,-3,-3
1529297450311487,4,-2,-22,-5,-3,1,-1,-4
1529297450319466,-9,-7,-18,-14,-1,-2,-1,-1
1529297450319466,1,-3,-7,-15,-3,-1,-2,-2
1529297450326448,-2,-1,-9,-13,-5,-2,0,-2
1529297450326448,-1,-3,5,0,0,-3,-1,-2
1529297450334747,-2,4,3,14,4,-1,-2,-1
1529297450334747,-1,-2,-14,-17,-4,-2,-2,2
1529297450349712,-2,3,21,23,-2,0,1,-1
1529297450349712,0,-6,-10,-3,1,-1,-2,-3
1529297450356693,2,0,-7,-3,1,-2,-1,2
1529297450356693,0,0,11,10,2,-1,-1,0
1529297450371653,-1,5,6,-3,1,-2,-3,1
1529297450371653,-5,-7,-19,-11,-2,0,-2,-2
1529297450379629,-1,-3,6,2,-3,-2,3,0
1529297450379629,-1,-2,8,7,-1,-2,2,-2
1529297450386610,-1,1,-6,-9,-3,-1,0,-2
1529297450386610,-1,2,-4,-2,-1,3,0,0
1529297450394592,-3,-5,7,1,-2,1,-2,-2
1529297450394592,-1,0,-1,3,0,3,1,-1
1529297450409868,0,-2,-8,-6,-1,-1,1,1
1529297450409868,0,1,2,-2,1,1,0,2
1529297450416530,-1,-2,4,4,-2,0,1,-1
1529297450416530,-2,-2,-5,-2,-2,-1,0,-2
1529297450431490,-1,1,0,-5,-1,1,-2,-1
1529297450431490,-1,-2,-1,-1,-2,-2,-1,-2
1529297450439469,0,0,-1,-1,-2,-1,-2,0
1529297450439469,-2,0,-1,0,-3,-1,-2,0
1529297450446451,1,-2,2,0,0,-3,-2,0
1529297450446451,-2,0,0,1,0,-2,-3,1
1529297450462412,-2,-2,-5,-4,-3,-3,-2,-3
1529297450462412,0,-1,3,5,1,0,-3,2
1529297450477216,-2,-2,-3,-4,-4,-1,-2,-1
1529297450477216,-2,2,-2,-3,-2,-1,-1,0
1529297450484853,-1,-1,0,-1,0,-3,-3,-1
1529297450484853,0,1,0,2,-2,0,0,-1
1529297450500042,1,-2,-1,-3,-2,-1,0,2
1529297450500042,-3,-1,-3,0,2,0,1,0
1529297450507103,0,0,2,0,-1,2,-2,-1
1529297450507103,-1,1,2,3,0,-2,2,1
1529297450514841,1,-2,-1,-1,-3,-1,2,0
1529297450514841,-1,-2,-4,-6,-2,-3,0,-1
1529297450529250,-2,1,-2,-1,0,0,-1,-2
1529297450529250,0,0,0,0,0,0,-2,-2
1529297450537461,-1,-2,-3,-1,-1,-1,0,0
1529297450537461,-1,-2,-2,0,0,-1,0,-1
1529297450552171,-2,0,-2,-1,-1,-3,-1,1
1529297450552171,-3,-3,-3,-2,0,-1,-1,-2
1529297450559152,-2,0,0,-1,0,-2,-1,-1
1529297450559152,-2,-1,-2,0,-2,0,-1,-1
1529297450567131,1,1,-1,-1,0,0,-2,0
1529297450567131,-2,-2,-3,-1,-3,-2,0,-4
1529297450574336,-1,0,-1,-2,-3,1,-2,-1
1529297450574336,-2,-1,0,-2,-2,-2,-1,-3
1529297450589158,-1,-2,-2,-2,1,-1,-1,-3
1529297450589158,0,-1,-1,-1,-1,-1,-1,-2
1529297450597099,-1,0,0,1,0,-3,0,-1
1529297450597099,-1,-1,-2,0,-2,0,0,-2
1529297450619454,-1,-2,-2,-3,-3,0,1,-1
1529297450619454,0,1,2,2,-3,-1,0,0
1529297450627372,-2,-3,-1,1,1,-1,-2,-1
1529297450627372,-1,-1,-4,-1,0,-2,-2,-1
1529297450634101,-1,-2,0,1,-1,-1,-1,-2
1529297450634101,-2,0,0,-2,-1,0,-1,-1
1529297450642079,1,-1,1,-2,-1,0,-2,-2
1529297450642079,-1,-1,-3,-1,0,0,-1,0
1529297450657398,0,0,-2,-2,-1,-1,-2,-1
1529297450657398,0,0,-1,0,0,0,-2,-1
1529297450664515,-2,-2,-1,-2,-1,-1,0,-1
1529297450664515,0,0,1,-1,-2,-1,0,1
1529297450672508,-3,-1,-1,0,-1,0,0,-1
1529297450672508,-2,0,-2,0,-1,-1,0,0
1529297450678993,-1,-1,-3,-1,-1,0,-1,0
1529297450678993,0,-1,1,-1,-1,-3,0,-1
1529297450686978,0,-1,-2,-1,-2,-3,-2,-1
1529297450686978,0,-1,-1,0,0,-1,-1,-1
1529297450695002,0,0,0,2,-1,1,0,-1
1529297450695002,-2,0,0,-3,-3,0,-1,0
1529297450709466,-1,0,-1,0,-2,-1,-1,-1
1529297450709466,-2,0,-1,-3,-1,0,1,0
1529297450717188,0,0,-1,-1,-2,-1,-1,-1
1529297450717188,-1,-3,-2,-1,0,-2,0,-2
1529297450740133,-1,-2,-1,1,1,-2,-1,0
1529297450740133,0,-1,-1,-1,0,-1,1,-1
1529297450747126,0,-1,0,-1,-2,0,1,0
1529297450747126,-2,-1,-2,-1,-1,-1,-3,-1
1529297450754090,0,-1,-1,-3,0,-1,-1,0
1529297450754090,-1,0,-2,0,-1,0,-2,0
1529297450762073,-2,0,1,-2,-1,0,-2,0
1529297450762073,0,-1,-1,1,-1,-2,-1,-1
1529297450777238,0,0,0,-1,-2,-1,-2,-1
1529297450777238,-1,-2,-1,-1,0,-1,0,0
1529297450784410,1,-2,-2,0,0,-2,0,-1
1529297450784410,-2,-1,1,-2,-1,-2,-1,-1
1529297450792289,-2,0,1,-2,0,-2,0,-1
1529297450792289,-1,-1,0,-2,-2,-1,-2,-1
1529297450800091,-2,0,-2,-1,-2,-5,0,0
1529297450800091,-1,-1,0,-2,-1,-1,-2,-2
1529297450806931,-1,-2,0,1,-2,-2,-2,0
1529297450806931,0,-1,1,0,-2,-2,-1,-1
1529297450814944,-2,0,-3,-2,-1,0,-3,-3
1529297450814944,-1,-1,-2,-2,0,1,-1,-1
1529297450828901,-1,1,0,0,-1,-2,-1,-2
1529297450828901,-1,-2,-1,-1,1,-1,-1,-2
1529297450837107,0,-1,-2,-1,-1,1,-2,-1
1529297450837107,0,-2,-2,-2,1,0,-1,1
1529297450851839,-1,-1,0,-1,-1,0,0,-1
1529297450851839,0,-2,-2,0,-1,-3,-1,-2
1529297450859792,-3,-1,-1,-2,0,-1,0,-1
1529297450859792,-2,-1,-2,0,-1,-1,1,-1
1529297450866999,-2,-1,-2,-2,-2,-1,-2,0
1529297450866999,-1,1,0,-2,0,-1,-1,-2
1529297450874926,-1,0,-1,0,-1,-1,-1,0
1529297450874926,1,-1,-2,0,-1,-1,-2,0
1529297450889999,-3,-2,-1,-1,-2,0,-3,0
1529297450889999,-2,-1,0,0,-1,-2,0,2
1529297450896974,-1,-1,-1,-1,0,-2,-1,0
1529297450896974,-2,-2,-1,0,-1,-1,-2,0
1529297450912467,0,0,0,-1,-2,0,0,-2
1529297450912467,-2,-1,-2,-1,-1,0,-1,-3
1529297450919195,1,-2,0,-3,-3,-1,0,-2
1529297450919195,0,-2,0,-1,-2,-3,-2,-2
1529297450934518,1,-2,-2,-2,0,1,-2,-1
1529297450934518,-1,-1,-1,-2,-1,0,-2,-2
1529297450942382,0,1,-2,0,-1,-1,-3,-1
1529297450942382,0,-2,-1,-1,-1,0,-1,1
1529297450957443,-1,-1,-1,0,-1,-2,-2,-2
1529297450957443,-1,-1,-2,-1,0,-1,-1,-1
1529297450964360,-1,-3,0,0,0,-1,-2,-1
1529297450964360,0,-1,-1,-1,-2,-1,-1,-1
1529297450979314,-1,-1,-1,-2,-1,-1,0,0
1529297450979314,-1,-2,-2,-1,-1,0,-1,1
1529297450987622,-1,-1,0,-2,0,-1,0,-2
1529297450987622,-1,-1,-2,-3,-2,-2,-1,-1
1529297450995044,0,-2,-2,0,0,-1,-1,-1
1529297450995044,-2,0,-1,0,1,-1,-1,-2
1529297451010171,-1,-2,-1,1,-1,-1,1,-1
1529297451010171,-1,0,-1,0,0,0,-2,-2
1529297451016899,-2,-1,-2,-2,-2,-2,-1,-1
1529297451016899,-1,0,0,-1,-1,0,-2,-2
1529297451032600,0,-1,0,-1,-1,-1,-3,-2
1529297451032600,1,-1,-2,-2,-1,0,-1,-1
1529297451039603,-1,-1,-1,-1,0,-1,-2,-1
1529297451039603,-2,0,-1,-3,-3,-2,1,0
1529297451047534,-2,-1,-2,0,-1,-1,0,0
1529297451047534,-1,-2,2,-2,-2,-1,0,-1
