timestamp,emg1,emg2,emg3,emg4,emg5,emg6,emg7,emg8
1529304956400105,0,0,1,-3,0,-1,1,-1
1529304956400105,0,-1,-1,-1,0,-2,-2,-3
1529304956403099,1,0,-1,-1,-1,0,-1,0
1529304956403099,1,0,-1,-2,0,-2,-1,-1
1529304956403099,0,0,-1,0,0,0,-1,1
1529304956403099,-1,2,-1,-2,1,0,1,1
1529304956406095,-2,-1,-2,-2,0,1,-1,0
1529304956406095,-1,0,0,-2,-1,-1,-2,-2
1529304956414067,1,0,0,-1,1,0,-2,-1
1529304956414067,-2,-1,0,0,-2,0,2,-2
1529304956423044,-1,0,-1,0,-1,-1,-1,-2
1529304956423044,-1,0,0,1,-2,0,1,1
1529304956436008,-2,-2,-2,-1,-2,-3,-4,-1
1529304956436008,1,-1,0,0,0,-2,-2,0
1529304956446981,-1,-2,-2,1,0,-3,0,-1
1529304956446981,-3,-1,-4,-1,0,0,-1,-2
1529304956449974,1,0,-2,0,1,-3,1,0
1529304956449974,-1,0,-2,-1,-7,0,-2,2
1529304956462956,1,2,3,2,4,1,-1,0
1529304956462956,0,-3,-3,-5,-7,-1,-2,-3
1529304956475904,0,-4,-6,-3,0,1,-1,-2
1529304956475904,1,4,12,15,3,0,1,-1
1529304956480889,-1,0,-6,-9,-1,-3,1,1
1529304956480889,0,2,2,3,3,0,-1,-2
1529304956528762,1,2,15,10,-5,-4,-2,0
1529304956528762,0,-1,1,-3,2,-4,0,-1
1529304956529759,-1,0,-9,-7,-15,-2,0,0
1529304956529759,-2,-9,-14,-3,0,-9,-4,-3
1529304956530755,-1,3,15,2,3,3,-4,-3
1529304956530755,1,5,10,3,4,1,-1,1
1529304956532750,-4,-17,-16,9,17,0,-1,-2
1529304956532750,-1,4,-2,-4,-16,-35,-2,-1
1529304956542724,-3,4,-3,-22,-3,37,4,-2
1529304956542724,-1,-1,-8,-5,-16,-6,0,-3
1529304956547711,2,2,17,8,5,-4,-1,-2
1529304956547711,1,4,4,3,-4,7,-1,1
1529304956556686,4,4,3,9,6,-27,1,2
1529304956556686,0,-6,-16,-13,-11,18,2,2
1529304956570649,-5,-2,-1,2,16,6,-1,-2
1529304956570649,-5,-8,-4,-2,-6,-1,-1,-2
1529304956579625,-6,-5,-4,-1,-3,-5,-3,-5
1529304956579625,-4,-14,-27,-10,-36,8,-1,-3
1529304956585610,2,10,15,9,30,-6,-3,1
1529304956585610,3,28,22,-23,-19,12,0,0
1529304956600577,4,8,19,23,1,-8,0,2
1529304956600577,-2,2,7,10,16,1,1,-2
1529304956607551,-2,-6,-21,-10,-9,3,-1,2
1529304956607551,-4,-24,-29,-1,16,5,-1,-2
1529304956616528,1,-1,15,-12,-18,11,5,5
1529304956616528,3,12,17,12,8,-19,-2,2
1529304956630489,2,3,-6,-13,-22,-4,0,-2
1529304956630489,-6,-9,6,14,1,-1,2,-2
1529304956640463,1,-9,-45,-11,19,8,1,1
1529304956640463,-2,1,10,-9,-5,-2,-3,0
1529304956645450,1,10,5,8,2,-1,-1,0
1529304956645450,2,-1,8,0,-13,-11,-2,0
1529304956660411,-3,-4,-4,-3,19,5,-3,-2
1529304956660411,-2,-14,-23,3,-7,3,0,0
1529304956667391,-6,-5,2,-12,-4,-7,-1,-1
1529304956667391,5,16,26,13,5,17,3,3
1529304956676367,2,4,14,3,7,-12,1,1
1529304956676367,2,7,5,1,11,5,2,0
1529304956690329,-2,-11,-28,-30,-34,-8,-2,-2
1529304956690329,-8,-16,-7,10,23,5,1,-3
1529304956699306,-2,-11,-29,-13,-5,4,-7,-4
1529304956699306,-2,5,24,2,-18,-11,-3,-2
1529304956705301,3,9,21,31,36,8,3,0
1529304956705301,4,15,9,-2,8,9,0,0
1529304956720281,-4,-22,-42,-5,-4,-20,-2,-2
1529304956720281,-2,-8,6,-22,-25,0,0,0
1529304956728227,5,19,19,13,-4,-5,1,3
1529304956728227,3,11,5,8,30,15,2,1
1529304956737206,-2,-6,9,1,-23,-7,-3,-2
1529304956737206,-1,3,-6,-1,25,3,-2,-3
1529304956750171,-4,-2,17,1,-35,-21,-3,-2
1529304956750171,0,-13,-35,-8,11,19,0,-1
1529304956759146,0,7,5,2,-26,-4,-3,-2
1529304956759146,-2,3,5,14,16,-7,-1,1
1529304956765157,-3,-12,-25,-9,29,9,-1,-1
1529304956765157,-6,-14,5,-22,-87,-5,-3,-2
1529304956780090,4,16,12,18,58,-15,-2,0
1529304956780090,2,4,2,2,-12,6,2,0
1529304956788069,-3,1,10,12,7,3,-4,-5
1529304956788069,4,-2,-8,-13,2,-12,-3,1
1529304956797043,-1,-3,1,-8,-25,-3,2,0
1529304956797043,1,4,-1,7,32,0,-2,-1
1529304956810008,-1,-4,-6,-2,5,5,0,0
1529304956810008,-2,-9,-12,-1,6,-9,-4,-1
1529304956818985,-2,11,10,-12,-40,-8,-1,0
1529304956818985,2,-3,-8,5,26,4,4,2
1529304956824969,-3,-7,-7,-1,-9,-12,-2,-1
1529304956824969,0,8,14,3,10,24,1,-1
1529304956839931,-2,-2,-7,8,35,0,1,5
1529304956839931,-6,-12,-12,-6,-43,-20,-13,-11
1529304956847910,6,3,6,-10,0,9,-1,-2
1529304956847910,3,0,-2,2,-4,-24,13,21
1529304956856884,0,5,3,-12,-31,0,0,-10
1529304956856884,-3,-4,-6,8,36,8,0,3
1529304956869852,-4,5,4,-2,-27,-6,-3,-4
1529304956869852,2,-1,-4,7,17,-8,-6,-2
1529304956878827,-5,-13,-5,-12,-33,7,5,-1
1529304956878827,-3,-3,0,2,-5,-11,7,-2
1529304956893858,4,1,-4,-17,10,25,8,4
1529304956893858,-5,-6,-6,7,12,-3,-5,-7
1529304956900783,2,0,7,2,3,2,-2,1
1529304956900783,3,4,5,9,17,5,0,0
1529304956907748,-4,-6,-3,20,26,10,1,1
1529304956907748,0,-1,-8,-25,-18,-13,-2,0
1529304956916723,2,3,7,-1,2,7,-4,-1
1529304956916723,1,1,2,1,9,16,1,-1
1529304956930736,3,3,-2,-4,3,-4,6,10
1529304956930736,-2,6,9,-1,-23,-9,-12,-12
1529304956939663,1,-3,-2,12,20,3,-3,1
1529304956939663,2,3,-2,-9,-9,-5,0,3
1529304956945649,2,4,8,9,-5,-17,0,-2
1529304956945649,-2,1,-6,-21,-42,-8,-5,-4
1529304956960651,1,-3,-3,4,26,24,4,10
1529304956960651,-4,-2,3,-2,-20,-9,-1,-17
1529304956967589,3,1,-1,-4,2,-9,-2,-2
1529304956967589,-1,-3,-5,-5,-34,-17,-5,-1
1529304956976564,0,-3,-5,2,10,2,1,1
1529304956976564,1,3,1,-5,-14,-27,-6,8
1529304956990559,0,2,2,-1,8,11,0,-5
1529304956990559,0,-2,3,15,10,7,-1,-3
1529304956999539,1,2,-3,4,5,5,4,9
1529304956999539,-3,-4,-5,-14,-35,-3,-11,-20
1529304957005491,-2,-4,-5,-12,-10,1,7,12
1529304957005491,-1,2,8,18,22,32,4,0
1529304957020446,-3,-4,-5,-2,23,-20,-6,-5
1529304957020446,0,5,2,5,7,18,5,10
1529304957027440,-2,-4,-4,-1,5,11,-1,-4
1529304957027440,5,3,4,-4,-9,-8,1,6
1529304957036426,0,5,8,18,24,4,6,-5
1529304957036426,2,3,1,-4,-1,5,2,5
1529304957050368,-5,-4,-2,-2,-28,-9,-6,-8
1529304957050368,4,1,-2,1,11,-6,7,15
1529304957059344,2,0,0,-9,-32,-6,-5,-9
1529304957059344,2,-4,-1,-2,5,1,-4,4
1529304957073306,2,-4,-5,-2,-4,9,15,16
1529304957073306,-5,-2,-3,1,11,3,-4,-15
1529304957080288,1,1,-1,-4,-4,-23,-4,1
1529304957080288,0,-5,-6,-1,18,21,6,6
1529304957087269,-4,-2,1,6,-8,-20,-15,-7
1529304957087269,-2,-5,-2,13,25,-5,5,-1
1529304957097286,-4,-4,-7,-20,-54,-1,3,-2
1529304957097286,0,0,-1,-6,-7,-5,-7,-3
1529304957110208,0,-2,-2,-5,-9,-12,-5,-3
1529304957110208,-2,-4,-3,-1,-8,2,1,-4
1529304957119197,-1,2,3,4,1,-2,-4,2
1529304957119197,-1,0,1,6,1,-14,-2,1
1529304957133176,-1,3,-4,-21,-22,5,-4,-7
1529304957133176,1,5,2,-3,3,3,7,1
1529304957140162,-3,-1,1,3,5,0,-3,-2
1529304957140162,-1,1,0,-15,-34,-1,5,2
1529304957148134,-1,-7,-5,16,23,-14,-10,-5
1529304957148134,-2,0,1,2,20,5,-5,-1
1529304957157103,1,3,1,-13,-4,4,7,2
1529304957157103,-2,-1,1,11,10,-7,-1,-3
1529304957170046,1,0,-1,1,12,0,-6,-4
1529304957170046,0,-1,-1,2,18,-8,3,2
1529304957179080,-4,-2,-1,16,21,6,-1,1
1529304957179080,0,0,3,4,28,11,-11,-3
1529304957194187,-7,-5,-4,-7,-35,-3,0,-16
1529304957194187,4,8,6,6,16,3,0,3
1529304957200066,0,-3,-5,-1,-3,17,-8,3
1529304957200066,-3,-4,-7,-6,-1,-6,20,2
1529304957208005,4,1,4,11,13,10,4,8
1529304957208005,-2,2,5,5,12,-2,-4,-3
1529304957216982,-5,-3,0,-10,-11,-3,-5,-4
1529304957216982,3,4,10,18,37,19,-1,5
1529304957229948,1,-1,-4,-5,-15,-2,2,1
1529304957229948,-5,-9,-10,-9,4,-32,-11,-6
1529304957238923,0,-4,-1,4,3,0,2,0
1529304957238923,-2,-2,0,-4,6,-3,-1,-2
1529304957253884,4,6,12,18,41,12,0,4
1529304957253884,1,1,-6,-17,-14,7,-6,-1
1529304957259869,0,-3,-6,-2,8,1,3,-2
1529304957259869,-3,-3,-3,-3,-17,-6,-4,-3
1529304957267846,1,4,4,1,4,-2,7,13
1529304957267846,-2,3,7,7,-15,-1,-18,-18
1529304957276823,-1,-2,-5,-4,-8,-25,3,0
1529304957276823,0,-2,-6,-9,-5,-3,-4,-4
1529304957290784,-2,-1,-3,-3,7,-4,-3,0
1529304957290784,1,0,-5,-7,-20,5,7,3
1529304957298763,-4,-3,1,17,22,-2,-1,-3
1529304957298763,1,1,3,-18,12,-7,-7,-2
1529304957313888,-1,-3,-6,-7,-23,-5,-2,-2
1529304957313888,1,1,0,-9,0,10,4,6
1529304957320860,0,-1,-4,2,-7,5,-5,-4
1529304957320860,-1,1,-2,9,-6,1,4,4
1529304957327842,1,2,0,-1,6,6,0,1
1529304957327842,0,2,5,5,7,2,0,0
1529304957336661,2,2,1,-7,-16,1,2,2
1529304957336661,0,0,-4,8,9,-7,-3,-1
1529304957359600,-4,-7,-7,-29,-62,-14,-7,-4
1529304957359600,3,7,5,9,5,-7,-1,-3
1529304957360598,0,3,2,-7,-10,2,-8,-1
1529304957360598,-2,-1,2,6,-11,-1,0,-1
1529304957373610,0,2,4,25,33,10,3,0
1529304957373610,0,-3,-6,-31,-18,-2,6,12
1529304957380700,0,2,3,11,15,3,-14,-19
1529304957380700,1,0,-1,2,1,1,2,0
1529304957387574,-1,-1,-2,-4,-6,1,-5,0
1529304957387574,-1,-1,2,11,-11,5,4,1
1529304957402725,3,0,-1,-8,17,13,2,6
1529304957402725,-2,-5,-12,-15,-63,-24,-5,-4
1529304957410830,2,1,4,4,15,29,6,-3
1529304957410830,-1,0,-1,5,1,-6,0,0
1529304957419882,3,0,2,-4,1,0,8,14
1529304957419882,-3,-1,-1,3,-4,-6,-5,-14
1529304957433803,-2,-4,-1,-17,-8,-9,-3,0
1529304957433803,-2,-6,-4,1,8,2,3,0
1529304957439824,-2,2,3,1,3,3,0,0
1529304957439824,0,-1,-1,-4,2,1,0,3
1529304957447815,0,0,-4,3,3,-9,0,-4
1529304957447815,-1,0,0,0,3,2,-1,0
1529304957462763,-2,-3,-3,-2,10,-6,2,-2
1529304957462763,3,0,2,-2,-11,11,1,6
1529304957470756,1,0,-5,-7,14,-3,-4,-5
1529304957470756,-1,-4,-3,0,-4,4,5,9
1529304957479675,2,0,-1,0,10,-2,-7,-10
1529304957479675,1,2,9,5,6,3,1,1
1529304957493640,1,2,6,8,8,2,0,1
1529304957493640,0,-3,-5,3,-2,-4,1,1
1529304957500783,-1,2,6,-7,-19,-3,2,2
1529304957500783,-2,-3,-8,-1,17,7,1,2
1529304957515941,-1,3,14,19,-2,-8,-4,1
1529304957515941,-1,-1,-6,-18,2,4,-2,-3
1529304957522760,0,2,5,-2,-12,3,5,3
1529304957522760,-1,-1,-6,-4,8,22,1,0
1529304957530787,-3,-6,-13,5,-1,-17,0,-2
1529304957530787,3,6,17,12,-4,-2,-3,-5
1529304957539719,-3,-5,-9,1,-8,-3,-3,-5
1529304957539719,0,1,0,-19,0,-4,5,2
1529304957553691,-1,-3,-4,2,18,1,0,0
1529304957553691,-1,-2,-3,7,3,-5,-5,-5
1529304957560872,-4,-3,-7,-4,-7,-6,-3,0
1529304957560872,-2,-2,-3,4,8,0,1,2
1529304957575799,2,2,3,-7,-2,4,-2,-1
1529304957575799,0,-2,-3,4,5,-6,-4,-1
1529304957582848,1,1,2,-1,-5,4,4,2
1529304957582848,2,-1,-6,2,-7,-11,-4,0
1529304957599035,-1,0,-2,0,-5,-7,-2,-1
1529304957599035,-2,-2,-6,-6,16,35,5,-2
1529304957601033,3,-1,-4,-5,-10,-3,5,13
1529304957601033,-1,-1,5,2,-2,-9,-19,-21
1529304957613000,-6,-1,-2,-2,2,6,4,2
1529304957613000,-2,1,0,-6,-18,-18,-6,-5
1529304957620121,3,-1,-3,-9,-9,10,3,8
1529304957620121,3,0,0,0,-15,10,-2,-1
1529304957636100,-1,-2,-3,-4,7,-8,6,9
1529304957636100,-4,-8,-20,-2,7,-4,-3,-3
1529304957643076,-1,10,30,8,-6,-6,-1,-1
1529304957643076,3,5,7,8,11,-4,-1,4
1529304957659033,0,-6,-8,-19,-32,3,0,-4
1529304957659033,-1,-3,5,15,17,-13,-6,-3
1529304957660892,0,-8,-17,-10,-4,0,-1,-4
1529304957660892,-2,-3,3,7,2,-4,4,3
1529304957673983,0,0,-6,-7,-4,0,-3,0
1529304957673983,4,4,10,-6,-4,4,8,10
1529304957680829,-4,-1,-1,6,2,-7,-11,-14
1529304957680829,-1,-2,-5,3,17,2,5,6
1529304957696141,0,2,4,-3,-10,1,-3,-4
1529304957696141,2,4,-3,-10,-6,-1,4,5
1529304957703314,-2,-1,-4,13,13,-2,-4,-5
1529304957703314,0,3,-4,-23,-18,9,8,6
1529304957719328,-2,-1,10,17,8,-6,-5,-6
1529304957719328,-1,-1,2,0,-1,-3,-4,-6
1529304957720325,-2,0,-9,-2,4,0,2,0
1529304957720325,-3,-3,-3,-2,-8,-1,0,0
1529304957732288,1,0,-1,-2,4,0,-3,0
1529304957732288,-2,-1,-4,-11,-20,-5,-3,-5
1529304957742245,0,0,6,8,6,-8,0,-1
1529304957742245,-3,-1,-1,22,12,-2,-2,-3
1529304957756216,0,-2,-5,-36,-27,3,0,-2
1529304957756216,1,-1,1,2,16,3,-3,2
1529304957763194,-1,1,0,-1,-2,0,1,-2
1529304957763194,-8,-6,-3,4,-1,-3,-4,-4
1529304957779113,0,3,6,21,19,1,2,0
1529304957779113,-3,-2,0,1,-14,-3,-2,-3
1529304957781109,1,-3,-8,-17,-7,6,1,2
1529304957781109,1,4,9,12,11,-6,-1,-2
1529304957793077,3,5,3,-9,13,8,5,4
1529304957793077,-4,-7,-14,-8,-27,-3,-1,-2
1529304957802052,2,6,11,9,4,-1,1,1
1529304957802052,0,-1,-1,-2,0,-9,-3,2
1529304957816069,0,1,2,9,13,5,4,2
1529304957816069,3,4,6,22,22,8,2,-2
1529304957822998,-4,-5,-9,-27,-33,-6,-3,-2
1529304957822998,-3,-4,-6,9,24,1,-3,-5
1529304957838955,2,-1,-2,-8,-12,1,5,5
1529304957838955,-3,-3,0,11,31,2,-3,-6
1529304957840955,-5,-3,-7,5,-11,-7,-4,-1
1529304957840955,5,6,13,-4,9,7,6,6
1529304957853368,-2,-8,-15,-17,-39,-13,-7,-5
1529304957853368,2,0,-6,-3,8,6,2,2
1529304957862259,-5,-1,-3,20,28,3,-5,0
1529304957862259,-1,3,8,-26,-19,2,-1,-5
1529304957876426,0,1,8,11,17,2,1,3
1529304957876426,-3,-6,-8,-7,-15,-5,-2,-6
1529304957882409,5,2,3,3,13,4,-1,-3
1529304957882409,0,-2,-4,2,-8,-6,-4,6
1529304957899396,-6,-6,-7,-8,-4,-1,-5,-10
1529304957899396,-2,0,2,-8,-13,-3,1,6
1529304957900396,-1,-2,1,-7,-1,8,1,-13
1529304957900396,6,1,-2,2,-1,-4,3,13
1529304957912328,3,-1,-2,-1,16,6,25,13
1529304957912328,-6,-1,0,1,-23,-7,-7,-19
1529304957921319,-6,-4,-5,-10,-10,2,10,4
1529304957921319,2,-3,-5,-2,-3,9,4,-1
1529304957936319,-1,0,-7,0,-9,-14,-10,-4
1529304957936319,1,0,2,7,26,10,4,9
1529304957943266,-1,-4,-4,-2,2,-5,2,-1
1529304957943266,1,0,-4,-11,-12,-1,1,4
1529304957959258,6,3,9,15,5,5,7,21
1529304957959258,-6,-1,-1,-12,-25,-12,-21,-17
1529304957961258,2,-2,-1,15,21,-1,4,1
1529304957961258,-4,-2,-2,-2,-1,0,6,-7
1529304957973166,-4,-3,-6,-5,-4,0,-7,-9
1529304957973166,0,4,10,6,7,-2,4,9
1529304957982142,3,2,4,-3,6,3,-6,6
1529304957982142,-1,0,0,2,-7,-1,2,-6
1529304957996104,0,1,1,13,6,0,-5,-9
1529304957996104,2,0,-2,20,14,-3,-10,-4
1529304958003085,4,1,0,-32,-36,-3,0,4
1529304958003085,-4,-5,-4,3,23,-2,-2,-3
1529304958027021,2,4,14,3,-22,-1,3,1
1529304958027021,-2,-4,-10,0,29,5,-2,-3
1529304958028019,-2,-1,-3,3,-12,-9,-14,-13
1529304958028019,-1,2,1,-9,-3,0,-6,-4
1529304958033005,-6,-5,-7,0,11,3,-7,-15
1529304958033005,8,5,6,-2,-1,3,11,17
1529304958041981,-1,-1,2,11,14,3,15,1
1529304958041981,-2,-4,-4,4,12,-2,-5,-1
1529304958055944,-2,2,2,-6,-18,-13,-11,-6
1529304958055944,0,-2,-1,-7,0,2,1,6
1529304958062926,-2,-1,-2,-9,-16,-9,-2,-1
1529304958062926,-1,5,12,14,-5,0,-5,-4
1529304958078883,0,-1,0,0,-2,-1,5,0
1529304958078883,0,2,0,-4,3,5,4,3
1529304958080891,1,0,3,10,-2,3,17,19
1529304958080891,-4,-3,-2,-8,7,-3,-16,-18
1529304958092847,-2,-4,-9,-21,-20,-1,-3,5
1529304958092847,0,1,3,-4,-19,-9,1,-4
1529304958101823,-1,0,1,8,29,8,2,1
1529304958101823,3,0,-9,6,-3,3,1,4
1529304958115786,0,3,2,2,13,3,-2,-3
1529304958115786,-3,-1,0,2,11,1,2,-3
1529304958122767,2,3,9,5,1,-11,-11,-6
1529304958122767,-2,-5,-9,-5,-7,15,8,2
1529304958138724,0,1,5,12,18,0,-4,6
1529304958138724,-5,0,-6,-30,-46,1,5,-16
1529304958140719,-2,2,4,8,15,2,-11,-11
1529304958140719,-3,0,1,10,1,-5,0,2
1529304958152687,-1,-4,-9,-15,4,3,2,4
1529304958152687,3,1,4,5,-6,4,13,13
1529304958161663,0,-4,-2,-9,-11,-9,-10,-9
1529304958161663,2,-3,-2,-1,-1,-3,1,1
1529304958175626,-3,-3,1,11,-7,-4,-5,-9
1529304958175626,0,2,3,-1,19,4,6,3
1529304958182608,-1,-3,-6,-15,-17,1,-1,0
1529304958182608,-1,2,-1,1,-6,-9,-3,1
1529304958199680,2,-1,-4,-1,2,4,1,-1
1529304958199680,1,-1,-6,5,0,-6,-7,-2
1529304958200558,-5,-2,2,-2,7,7,6,4
1529304958200558,0,-4,-2,-10,-17,-6,-4,-2
1529304958212721,-1,2,2,15,4,-2,1,2
1529304958212721,-1,1,-4,-10,-1,4,-9,-5
1529304958221661,3,1,-2,3,-7,-7,1,1
1529304958221661,0,3,3,-7,-1,7,3,2
1529304958236301,-2,-1,0,3,-4,-9,-3,-6
1529304958236301,1,1,3,10,3,-4,1,3
1529304958243279,-3,-3,-5,3,10,3,-5,-2
1529304958243279,2,-2,-9,-4,-6,-6,-1,2
1529304958259418,0,1,1,-9,-9,-5,2,2
1529304958259418,-1,0,4,-3,-2,7,-2,-2
1529304958260406,-1,0,-5,-5,4,-4,-1,2
1529304958260406,0,-3,-7,-10,-14,-10,2,1
1529304958272374,-1,-2,-1,0,8,14,0,-4
1529304958272374,2,0,0,3,1,-3,0,3
1529304958282362,1,0,-1,0,1,-2,-3,-1
1529304958282362,-7,-4,1,10,4,2,4,0
1529304958295313,-1,2,-3,-13,-8,-4,-4,-1
1529304958295313,-2,-1,5,-5,-10,-10,-4,-2
1529304958304302,2,-2,-2,7,6,4,3,1
1529304958304302,-1,-1,2,-2,7,4,3,-3
1529304958318407,-1,2,14,15,-1,-2,1,1
1529304958318407,-4,-8,-7,0,-3,-12,-6,-6
1529304958325908,11,1,1,-6,-6,-5,-4,3
1529304958325908,-2,-1,-6,3,8,1,1,-3
1529304958333278,-5,-2,-8,-8,-7,0,1,-3
1529304958333278,-5,0,10,-3,5,7,3,1
1529304958341461,-6,1,3,2,-13,-3,-1,-2
1529304958341461,2,-1,0,-1,-1,-10,-1,2
1529304958356416,6,-2,-8,0,6,3,-4,-2
1529304958356416,1,-2,-4,2,0,-2,-2,0
1529304958362439,-4,-1,-4,-1,3,-4,1,1
1529304958362439,3,5,6,5,-5,12,1,2
1529304958378542,-2,-2,0,-1,6,-1,-1,0
1529304958378542,0,-1,-4,0,-2,0,-1,0
1529304958385554,-2,-1,0,4,5,-2,-2,-3
1529304958385554,1,1,-3,-6,-6,1,-3,-3
1529304958393387,-2,-1,-2,0,3,-3,2,0
1529304958393387,0,0,-2,0,-2,2,1,2
1529304958401337,-2,-1,-1,-5,-3,1,-2,0
1529304958401337,-1,0,0,-2,1,-2,-2,0
1529304958416572,-2,-3,-1,-3,-7,4,1,-2
1529304958416572,2,-1,-5,1,2,-2,0,-3
1529304958422558,1,0,-1,-1,2,6,4,-1
1529304958422558,3,0,3,-3,1,3,-4,3
1529304958439541,-4,-4,-8,-8,-3,-7,-7,-5
1529304958439541,1,3,7,13,-2,-6,1,3
1529304958445417,-11,-3,3,3,2,2,1,-6
1529304958445417,-4,-2,-2,2,0,-4,1,-2
1529304958453235,6,1,-2,-4,2,8,3,4
1529304958453235,0,-2,-3,0,-2,0,-2,-4
1529304958462366,-2,2,3,-1,2,0,-1,0
1529304958462366,-3,-1,-2,-6,-7,-4,-2,-1
1529304958476308,-2,2,4,9,1,-3,-3,1
1529304958476308,1,0,-6,-5,0,1,0,-1
1529304958483309,7,3,4,1,-1,2,0,0
1529304958483309,-6,-4,-2,-4,2,-4,-1,1
1529304958498269,-1,-3,-3,-4,-3,-6,-8,-5
1529304958498269,2,0,-1,4,8,3,2,1
1529304958505095,-1,-2,-2,-2,-6,-2,-2,0
1529304958505095,2,-1,-3,-1,-2,-2,-1,0
1529304958521407,0,0,-2,-5,-3,7,7,-1
1529304958521407,-7,-5,-4,-3,-5,0,-2,-1
1529304958523409,-8,-2,-3,-4,2,-2,-4,-4
1529304958523409,1,1,4,3,1,0,5,-3
1529304958535705,4,1,1,-3,-1,-1,-2,2
1529304958535705,3,6,13,9,-4,-3,-4,0
1529304958543372,0,-4,-14,-3,3,3,1,4
1529304958543372,-1,2,6,2,-2,-5,-1,-1
1529304958558469,-3,3,4,-2,-4,-18,-4,-6
1529304958558469,1,0,-2,-1,4,19,5,-3
1529304958565471,-1,-1,3,1,-3,-5,-8,-3
1529304958565471,7,-2,-3,-2,-3,-5,-3,2
1529304958581273,0,-1,-2,2,3,2,10,5
1529304958581273,-5,-2,-8,-10,-4,-9,-5,0
1529304958583267,-1,1,4,2,0,2,8,2
1529304958583267,-4,-4,-3,-6,-4,-8,-7,-7
1529304958596233,2,1,2,5,-1,3,5,5
1529304958596233,-2,-2,-3,-2,1,-6,0,-3
1529304958603332,5,2,4,1,-4,-1,-4,-4
1529304958603332,1,-1,0,-1,1,0,0,-1
1529304958618208,3,-1,-1,0,-1,3,-3,-3
1529304958618208,6,2,-3,-3,-1,-3,-3,5
1529304958625291,9,0,3,1,2,1,17,6
1529304958625291,-9,1,5,5,3,5,-15,-2
1529304958641486,-7,-4,-3,-1,1,-6,-12,-8
1529304958641486,-8,-5,-5,-7,-10,-2,18,4
1529304958643320,7,5,8,4,13,12,-8,1
1529304958643320,-4,0,-7,-6,9,13,8,3
1529304958656446,1,-1,2,1,-9,-2,1,-3
1529304958656446,4,-2,-2,-1,-1,-13,-12,-3
1529304958663315,-1,-1,-6,-6,-4,1,0,-1
1529304958663315,1,0,-2,5,1,-4,-2,-4
1529304958678574,-2,-1,-2,-6,-2,-3,-5,-1
1529304958678574,2,-1,3,4,5,4,0,-2
1529304958686420,-4,-1,0,1,-4,-4,2,-3
1529304958686420,2,0,-1,-5,0,2,-2,2
1529304958701377,-4,-4,-2,1,-1,-3,1,2
1529304958701377,-3,-1,4,4,1,2,-3,-7
1529304958703372,16,8,12,1,-6,-1,10,18
1529304958703372,0,-2,0,2,-1,-2,-4,-1
1529304958715340,-1,-2,-2,-2,2,7,14,8
1529304958715340,-5,-1,-6,-7,-3,-3,-10,-4
1529304958724502,-6,-4,-9,-4,3,-5,-14,-7
1529304958724502,6,0,-6,-6,-3,4,6,5
1529304958738467,2,4,12,14,3,0,4,1
1529304958738467,-6,-3,6,-1,-4,-1,1,-2
1529304958745584,-3,-3,-4,0,0,-2,-1,-3
1529304958745584,2,0,1,0,-2,-3,1,-2
1529304958761774,2,0,-6,-6,2,2,-3,-3
1529304958761774,-3,0,4,8,2,-2,-2,0
1529304958767755,4,0,1,7,2,-6,-2,0
1529304958767755,-6,-2,-3,-6,-9,-13,-3,0
1529304958775734,-1,0,0,-1,3,11,-2,-1
1529304958775734,4,0,2,0,-4,-5,1,3
1529304958784561,-5,-3,-5,-6,-3,5,-3,-4
1529304958784561,0,-7,-13,-11,3,-5,-3,-5
1529304958799523,5,6,11,12,-1,-4,-1,0
1529304958799523,1,0,3,4,7,3,0,2
1529304958805682,-8,-5,-7,-7,-3,-2,2,-3
1529304958805682,1,3,6,-1,-2,1,4,0
1529304958821709,-4,-5,-9,-10,-1,-1,-6,-4
1529304958821709,4,-1,-4,-4,4,1,0,2
1529304958823685,-1,0,0,-1,0,-2,-2,1
1529304958823685,-3,-3,1,-1,-1,3,-1,-2
1529304958835809,4,-1,-6,-2,-3,-4,-3,4
1529304958835809,-6,-1,0,-1,0,3,2,-2
1529304958844794,-2,-1,4,3,-1,0,0,-4
1529304958844794,1,1,0,1,-1,3,2,2
1529304958858959,-1,0,0,-1,4,1,-1,-1
1529304958858959,5,1,-3,3,-2,1,4,3
1529304958865891,-3,-3,-8,-5,-1,0,-7,-4
1529304958865891,-2,0,3,14,3,-3,-1,-3
1529304958881891,3,3,8,3,-9,-3,0,1
1529304958881891,-2,-1,-6,-5,-1,-1,-1,-1
1529304958883732,-5,-2,-2,0,-4,-2,-1,-2
1529304958883732,1,2,1,0,2,2,4,-1
1529304958895698,-3,-2,-5,-3,-1,-1,-4,0
1529304958895698,4,2,-2,-1,-2,-1,1,1
1529304958904676,3,2,0,3,3,0,2,2
1529304958904676,1,2,-2,-2,-2,-1,-2,0
1529304958918637,-10,-2,-5,-5,0,-1,4,-2
1529304958918637,5,1,-1,-3,-1,0,0,-1
1529304958925652,-8,-5,-2,-1,-3,-5,-5,-6
1529304958925652,1,-3,0,-2,-2,2,-1,-1
1529304958941702,-2,-4,2,-1,-1,-3,-4,-3
1529304958941702,0,-1,1,-1,0,2,-3,-3
1529304958943603,3,-2,0,-3,1,1,-1,-4
1529304958943603,0,0,2,1,1,0,-2,-1
1529304958963846,-5,-2,-4,-1,0,-3,-2,-3
1529304958963846,-1,0,-2,2,1,-2,-2,-3
1529304958963846,1,1,-3,-1,-1,-1,0,1
1529304958963846,-5,-1,2,1,-4,-2,-2,-4
1529304958979881,-2,0,-1,0,3,5,3,-1
1529304958979881,1,-1,-2,-4,-1,2,6,2
1529304958993972,-5,-1,-5,0,0,4,3,-1
1529304958993972,3,1,1,-2,-2,-1,1,4
1529304959001291,0,-1,2,0,1,1,4,2
1529304959001291,0,-3,-3,-3,-2,-2,-2,1
1529304959002287,0,-1,-1,-4,-1,-1,2,-2
1529304959002287,-1,-2,-7,-7,-1,-1,-5,-3
1529304959023433,7,1,3,2,-1,-6,-5,-2
1529304959023433,3,1,3,5,0,-2,2,2
1529304959024269,-2,-1,2,-2,0,-7,-5,2
1529304959024269,1,-1,-5,-7,-2,0,4,2
1529304959047580,0,0,0,7,1,-10,-5,0
1529304959047580,1,1,1,-4,-2,0,-2,-1
1529304959048577,1,-3,-4,-2,-4,-5,-5,-3
1529304959048577,-3,-1,-1,-1,-2,-1,0,1
1529304959060544,-1,-4,-4,-7,-1,4,1,1
1529304959060544,-3,-1,0,-1,0,-15,-5,-2
1529304959061542,0,-1,1,2,-10,-8,-2,-1
1529304959061542,-1,0,1,1,7,-2,1,1
1529304959083861,1,-2,-4,-5,-6,12,-2,-5
1529304959083861,0,-1,0,1,-8,4,-2,1
1529304959083861,-1,-2,0,-1,2,-23,0,3
1529304959083861,-1,-1,2,4,-2,2,2,0
1529304959107164,-1,-1,-2,0,4,5,-1,-2
1529304959107164,-4,-1,-2,-2,2,6,0,-1
1529304959108005,1,2,1,1,1,7,1,-1
1529304959108005,-4,-2,-2,1,-2,0,1,-3
1529304959121158,0,-1,-1,-3,1,-1,1,-1
1529304959121158,-1,-2,-2,-1,0,3,-2,-4
1529304959122155,2,2,1,1,0,-4,0,0
1529304959122155,0,-1,0,-1,0,7,-2,-2
1529304959143256,0,1,-1,-3,-8,-18,-2,1
1529304959143256,1,0,-1,0,5,7,1,1
1529304959144097,-5,0,2,3,3,11,2,0
1529304959144097,2,-3,-5,-4,-1,4,4,-2
1529304959159278,0,0,5,8,0,-21,-1,1
1529304959159278,-3,-1,-4,-6,-8,2,3,0
1529304959165620,0,0,0,0,0,13,-2,1
1529304959165620,-1,0,-1,0,-3,-3,-1,0
1529304959180417,-2,-2,-4,-2,4,2,-2,1
1529304959180417,-1,-1,1,1,-1,-7,-1,1
1529304959181415,-1,-3,-1,-2,0,4,0,-2
1529304959181415,1,-1,-1,-1,-6,-12,-3,0
1529304959203935,-1,0,-2,-2,1,14,1,-2
1529304959203935,-1,0,2,1,-3,-15,-3,-2
1529304959203935,1,0,-3,-3,6,16,1,-1
1529304959203935,3,-1,2,-3,3,3,2,2
1529304959219054,-2,-1,0,2,-2,-2,1,-2
1529304959219054,-3,-2,-2,-1,1,2,-3,-2
1529304959225179,-1,0,-1,0,-2,-4,-1,1
1529304959225179,-1,1,1,2,-5,-9,-4,0
1529304959240136,-5,0,1,-3,2,13,3,1
1529304959240136,-2,-1,-2,1,-1,2,2,0
1529304959248277,1,-2,1,-1,-1,-3,-2,0
1529304959248277,1,1,-1,-1,0,5,0,-3
1529304959264027,0,-1,-3,-3,-2,-4,-3,-2
1529304959264027,-4,0,2,0,3,2,-3,-4
1529304959264027,1,0,-2,0,2,5,-2,-2
1529304959264027,1,-1,0,1,-4,-3,1,3
1529304959279084,3,-1,-2,-5,-2,0,0,0
1529304959279084,-1,-3,-1,0,0,-4,-1,-1
1529304959285135,1,-1,-1,1,-1,-2,-1,-1
1529304959285135,-3,0,-1,1,-2,1,-1,-2
1529304959302135,1,-1,0,-1,-1,-4,1,-1
1529304959302135,-2,-2,-1,-2,-1,1,-1,-1
1529304959308121,2,-2,-1,-2,-2,-4,0,0
1529304959308121,-5,-4,0,0,0,-4,-2,-2
1529304959323397,-1,-2,-2,-3,-3,-1,1,1
1529304959323397,0,1,2,0,-1,-2,1,-1
1529304959324254,-4,-3,-1,-1,-3,-3,1,3
1529304959324254,-1,1,-1,0,3,2,2,1
1529304959339523,0,0,-1,0,-1,-3,-4,-1
1529304959339523,2,0,-4,-1,2,1,-1,-1
1529304959345646,-1,-1,-1,0,-4,-8,4,0
1529304959345646,1,-2,-1,0,3,5,-1,-1
1529304959360824,-3,0,1,1,1,1,2,0
1529304959360824,0,-2,-1,0,-1,0,-6,-2
1529304959367802,-2,0,0,-2,-2,-3,-3,-2
1529304959367802,-1,-2,-2,1,-1,1,3,0
1529304959384831,5,0,-1,-2,-1,-3,-5,1
1529304959384831,-3,-1,1,-1,-1,-2,1,0
1529304959385833,-3,0,0,-1,0,-1,-1,-1
1529304959385833,0,0,1,0,0,-2,-3,-1
1529304959399891,-3,-1,-1,0,-1,-2,-1,-2
1529304959399891,1,-2,-1,-1,-2,0,0,-1
