timestamp,emg1,emg2,emg3,emg4,emg5,emg6,emg7,emg8
1529309528781255,-6,-7,-5,-7,-9,-10,-3,-6
1529309528781255,3,3,-2,-10,4,7,2,3
1529309528789234,4,3,4,8,5,4,2,1
1529309528789234,3,5,1,-2,4,5,1,-2
1529309528804193,-8,-7,-5,5,-2,8,1,1
1529309528804193,-4,-8,3,8,-14,-30,-7,-8
1529309528805203,-4,-3,-7,-12,-15,-17,-12,-2
1529309528805203,3,2,4,10,13,11,7,1
1529309528827131,0,-2,-3,-4,9,9,6,0
1529309528827131,1,10,4,12,14,1,1,3
1529309528828129,9,2,-8,-32,-32,4,-2,2
1529309528828129,-5,-7,-2,1,-2,-21,-8,-2
1529309528849072,0,-3,0,9,16,19,11,0
1529309528849072,0,0,2,-1,3,10,1,3
1529309528850069,-5,-3,4,1,9,-13,-2,-3
1529309528850069,0,1,-11,-11,-11,4,-4,3
1529309528864032,2,-3,-1,-5,-4,-27,-12,-7
1529309528864032,-3,-3,-4,4,-2,26,4,-6
1529309528865028,-2,3,2,-2,-6,-10,1,-3
1529309528865028,1,1,0,-7,-2,-6,-2,9
1529309528886998,3,-4,5,24,6,-9,0,6
1529309528886998,-2,-1,-5,-10,-3,8,2,-8
1529309528887970,-2,-2,4,7,14,13,5,-2
1529309528887970,-5,-2,-6,-8,-11,-9,-9,-8
1529309528900933,1,4,3,13,-2,3,-8,-3
1529309528900933,0,-4,-8,-27,-16,-15,-5,1
1529309528908912,-13,-9,-5,-22,-15,-22,-6,-5
1529309528908912,-3,-6,-3,-11,2,4,2,-5
1529309528923914,-2,1,1,10,1,-12,-7,-3
1529309528923914,-3,-4,-1,4,5,7,6,-1
1529309528924870,4,5,2,18,12,-5,1,1
1529309528924870,0,-1,7,14,7,23,14,0
1529309528946811,-2,1,1,-9,14,19,11,0
1529309528946811,-3,-3,-3,-1,-9,-3,-12,-4
1529309528947809,2,-1,-4,2,-18,-25,-10,0
1529309528947809,-5,-7,-2,-9,14,-4,2,0
1529309528960821,4,6,1,-1,1,21,3,0
1529309528960821,-2,-5,1,8,-4,-1,-1,-1
1529309528968799,-4,0,0,-3,-14,-23,-2,-1
1529309528968799,-1,-6,-5,-8,-23,-26,-18,-7
1529309528984711,-5,-4,-8,-20,-10,-7,0,-3
1529309528984711,1,3,-1,-6,-13,-23,-13,-1
1529309528984711,0,-4,-1,14,22,29,5,1
1529309528984711,8,6,4,14,30,27,14,5
1529309529006651,-1,1,9,17,6,20,6,5
1529309529006651,-2,-2,2,6,0,5,1,2
1529309529007648,3,-1,-1,-7,-4,-2,-5,-6
1529309529007648,-2,1,3,0,-1,-7,-3,-2
1529309529021611,3,1,-2,3,-16,-15,-8,-5
1529309529021611,-3,-2,-6,-17,-3,-6,-1,-1
1529309529028594,-7,-7,-4,-1,6,6,-2,-2
1529309529028594,-2,0,-4,-7,-11,-7,-10,-9
1529309529044548,2,4,3,11,-2,-6,6,1
1529309529044548,0,1,-1,-17,0,-4,2,2
1529309529045548,-2,-3,-6,-17,0,6,1,1
1529309529045548,-3,-2,-1,12,-2,1,-3,-1
1529309529066518,-2,-5,-5,-27,-23,-18,-11,-3
1529309529066518,-1,2,6,27,14,-2,3,-2
1529309529067489,2,1,-4,-5,18,20,6,5
1529309529067489,2,3,3,-7,-7,4,2,2
1529309529089429,-6,-10,-4,-4,-10,-6,-8,-3
1529309529089429,-3,-4,1,16,6,4,3,1
1529309529090427,1,2,-2,-6,3,13,6,-1
1529309529090427,2,1,1,17,9,0,1,2
1529309529104391,0,1,-5,-18,-1,4,-2,-1
1529309529104391,-7,-10,-3,-7,-14,-11,-9,-5
1529309529105387,-15,-4,3,3,-1,-1,-2,-6
1529309529105387,17,10,-3,-9,-3,-2,1,2
1529309529126331,-6,2,-1,-3,2,1,-2,-1
1529309529126331,11,-1,-6,-10,-4,-2,-4,2
1529309529127329,3,2,3,14,-2,-1,-2,0
1529309529127329,-7,-4,2,1,-4,-6,-4,-3
1529309529141290,3,-2,-1,2,6,3,4,1
1529309529141290,-5,-1,0,13,10,3,0,-4
1529309529148271,0,-7,-6,-1,-9,-7,-7,-3
1529309529148271,-2,3,8,1,-4,0,-3,-3
1529309529164230,-7,0,3,6,1,-1,0,0
1529309529164230,1,-1,0,9,13,1,-1,1
1529309529165229,0,-3,4,0,-4,2,0,-1
1529309529165229,-7,-7,-18,-17,-14,-12,-7,-1
1529309529187201,2,1,0,2,5,-1,-1,0
1529309529187201,1,3,4,3,-2,0,-2,1
1529309529187201,0,1,-5,10,5,-4,-2,1
1529309529187201,-4,-6,-7,-45,-17,0,6,3
1529309529201131,-2,-4,0,8,1,-2,2,0
1529309529201131,0,2,-1,-3,-2,1,-4,-3
1529309529209109,11,7,3,17,11,9,10,2
1529309529209109,-6,-3,4,4,-3,-1,-3,-4
1529309529224069,-4,-4,0,1,-2,-6,-8,-4
1529309529224069,2,4,2,-8,-4,3,4,3
1529309529225067,-3,-9,-10,-15,-10,-7,-5,-2
1529309529225067,-1,-1,-3,10,9,-3,-4,0
1529309529247039,8,10,-7,-10,-3,2,1,4
1529309529247039,8,0,16,-4,-6,-2,0,0
1529309529248040,-24,-8,10,4,9,10,0,0
1529309529248040,23,11,2,6,4,6,1,-1
1529309529260976,-11,-13,-9,-8,-7,-8,2,-3
1529309529260976,2,1,-10,2,2,-1,-5,3
1529309529276976,10,17,1,-4,-3,-1,8,-9
1529309529276976,-36,-29,-19,0,-4,-6,0,1
1529309529283957,-5,0,38,19,10,3,-6,-7
1529309529283957,22,12,-2,-5,1,1,-25,-34
1529309529284907,-34,-21,-1,0,-7,-9,26,41
1529309529284907,27,-13,-12,0,1,-3,-4,-1
1529309529306851,-18,9,15,-7,-1,-2,4,-3
1529309529306851,-6,-13,-15,-2,-4,-5,-10,-6
1529309529307846,-13,-6,13,-5,-5,-6,-16,-16
1529309529307846,3,14,-10,6,6,1,3,2
1529309529320811,16,-9,-34,-13,-11,-9,-2,18
1529309529320811,-20,-6,-30,-15,-8,-5,-1,-15
1529309529328816,12,2,-12,9,9,2,-6,-8
1529309529328816,-9,8,28,-1,-11,-7,1,0
1529309529344746,5,3,-4,3,12,0,-6,-4
1529309529344746,-11,-4,-13,-7,-12,1,7,7
1529309529345743,10,10,17,30,11,-5,2,-3
1529309529345743,-3,-6,-11,-30,-6,20,6,2
1529309529366720,-4,-2,1,-5,-15,-9,-10,-9
1529309529366720,3,-2,15,7,2,-9,2,10
1529309529367700,7,1,1,-14,-15,-9,-5,1
1529309529367700,-4,8,9,8,34,2,-6,-5
1529309529381771,5,-5,-9,29,5,0,0,4
1529309529381771,-5,0,14,8,-2,5,3,8
1529309529388690,2,-4,-15,-28,-12,1,-10,-8
1529309529388690,2,11,2,12,6,-4,6,2
1529309529404648,1,2,9,-9,0,-3,-3,-1
1529309529404648,-8,-12,-15,-4,0,2,6,4
1529309529404648,1,4,4,19,-1,-1,-12,-5
1529309529404648,-7,-13,-11,-30,-24,-11,-11,-10
1529309529426596,8,1,-8,-17,-10,-4,1,3
1529309529426596,0,3,5,7,7,2,0,2
1529309529427585,2,-6,-10,-11,-6,3,-6,-3
1529309529427585,-3,-1,12,26,9,-5,-1,0
1529309529441547,0,-6,-13,-14,-5,0,0,-1
1529309529441547,-6,0,-1,0,-3,-5,-4,-1
1529309529448669,10,6,-2,-4,4,4,9,6
1529309529448669,-7,-4,2,7,15,1,-3,-2
1529309529464927,1,6,10,3,-11,4,11,-3
1529309529464927,3,8,10,-4,3,10,10,4
1529309529465792,-5,-7,-7,-8,-2,0,-2,-4
1529309529465792,-2,2,1,17,-6,-7,-3,1
1529309529486776,-5,-3,-1,-22,-2,12,3,-5
1529309529486776,6,5,11,3,-7,-13,-2,3
1529309529487731,2,6,11,6,5,-1,-3,-2
1529309529487731,5,-5,-12,-10,-9,-5,-3,2
1529309529509977,-8,-5,1,17,7,5,-3,-3
1529309529509977,-1,-7,-1,-1,1,-1,3,1
1529309529509977,9,6,-9,-3,5,5,0,-1
1529309529509977,-1,3,9,38,11,1,0,0
1529309529524825,1,0,-13,-51,-35,-8,-2,-2
1529309529524825,-3,-3,-8,5,6,2,2,-1
1529309529524825,-10,-8,15,-7,-1,-1,-3,-4
1529309529524825,4,7,8,1,-5,2,-2,-3
1529309529546777,-2,-7,-9,2,0,-6,-4,-3
1529309529546777,1,-2,-3,-8,2,3,4,0
1529309529547743,-4,-2,-14,1,-5,-4,-3,-4
1529309529547743,-6,6,-4,-1,-4,0,-1,-5
1529309529569909,-1,-5,0,-3,7,-2,-3,-1
1529309529569909,-3,-5,2,-14,-8,-6,-6,0
1529309529569909,3,-1,5,7,0,-2,1,0
1529309529569909,-3,-3,3,-4,-3,-2,-4,-1
1529309529584974,10,7,-14,2,4,2,5,4
1529309529584974,2,2,5,5,4,0,-2,-8
1529309529584974,0,-1,-18,-2,-2,-3,-2,2
1529309529584974,5,-3,22,-12,-4,0,-3,-2
1529309529606859,-11,-5,-14,15,11,-3,-4,-6
1529309529606859,12,-6,-3,-10,-9,-1,-4,3
1529309529607873,-11,-6,3,2,-1,-3,1,-3
1529309529607873,-10,-5,-3,-2,-1,2,3,-7
1529309529629269,3,-4,5,-4,-3,-2,-4,-3
1529309529629269,-12,-1,3,2,0,4,-1,-1
1529309529630127,-4,-8,-20,-7,-2,-4,-6,-10
1529309529630127,-9,-7,-9,-9,-6,-4,-4,-2
1529309529644247,-6,6,13,12,9,7,-6,-8
1529309529644247,3,12,-52,-5,-1,-4,4,9
1529309529645087,10,12,62,5,-2,-2,1,-13
1529309529645087,-10,-7,0,-9,-9,-8,13,13
1529309529666187,11,-3,-5,4,0,-4,-14,-6
1529309529666187,-18,-17,-18,-6,-5,-2,1,-9
1529309529675035,11,2,0,3,0,-1,-2,3
1529309529675035,-1,-5,-10,-8,-3,-2,-5,-4
1529309529690013,-2,-5,17,10,2,-2,-1,1
1529309529690013,-8,-13,-14,-11,0,-3,-13,-17
1529309529690013,1,6,-16,-5,5,7,15,24
1529309529690013,6,1,2,-5,-14,-10,-10,-1
1529309529712905,2,7,6,9,-1,-7,2,-1
1529309529712905,-8,3,53,-11,-15,4,-7,-7
1529309529712905,-5,-9,-23,-5,5,-2,0,-2
1529309529712905,2,1,-28,-6,10,17,7,0
1529309529725911,-7,-4,5,12,-9,-14,-2,1
1529309529725911,4,8,14,4,-11,-9,-4,-2
1529309529742032,-2,-5,-10,-4,9,23,8,0
1529309529742032,10,14,16,36,17,-15,-8,2
1529309529749846,-4,-5,-13,-27,17,17,1,-2
1529309529749846,5,0,7,7,6,4,5,2
1529309529757142,-1,-5,-9,-17,-14,-9,-3,2
1529309529757142,-3,-8,-4,-13,-12,4,-1,-6
1529309529773094,2,7,12,49,1,-16,-8,2
1529309529773094,-4,-6,-19,-38,-1,-2,-1,1
1529309529773094,-7,-6,-7,-6,-11,-7,-5,-4
1529309529773094,1,-2,4,19,14,5,4,-1
1529309529786059,0,-4,-14,-36,-12,5,5,2
1529309529786059,2,-4,0,11,-5,-9,-2,3
1529309529794900,2,6,10,21,21,5,-4,-3
1529309529794900,-4,-9,-14,-5,-16,-1,-3,-3
1529309529809859,-1,2,-4,-21,-9,-1,4,3
1529309529809859,2,5,8,18,14,10,8,3
1529309529809859,-5,-6,-10,-26,-14,-10,-6,-5
1529309529809859,-2,3,-6,-13,-8,-4,1,-3
1529309529832831,3,4,11,17,14,12,11,4
1529309529832831,-1,2,8,11,2,-5,-3,-1
1529309529833829,0,8,20,61,20,-1,-2,0
1529309529833829,2,-3,-15,-76,-27,4,1,1
1529309529846791,-6,-5,-6,-19,-18,-9,-5,-6
1529309529846791,-2,-1,-1,-18,-7,-5,-1,0
1529309529853915,-1,-5,8,21,4,0,-2,1
1529309529853915,8,10,14,38,22,7,0,0
1529309529869929,-3,-1,-2,-16,-6,-2,-2,-2
1529309529869929,4,3,7,28,21,15,9,2
1529309529869929,-4,-5,-16,-21,-10,-8,-3,-2
1529309529869929,-4,-5,6,-5,-18,-11,-8,-5
1529309529892481,0,-1,-21,-32,-14,-8,-5,-1
1529309529892481,-3,-3,-4,17,9,2,1,-1
1529309529893318,-6,4,12,24,13,6,0,-4
1529309529893318,8,-6,18,-14,-8,-3,-1,1
1529309529906483,1,3,-11,3,-4,1,-1,2
1529309529906483,0,0,5,18,11,4,7,2
1529309529922476,1,-1,-4,-20,-17,-8,-3,1
1529309529922476,-2,5,-1,29,19,7,1,0
1529309529929582,-5,-3,-2,-8,-2,-1,1,-3
1529309529929582,-3,-7,-4,0,-13,-8,-5,-3
1529309529930578,1,0,-18,-3,-6,-3,0,1
1529309529930578,-15,-9,-6,-18,-12,-3,4,-7
1529309529952585,1,4,14,10,6,5,2,-1
1529309529952585,-7,-4,-41,-19,-6,-3,-2,0
1529309529953416,-4,-3,13,-12,-6,-2,-2,-2
1529309529953416,14,1,-7,0,0,-1,-3,6
1529309529966746,-18,-2,3,13,8,0,-1,-10
1529309529966746,12,-5,-27,-16,-7,-2,-2,3
1529309529974718,22,16,-3,-2,4,1,-10,1
1529309529974718,-27,-12,-4,9,14,11,9,5
1529309529989847,19,-6,8,3,1,-1,-7,5
1529309529989847,29,1,7,14,8,9,19,-10
1529309529990743,-55,-31,-24,-13,-6,0,-11,-5
1529309529990743,49,18,-10,-15,-14,-19,-12,9
1529309530012629,1,-4,0,15,12,11,10,11
1529309530012629,-17,2,-2,-2,-3,-4,-9,-7
1529309530013626,49,9,27,-5,-7,-5,6,16
1529309530013626,-30,-5,5,4,4,4,10,-12
1529309530035613,2,0,-22,1,6,2,-6,-2
1529309530035613,-17,-13,10,-3,-4,-11,-13,-2
1529309530035613,8,6,-16,-8,1,3,10,-2
1529309530035613,-13,-10,18,-1,-6,-8,-14,-8
1529309530049677,6,0,-5,2,0,3,6,5
1529309530049677,3,10,21,5,7,-2,-6,-2
1529309530050670,-9,-6,-11,0,3,-7,5,6
1529309530050670,2,-1,-6,3,0,4,6,-3
1529309530072828,-21,-10,-7,-19,-15,-5,-28,-51
1529309530072828,5,3,-4,-14,-23,-16,-9,37
1529309530073824,-2,-2,16,1,1,12,16,17
1529309530073824,-1,-1,-13,4,15,-2,3,14
1529309530094820,0,-2,6,2,4,6,17,14
1529309530094820,-9,-5,-1,1,-2,-5,-13,-19
1529309530095821,-6,-4,-10,-8,-9,2,-5,-19
1529309530095821,-4,3,6,14,14,5,-1,-8
1529309530109916,2,0,-2,-5,-10,-4,3,8
1529309530109916,0,2,5,-6,-2,-5,-3,-9
1529309530109916,-7,2,-2,3,1,-1,-1,-2
1529309530109916,-3,-2,1,-5,-5,-3,-6,-17
1529309530132931,-2,-8,3,13,-1,-8,0,10
1529309530132931,0,2,14,6,5,2,4,3
1529309530133925,0,-5,0,-5,-5,-8,-9,-7
1529309530133925,0,-3,-20,-4,8,7,-2,-1
1529309530154961,4,-1,5,-5,-29,-23,-8,0
1529309530154961,-2,-1,6,0,22,23,15,4
1529309530155958,-1,3,8,28,21,5,-4,-5
1529309530155958,4,4,2,-15,-14,-6,1,1
1529309530169085,-4,3,0,1,6,-1,-4,-1
1529309530169085,-2,0,-7,-9,-7,-7,2,0
1529309530169963,0,6,11,16,-14,-7,-4,-5
1529309530169963,-2,2,-2,11,19,12,5,4
1529309530200203,1,3,-1,-17,10,4,4,3
1529309530200203,-2,0,-4,-12,-18,-1,-3,-4
1529309530201038,-3,0,-5,-12,-7,-3,-6,-4
1529309530201038,-1,-3,4,8,-5,-5,-3,0
1529309530215020,-2,-4,7,11,5,1,0,-1
1529309530215020,3,-4,0,-9,1,-1,-1,-3
1529309530216000,-4,-7,-7,-19,-14,-5,0,2
1529309530216000,0,-5,-5,-1,1,-2,-4,-6
1529309530230121,1,1,4,19,10,5,6,8
1529309530230121,-2,-2,0,11,0,-3,1,1
1529309530231114,-1,-6,-13,-31,-18,-6,-4,-6
1529309530231114,-2,1,1,12,10,4,0,0
1529309530253044,-1,-1,-6,-11,-11,-8,-3,-2
1529309530253044,-2,-2,-4,-2,-4,-3,-1,-1
1529309530253044,-2,2,7,-4,2,-1,-3,-3
1529309530253044,-3,-2,1,-1,-8,-1,1,-3
1529309530274841,0,1,4,20,12,2,-1,-4
1529309530274841,-2,-2,-9,-27,-1,8,3,1
1529309530276836,0,-1,-4,3,2,-3,-1,-4
1529309530276836,1,-1,-5,-11,-13,-7,-1,1
1529309530288840,-2,1,3,9,5,-2,-1,0
1529309530288840,-1,-2,2,9,2,-2,-1,-2
1529309530297780,-2,-1,0,4,11,3,0,0
1529309530297780,1,-1,-2,-8,-12,-2,0,1
1529309530311795,-1,-3,-4,-10,-2,-1,-3,-1
1529309530311795,0,-1,0,5,-3,-3,-2,-1
1529309530318778,0,-1,-4,-7,-2,3,2,1
1529309530318778,-2,-2,0,3,1,-3,0,0
1529309530334736,-1,2,2,5,4,2,0,-1
1529309530334736,1,0,-2,-9,-6,2,1,1
1529309530336677,-1,0,0,-1,-1,-5,-2,-1
1529309530336677,-2,-2,-4,-1,0,1,-2,-1
1529309530357675,-1,-1,-3,-4,-4,-3,-2,-2
1529309530357675,-1,0,4,11,2,-1,-1,-1
1529309530359615,-1,-5,-8,-16,1,3,-1,1
1529309530359615,2,2,-1,10,6,-1,1,0
1529309530371583,0,0,-2,-24,-15,-4,-1,-2
1529309530371583,-1,-1,1,9,6,4,4,1
1529309530380591,0,1,2,10,1,0,3,-1
1529309530380591,-3,0,-1,-8,-3,-2,-2,-1
1529309530395557,2,0,0,1,3,3,-2,-1
1529309530395557,-2,-1,-3,0,-1,-4,-4,0
1529309530396524,-1,-2,0,-2,-8,-5,-3,-3
1529309530396524,0,-3,-3,-3,8,5,0,1
1529309530408529,-1,-2,0,2,-1,1,1,-2
1529309530408529,-2,1,1,-3,-1,-1,-3,-1
1529309530417461,0,1,-1,3,-1,1,-1,0
1529309530417461,-1,-1,-1,-4,-5,-4,-1,0
1529309530432425,-1,-2,-1,2,-2,-3,-1,-1
1529309530432425,-1,-3,-1,0,-1,-4,-3,-2
1529309530434415,-1,-1,-1,-3,-2,-4,-3,-2
1529309530434415,-2,-4,-2,-7,-7,-4,0,0
1529309530455412,0,1,1,4,7,3,1,-1
1529309530455412,0,0,1,-1,-1,-1,-2,-3
1529309530456395,-1,-2,0,9,5,0,-3,-1
1529309530456395,-1,-2,-2,-6,-6,-1,-2,-3
1529309530468378,-1,-3,-2,-5,-4,-6,-2,-1
1529309530468378,-1,-1,-1,0,0,-2,-2,0
1529309530477301,-2,-3,-1,-4,-3,-2,-2,-2
1529309530477301,1,0,0,3,-4,-3,-3,-1
1529309530492315,-4,0,0,5,7,5,1,0
1529309530492315,0,-1,-1,2,5,2,7,1
1529309530494254,-1,0,-1,3,4,2,1,0
1529309530494254,-3,1,-1,-3,-4,-1,-1,-3
1529309530515256,-1,0,-1,-3,-6,0,-2,-3
1529309530515256,-1,-3,-1,-4,-6,-6,-5,-2
1529309530516251,0,-2,-1,0,-1,2,0,0
1529309530516251,-2,-1,-1,0,-1,-1,-2,0
1529309530529207,0,0,-1,2,0,-2,0,0
1529309530529207,0,-1,0,1,0,-2,-2,-2
1529309530538137,-1,-2,-1,-5,-2,-4,-1,0
1529309530538137,-1,-1,1,-1,-7,-7,-3,-2
1529309530552155,-2,-3,-5,-4,5,3,0,0
1529309530552155,-2,-1,-1,0,-1,2,1,2
1529309530554094,-3,-1,-4,-4,-6,-6,-5,-2
1529309530554094,-1,-1,-2,-3,-4,-4,-3,-2
1529309530575091,-1,-1,0,4,4,3,1,-2
1529309530575091,1,1,2,3,7,9,5,0
1529309530577087,-2,-2,-2,-3,3,2,-3,-2
1529309530577087,2,-3,0,-1,0,-3,-1,1
1529309530589162,-1,-1,-3,-3,-7,-7,-3,-1
1529309530589162,0,-1,-3,0,-4,-2,-3,-2
1529309530598140,0,-1,-1,-5,-4,-1,2,-1
1529309530598140,0,0,-2,-3,-1,-1,-1,-2
1529309530611263,0,0,-1,0,1,-1,-2,-1
1529309530611263,-2,1,2,0,-3,-3,-2,-1
1529309530620082,1,0,-3,-1,-2,-4,-3,0
1529309530620082,-2,-3,-1,-1,-2,-2,-1,-2
1529309530636054,1,-2,1,-1,-2,-2,-3,-1
1529309530636054,-2,0,-2,1,2,2,0,0
1529309530640029,1,0,-2,-1,1,1,0,-2
1529309530640029,-1,-1,-2,-4,-2,-2,-2,0
1529309530642057,-2,-1,0,1,0,0,0,-1
1529309530642057,-1,-1,1,-3,-3,-4,-5,-2
1529309530650999,-3,-2,1,-1,1,1,-1,-1
1529309530650999,-2,-3,-2,-2,-2,0,1,0
1529309530664017,-2,-2,-1,-3,-7,-7,-4,-2
1529309530664017,-1,-1,-1,-3,-1,-2,-2,-2
1529309530671943,0,1,0,1,1,0,1,0
1529309530671943,2,1,-4,0,1,-2,-1,0
1529309530687039,-2,-1,1,-1,0,-2,-3,-1
1529309530687039,-1,0,-2,-3,0,-2,-2,0
1529309530687902,-1,-1,-2,0,-3,-2,-2,-1
1529309530687902,0,1,0,0,-1,0,-1,1
1529309530701863,1,-2,1,3,2,3,3,-1
1529309530701863,1,-1,-3,0,-2,-1,-2,0
1529309530709003,1,-1,2,-1,-1,-2,-1,-1
1529309530709003,-1,-2,0,0,0,1,-2,-2
1529309530723805,-2,-3,-8,-3,-3,-1,0,-2
1529309530723805,1,2,-3,-1,-1,-2,-2,-2
1529309530731813,0,-2,2,0,-1,-2,1,0
1529309530731813,-2,-2,-1,-2,-2,-2,0,0
1529309530746905,-1,-1,0,-1,0,1,-1,0
1529309530746905,-2,-1,-2,-3,-2,-2,-1,-2
1529309530747741,0,-1,-3,-2,-1,-1,-2,-3
1529309530747741,-2,0,1,0,1,0,-1,-2
1529309530761455,-1,0,-2,-1,-3,-2,-2,0
1529309530761455,-4,-5,-2,-3,-4,-5,-3,-2
1529309530769317,-3,-3,-1,-2,-1,0,-1,-1
1529309530769317,-2,-3,-2,0,0,0,-2,-2
1529309530784323,-2,-3,1,1,-4,-3,-2,-2
1529309530784323,-1,-3,2,-1,-1,0,-1,0
1529309530792269,-1,1,-4,-1,-4,-3,-1,-1
1529309530792269,-3,-4,-5,-1,-1,-3,-2,0
1529309530815162,-1,0,1,-1,-2,-2,0,-1
1529309530815162,-2,1,-1,-3,-2,-1,-2,-2
1529309530816163,-2,2,2,0,0,1,0,-2
1529309530816163,0,0,-1,-1,-2,-1,1,-1
1529309530821146,-2,-1,-3,0,-2,-1,0,-2
1529309530821146,-2,-3,-2,-1,-1,-1,-2,1
1529309530829128,-3,-4,-5,-1,1,-1,-1,-2
1529309530829128,-3,-5,-2,0,-1,-2,-2,-2
1529309530844228,-1,-3,-1,0,-1,-1,-1,-2
1529309530844228,0,-2,-1,1,-2,-2,-2,-2
1529309530852064,-1,-4,-2,-2,-1,1,-2,-2
1529309530852064,1,0,-1,-2,-1,1,0,-2
1529309530867150,0,0,-1,-1,-1,0,-1,-1
1529309530867150,-1,-1,0,1,-2,-3,-1,-1
1529309530868148,-1,-1,-2,-1,-3,-2,0,-1
1529309530868148,0,1,-1,-1,0,1,-1,-1
1529309530880989,0,0,2,-1,-1,-2,-1,0
1529309530880989,-2,-1,-2,-1,0,0,-1,-2
1529309530888965,-1,-2,0,0,0,0,0,-1
1529309530888965,-1,0,-1,-2,-1,0,-1,-1
1529309530903926,-1,1,-2,0,-2,0,0,1
