timestamp,emg1,emg2,emg3,emg4,emg5,emg6,emg7,emg8
1528447963924532,0,-1,-1,0,0,-1,0,-1
1528447963924532,-2,1,1,-3,1,-2,1,-3
1528447963931515,0,-1,-1,1,0,1,1,-1
1528447963931515,0,-1,-2,-2,-1,-1,0,1
1528447963939494,-3,0,0,-2,-2,-3,-3,-1
1528447963939494,1,-2,0,0,-1,0,-1,-1
1528447963954454,0,-1,0,0,0,0,-1,1
1528447963954454,1,-1,0,-2,-1,0,0,-1
1528447963962432,-1,-3,-1,-1,-1,0,2,0
1528447963962432,-1,-2,-1,-1,-1,0,-3,1
1528447963976394,1,0,-1,-1,0,0,-1,-1
1528447963976394,1,0,-3,0,-1,-1,-1,1
1528447963991356,0,1,0,-3,0,-2,1,-3
1528447963991356,0,0,0,0,0,-1,-2,-2
1528447964000331,0,0,0,0,0,-1,0,1
1528447964000331,-1,0,0,0,0,-2,-2,-1
1528447964014292,-1,0,-2,-1,-1,0,-1,-1
1528447964014292,1,-1,0,1,-3,0,0,-2
1528447964021274,0,2,1,-1,-1,0,0,-1
1528447964021274,-4,-1,0,0,-2,-1,-1,-2
1528447964038229,1,0,-2,0,1,-2,0,-2
1528447964038229,1,0,-1,-1,0,0,-1,0
1528447964052191,-1,-1,-2,-1,-2,0,-2,-1
1528447964052191,-2,0,-1,0,-1,0,0,-1
1528447964059173,-1,-1,0,-2,0,-1,-2,-2
1528447964059173,-2,0,-3,-1,-1,-1,0,-2
1528447964074132,0,-1,1,-1,-2,1,0,-2
1528447964074132,-4,-2,0,-1,-1,0,1,-1
1528447964082111,-1,-1,-1,-1,0,1,1,0
1528447964082111,-1,0,1,-2,-1,-1,-2,-1
1528447964098070,0,0,0,0,0,0,1,0
1528447964098070,-1,-1,0,0,-1,1,2,-1
1528447964112032,-2,0,1,-2,1,-1,-1,-2
1528447964112032,-2,-2,0,0,0,0,-1,0
1528447964119012,-1,-1,-2,-1,-1,-2,-1,-1
1528447964119012,-1,0,-1,-1,0,0,0,0
1528447964133987,1,-2,-1,-1,-1,-1,-1,-1
1528447964133987,0,0,-1,-1,0,0,-1,0
1528447964141952,-1,-1,0,-1,-1,-2,-2,-1
1528447964141952,0,0,1,0,-1,0,0,0
1528447964156912,0,-1,-2,0,-2,-1,0,-2
1528447964156912,0,0,-2,2,0,1,0,-1
1528447964171873,0,-2,-1,1,0,-2,0,0
1528447964171873,0,-1,0,-1,-1,0,0,-1
1528447964178854,-2,-1,0,2,1,-2,2,-1
1528447964178854,-1,-2,-2,0,-1,-1,-2,-1
1528447964193813,2,-1,-1,-2,-1,0,-1,1
1528447964193813,-1,1,-2,-2,-2,-1,-2,-1
1528447964202790,0,0,0,-2,-1,-1,-1,1
1528447964202790,0,0,0,-1,0,-3,-1,1
1528447964223734,0,1,0,-1,-1,0,0,0
1528447964223734,1,-2,-1,0,-2,0,0,-1
1528447964231727,-2,-1,-1,-2,-1,-1,1,-1
1528447964231727,-1,0,0,-1,0,-1,0,-1
1528447964238694,0,-1,1,2,1,-1,0,0
1528447964238694,0,0,-1,-2,0,0,-2,0
1528447964261633,1,-2,-3,-2,-1,-1,0,-1
1528447964261633,-1,0,-1,-1,-1,-2,-2,-1
1528447964268614,1,0,-1,0,1,-2,0,-1
1528447964268614,-1,-1,-1,0,0,-2,0,-2
1528447964284571,0,-1,-1,-1,-2,1,-1,-1
1528447964284571,-1,1,0,0,-1,-1,0,0
1528447964306513,-3,-1,-2,-2,-1,0,-2,-2
1528447964306513,-1,0,0,0,-1,-1,-2,-3
1528447964329450,-3,-1,-3,-1,-1,-1,0,-2
1528447964329450,-2,0,0,-1,0,0,-1,-2
1528447964336432,0,0,0,1,2,1,0,1
1528447964336432,-1,0,-1,-1,-2,-1,-3,-2
1528447964351392,0,1,-1,-1,-1,-1,-1,-2
1528447964351392,-1,0,-2,1,0,0,0,-1
1528447964366352,-2,-2,-1,-1,-2,1,-1,-1
1528447964366352,0,-2,-2,-1,1,1,-1,1
1528447964381313,-1,-1,0,0,-1,0,-1,0
1528447964381313,0,0,0,-1,0,0,-1,-2
1528447964396274,-2,0,-2,-2,-1,-2,-1,-2
1528447964396274,0,0,-1,0,-2,-1,-1,0
1528447964411232,0,1,0,-1,0,-1,0,0
1528447964411232,-1,-2,1,-1,-1,-1,-1,-1
1528447964419221,0,-1,-2,1,0,-1,0,-1
1528447964419221,0,0,-1,-1,-1,-1,-1,-1
1528447964434171,0,0,1,0,0,1,0,1
1528447964434171,-1,-1,-1,1,-1,-3,-5,-2
1528447964441152,-1,-1,0,-1,0,-1,0,0
1528447964441152,-1,-2,-2,-1,0,-2,2,0
1528447964457135,0,1,-2,0,0,1,0,0
1528447964457135,0,0,-1,-1,0,0,-1,1
1528447964472071,-2,-1,-2,-1,-1,-2,-1,-2
1528447964472071,0,1,1,-1,-1,-1,2,-1
1528447964479051,0,0,-1,-1,0,-2,-2,-1
1528447964479051,-1,0,1,0,1,1,-1,-2
1528447964494010,0,-1,-1,-1,0,-1,1,-1
1528447964494010,0,-2,-1,-2,0,-1,-3,0
1528447964501991,-3,-2,0,-1,0,0,0,-2
1528447964501991,1,0,0,0,1,-1,1,0
1528447964516951,0,-1,1,0,0,0,1,2
1528447964516951,-2,-2,-1,-1,-2,-2,-3,-2
1528447964531912,-1,1,0,-1,-1,-1,-2,0
1528447964531912,2,0,-2,-1,1,0,1,1
1528447964538891,0,1,-2,-1,-1,2,0,-1
1528447964538891,-1,0,0,1,0,0,-2,-1
1528447964553853,-2,-1,-2,0,-1,0,-1,-1
1528447964553853,0,0,0,-1,-2,-2,-1,-2
1528447964561829,1,-1,-2,1,0,-1,-2,-1
1528447964561829,-1,-1,-2,-1,0,-2,-1,-2
1528447964576790,-1,-1,-1,-1,-1,-2,-1,0
1528447964576790,0,0,0,0,-1,0,0,1
1528447964591749,0,-1,-1,0,0,-1,-1,1
1528447964591749,-2,2,1,-2,0,-1,2,-1
1528447964598731,-1,-2,0,-3,-1,-2,-2,-4
1528447964598731,1,-2,-2,-1,-1,-2,-2,1
1528447964614692,-1,1,-1,-2,-1,0,-1,1
1528447964614692,-1,-2,-4,-1,-1,-1,0,0
1528447964621671,0,0,-1,0,-1,-3,-1,0
1528447964621671,-1,1,-1,1,0,0,-1,0
1528447964636631,0,0,0,-2,-1,-1,0,0
1528447964636631,-1,1,-1,-1,0,-2,0,-1
1528447964651591,-1,-2,-2,0,0,0,0,0
1528447964651591,-1,-1,0,-2,0,1,-1,0
1528447964659836,-1,0,0,0,1,0,-1,0
1528447964659836,-2,0,0,-2,-1,-1,0,0
1528447964674528,1,0,-1,-1,-1,-2,-1,-1
1528447964674528,0,0,2,1,2,-2,-1,1
1528447964681759,-2,-2,-3,-2,-2,0,0,0
1528447964681759,0,-1,1,1,1,-1,0,1
1528447964696504,-1,0,0,0,0,1,2,1
1528447964696504,-1,-1,-2,1,-2,2,0,0
1528447964711754,0,-1,1,-1,-2,-1,-1,-1
1528447964711754,0,-1,-1,-1,-2,-2,1,-1
1528447964719410,0,-1,-2,1,0,-2,-1,-1
1528447964719410,-1,-1,-1,-2,-1,0,-1,-1
1528447964734370,-1,-2,0,1,-1,0,0,0
1528447964734370,0,-1,0,0,-2,0,0,0
1528447964742377,1,1,0,0,0,0,-2,-3
1528447964742377,-2,0,-3,-2,-2,1,-2,-2
1528447964756519,0,-1,0,-1,-1,-2,0,-2
1528447964756519,0,1,1,0,1,0,-2,2
1528447964779477,-2,-1,-1,-1,-1,-1,-4,-1
1528447964779477,0,-1,-1,0,-1,1,0,-1
1528447964786249,1,-3,-1,0,-2,-1,0,-1
1528447964786249,0,-3,-1,-1,-2,0,0,-1
1528447964801508,-2,1,-1,0,-1,-1,0,0
1528447964801508,-1,-2,-1,1,-1,-2,0,0
1528447964809694,0,-1,-1,1,0,-2,-3,1
1528447964809694,-1,0,-2,0,-1,0,1,0
1528447964816466,-1,0,0,-2,0,2,-1,0
1528447964816466,-1,-2,-1,-1,0,-1,-1,-1
1528447964832038,0,0,-1,1,0,0,-1,-3
1528447964832038,-1,-1,-3,-1,-1,0,-2,-2
1528447964839292,0,-1,0,0,0,0,-1,-1
1528447964839292,2,0,1,0,1,0,2,-1
1528447964854342,0,0,-1,-1,-2,-2,0,0
1528447964854342,-1,-1,0,0,-1,0,0,0
1528447964862419,-3,0,-1,-1,-1,-2,-3,-1
1528447964862419,-1,0,-1,1,-1,0,0,-2
1528447964884345,0,-1,-1,0,1,0,0,1
1528447964884345,-2,-2,0,-2,-1,-2,0,0
1528447964899284,0,-1,0,-1,0,0,-1,0
1528447964899284,1,0,1,1,-2,0,-2,0
1528447964906283,-2,1,-2,-3,-1,0,0,-1
1528447964906283,0,0,0,-1,0,1,-2,1
1528447964921256,-1,-1,-1,0,-1,-2,-3,-2
1528447964921256,1,0,-2,-1,0,0,0,-2
1528447964929235,-1,0,-2,-1,-1,0,1,0
1528447964929235,-2,0,0,-1,-1,-1,0,0
1528447964936216,1,1,0,0,-2,-1,0,1
1528447964936216,0,-1,-2,-2,-1,0,-3,-2
1528447964952143,-1,-1,0,-1,0,0,1,2
1528447964952143,-3,-1,-2,-2,-1,-2,0,-1
1528447964959169,-1,-2,-1,-1,-1,-1,-1,-1
1528447964959169,-1,-1,-1,-2,-2,-2,-1,0
1528447964974131,-1,-2,0,1,1,0,-2,0
1528447964974131,3,-1,0,0,1,1,-2,0
1528447964982062,0,0,1,-2,1,-1,-1,1
1528447964982062,0,0,1,-1,-1,-1,1,0
1528447964997022,-1,-2,-1,0,-1,0,-1,-1
1528447964997022,-1,-1,-3,-1,-2,-1,-2,-1
1528447965011982,1,0,-2,0,-1,0,0,-1
1528447965011982,0,-1,-1,-2,1,-1,-1,-1
1528447965018964,1,0,0,-1,0,0,0,-1
1528447965018964,-1,0,0,0,1,0,0,-1
1528447965033936,-1,0,0,0,-1,0,0,1
1528447965033936,-1,-1,0,0,1,-1,0,0
1528447965041902,-1,-1,-1,0,-2,-2,-5,0
1528447965041902,1,-1,-1,0,-1,-2,1,1
1528447965056862,-2,0,0,1,-1,0,1,0
1528447965056862,0,0,-1,1,1,-1,-1,0
1528447965071822,0,1,0,-1,-1,0,-3,-1
1528447965071822,-1,0,-1,-1,-2,-1,-2,1
1528447965078803,-1,-1,0,0,-2,0,-1,-1
1528447965078803,0,-1,0,-1,-1,0,-1,1
1528447965101742,0,0,-1,-1,-1,1,1,0
1528447965101742,-2,-2,-1,0,0,-1,0,0
1528447965108723,-1,-1,-2,-1,-1,0,1,-2
1528447965108723,-1,-2,-1,-3,-2,-2,-1,-1
1528447965123684,-3,-2,0,-1,-1,-1,-1,-2
1528447965123684,1,-1,-1,-1,-1,1,1,-1
1528447965131662,-1,0,-1,0,0,-2,-1,-1
1528447965131662,0,0,0,1,1,0,1,-1
1528447965146622,0,-3,1,-1,0,1,1,0
1528447965146622,-2,0,-1,-1,0,0,0,-1
1528447965161582,1,-1,-1,-1,-1,-1,0,-1
1528447965161582,0,-1,0,-1,-1,-2,-3,0
1528447965176593,-1,0,-1,-1,0,0,0,-2
1528447965176593,-2,0,0,-1,-2,-3,0,-1
1528447965184523,-2,-2,1,-2,0,0,0,-1
1528447965184523,-1,-1,-1,-1,0,1,0,-2
1528447965199486,-1,-1,-2,0,0,-1,-1,-1
1528447965199486,0,-2,-3,-1,-2,0,0,-1
1528447965214442,1,0,0,-1,-2,-1,1,0
1528447965214442,0,-1,-2,-3,-1,-1,-1,-1
1528447965221666,1,0,0,1,0,-1,-1,0
1528447965221666,0,0,0,0,0,0,0,0
1528447965237381,2,1,-2,1,-1,-2,0,-1
1528447965237381,0,1,0,0,-2,1,0,0
1528447965244362,0,-1,-1,-1,-1,-1,-3,0
1528447965244362,-1,-1,0,0,0,0,-1,0
1528447965259606,0,0,1,-1,0,-1,1,0
1528447965259606,0,-2,-2,0,-1,-1,1,1
1528447965274992,-1,-1,0,-2,0,0,-1,0
1528447965274992,0,-3,-1,0,0,-2,1,0
1528447965281589,1,0,-2,0,-2,-1,-2,-1
1528447965281589,-3,3,0,-1,-1,-2,-1,-2
1528447965296510,0,0,-2,1,0,-1,-2,-2
1528447965296510,1,-1,-1,0,-1,-2,-2,0
1528447965304489,-2,-1,0,-2,-2,-2,2,-1
1528447965304489,0,-2,-1,1,0,-2,-1,-1
1528447965319749,-1,0,0,-1,0,-1,1,0
1528447965319749,0,-1,2,0,-1,-1,0,0
1528447965334447,-2,-1,1,-1,-2,-2,-6,-2
1528447965334447,0,-2,-2,1,0,0,-1,1
1528447965341632,-1,-1,-1,0,-1,-2,-3,-2
1528447965341632,0,1,0,-1,-1,0,0,-2
1528447965356351,-3,-1,0,-1,0,0,-1,0
1528447965356351,0,1,0,-1,1,0,0,-1
1528447965364628,-2,-1,-2,0,-1,-1,0,0
1528447965364628,-1,0,1,1,0,0,0,-3
1528447965379588,-2,-1,0,-3,-1,-1,1,0
1528447965379588,-2,-2,-1,-1,0,-1,-2,0
1528447965394545,0,-1,-2,0,-1,0,1,0
1528447965394545,0,-1,0,-1,0,0,-1,0
1528447965402326,0,0,0,-1,0,-1,-2,1
1528447965402326,0,-2,0,-1,-1,-2,0,-5
1528447965417128,0,-1,-1,0,-1,-2,0,0
1528447965417128,-1,0,0,1,1,0,1,0
1528447965424245,-1,0,-2,-1,-2,0,0,-2
1528447965424245,1,1,0,-1,0,1,-1,0
1528447965439475,-1,0,0,-1,-2,-2,0,-1
1528447965439475,-1,0,-1,-1,-2,0,-1,-1
1528447965454761,1,-2,-1,-1,-2,-2,0,-2
1528447965454761,0,-1,-1,-1,-2,0,1,1
1528447965469782,0,-1,0,-1,-1,0,-2,0
1528447965469782,0,-1,-1,-1,0,1,-2,1
1528447965483721,-1,-2,-1,-1,-1,0,-3,-1
1528447965483721,-2,-1,0,-1,0,-1,-2,-3
1528447965492506,0,1,0,1,0,1,0,0
1528447965492506,-2,-1,-1,-3,0,1,0,-1
1528447965507040,0,2,1,-1,-2,-1,1,0
1528447965507040,-2,-3,-3,-1,-1,-3,-2,1
1528447965522298,0,-1,-1,0,-2,0,-1,-1
1528447965522298,0,-1,-1,-2,0,-1,-1,-1
1528447965537456,-2,-1,-2,-1,-1,0,0,2
1528447965537456,1,-1,1,-1,-1,-1,3,0
1528447965544373,-1,-3,0,0,-1,0,0,0
1528447965544373,-1,-1,0,1,-2,-2,-1,1
1528447965559070,0,-2,-1,-2,1,1,-1,-1
1528447965559070,0,0,0,0,-1,0,-1,-2
1528447965574991,-1,0,0,1,-1,-1,-1,0
1528447965574991,0,-1,-1,-1,-1,-1,-2,-1
1528447965581805,-1,0,0,0,0,-2,0,-1
1528447965581805,-1,-1,0,0,0,-2,-2,-2
1528447965597401,-1,-2,-2,0,-1,-1,0,-2
1528447965597401,-1,0,-1,-1,0,-1,-1,-1
1528447965604408,-1,0,-1,-2,-1,-2,-1,1
1528447965604408,1,-1,1,0,0,0,1,-1
1528447965619265,-1,-2,0,0,-1,0,-1,-1
1528447965619265,-1,-2,0,0,-1,-2,0,-1
1528447965641946,-1,-1,0,-2,-1,-1,-1,1
1528447965641946,-3,0,-1,0,-1,-1,-2,0
1528447965649251,-1,-1,-1,0,-2,-1,-1,-1
1528447965649251,0,1,-1,-1,-1,0,1,0
1528447965664977,0,-1,0,0,0,0,0,-1
1528447965664977,-1,-1,-2,0,0,-2,0,-1
1528447965672129,-1,-2,-2,-1,2,-1,-2,-1
1528447965672129,0,1,-1,0,-2,-1,0,1
1528447965694868,0,0,0,1,-2,-1,1,-1
1528447965694868,-2,-3,-3,-1,-1,-1,1,0
1528447965702085,0,0,-1,1,-3,-2,-1,-1
1528447965702085,-2,0,0,-2,-1,-1,0,0
1528447965709341,0,0,0,0,0,0,0,1
1528447965709341,0,-1,1,0,-1,-1,0,1
1528447965724572,1,0,0,-1,-1,0,0,0
1528447965724572,0,-1,0,-1,-1,1,-1,-3
1528447965731832,0,1,-1,-1,-1,-1,-1,-1
1528447965731832,1,2,0,-2,-1,-1,-2,-1
1528447965746790,-1,-2,0,-2,0,0,-2,-2
1528447965746790,1,-1,0,-2,-1,-1,-2,-2
1528447965754779,-2,0,1,-1,1,-2,-1,0
1528447965754779,-1,1,1,-1,1,-1,1,-1
1528447965761842,-1,-2,-4,-2,-2,-1,1,-1
1528447965761842,-2,1,-1,0,-1,-1,-1,1
1528447965777010,1,0,-1,0,-2,0,-1,0
1528447965777010,0,-1,-2,-3,-1,0,-2,-2
1528447965783779,-1,-1,1,-2,0,0,0,-2
1528447965783779,-2,-2,-2,0,0,0,0,0
1528447965798768,-1,0,-1,1,-1,-1,-1,-1
1528447965798768,-2,0,0,2,0,-1,-1,-1
1528447965814791,-1,0,-1,0,-3,-1,-2,-1
1528447965814791,-1,-1,-1,-1,-1,0,1,0
1528447965821914,1,0,0,1,0,-1,-1,-1
1528447965821914,0,-1,-1,-1,-2,-2,-1,0
1528447965837195,0,0,-1,-1,0,0,-1,-1
1528447965837195,-3,-1,0,-1,-1,-1,-2,0
1528447965844917,-1,0,-1,-1,0,1,0,-1
1528447965844917,-1,0,-1,-2,1,0,0,-1
1528447965859893,0,-1,-1,-1,-1,0,-2,2
1528447965859893,0,2,0,-1,0,1,-1,-1
1528447965873880,0,-2,-1,-2,0,-1,0,-3
1528447965873880,-1,-1,-1,0,0,-3,-1,-2
1528447965882077,0,0,0,-1,-2,-2,0,-2
1528447965882077,0,-1,-1,-1,0,-1,-1,0
1528447965897408,-1,0,0,-1,1,-1,0,1
1528447965897408,0,0,0,1,0,1,-1,-1
1528447965904422,-1,0,-1,-2,-1,-2,0,0
1528447965904422,0,-1,-3,-1,-1,-1,-1,-1
1528447965919122,0,0,0,0,-1,0,0,0
1528447965919122,-2,-2,0,0,0,1,-1,0
1528447965934332,0,-1,-1,0,0,0,0,0
1528447965934332,-2,-1,-1,0,-1,-1,-1,-1
1528447965941682,-1,0,-1,0,1,-2,-2,0
1528447965941682,0,0,-1,-1,-1,-1,0,0
1528447965957321,-1,-1,-1,-2,0,-1,-1,-1
1528447965957321,0,0,-1,-2,-1,-1,-1,-2
1528447965964253,-2,-1,0,-1,2,0,0,-1
1528447965964253,-1,0,0,0,-1,-1,-2,-2
1528447965979265,0,0,0,0,0,-1,-1,-1
1528447965979265,0,0,0,-1,-1,0,0,-1
1528447965994482,0,-1,-1,-1,-1,-2,0,1
1528447965994482,-1,0,-3,-2,-1,-3,0,1
1528447966001209,-1,-2,1,1,-2,-1,-1,-1
1528447966001209,0,-2,0,1,-2,-2,-1,-1
1528447966016588,1,0,1,0,-2,0,-1,0
1528447966016588,0,-1,-2,-1,0,-1,-1,-1
1528447966024819,0,-1,-1,0,-1,0,1,0
1528447966024819,0,-1,0,-1,-1,-1,-1,-2
1528447966039301,0,-2,-1,-1,0,0,0,-2
1528447966039301,-2,0,1,1,-1,0,-1,-2
1528447966047286,0,-1,0,-2,0,-1,-1,0
1528447966047286,0,0,0,-1,1,0,-1,2
1528447966062214,-1,0,-1,0,-1,-1,0,0
1528447966062214,0,1,-1,0,2,1,1,1
1528447966077201,-1,-2,-2,-2,-1,0,-1,2
1528447966077201,1,-1,0,-2,-1,-1,1,-1
1528447966084946,0,0,-1,0,-1,-1,-2,-2
1528447966084946,0,-1,2,0,-1,-1,-2,-1
1528447966099139,0,0,-1,1,1,-2,0,-2
1528447966099139,1,-3,-2,-4,0,-1,0,0
1528447966107118,0,0,-3,-2,0,-1,-1,1
1528447966107118,-1,-1,-2,-1,-2,-1,-1,0
1528447966122074,0,1,-2,0,0,1,0,-1
1528447966122074,0,-1,-3,-3,-2,-2,-1,0
1528447966137036,-2,0,0,0,-1,-2,-2,0
1528447966137036,-1,0,0,0,0,-1,0,0
1528447966144023,-2,-2,0,0,-1,-1,1,0
1528447966144023,-2,-2,-3,-2,0,0,-1,-2
1528447966159839,1,1,3,1,0,-1,1,0
1528447966159839,0,1,2,1,1,2,0,1
1528447966166720,-2,1,-2,0,-1,-1,0,-1
1528447966166720,-2,-1,-2,-3,-2,-1,-1,-3
1528447966181973,-1,-1,1,0,0,1,-3,-1
1528447966181973,-1,0,0,-1,2,1,2,1
1528447966197194,-1,-1,-1,-1,-1,0,-2,-1
1528447966197194,-1,-1,-3,-1,0,0,0,-1
1528447966203929,-1,0,-2,-1,1,1,1,-1
1528447966203929,-2,1,0,0,-1,-1,-1,-2
1528447966218875,1,1,0,-1,1,-1,-1,0
1528447966218875,-1,0,-2,0,-1,-2,1,0
1528447966227077,1,-4,-1,-1,-1,-2,0,1
1528447966227077,0,-1,-1,1,-2,0,0,0
1528447966242107,0,3,4,0,-4,-3,-2,-1
1528447966242107,0,-1,-1,3,1,-2,-1,1
1528447966257114,0,-2,-3,-3,-2,-1,0,-1
1528447966257114,-1,2,2,3,0,0,-2,0
1528447966272070,-2,0,1,-2,-3,-2,0,-3
1528447966272070,0,-2,-2,-1,1,-2,-3,-2
1528447966287025,-2,-1,-1,0,-2,-1,0,-1
1528447966287025,0,-2,-2,-2,-1,2,0,0
1528447966293969,-3,-2,-3,0,-3,-1,-1,0
1528447966293969,-1,0,-2,0,-1,0,-1,0
1528447966308927,1,1,-1,1,1,1,-1,0
1528447966308927,-1,0,0,-2,-1,0,0,0
1528447966323888,1,0,0,0,2,1,-2,0
1528447966323888,-1,0,0,0,0,-1,0,0
