timestamp,emg1,emg2,emg3,emg4,emg5,emg6,emg7,emg8
1529305571843263,-3,-3,-4,-4,-3,-8,-2,-1
1529305571843263,-1,0,-1,2,13,3,1,1
1529305571844260,-2,-2,-6,-8,-19,-10,-2,-3
1529305571844260,0,-2,-3,0,-4,-3,-1,0
1529305571845257,-1,-2,5,3,4,0,-3,-3
1529305571845257,2,3,4,2,-2,-8,2,-3
1529305571847251,0,-2,0,1,11,-1,0,3
1529305571847251,-2,1,4,8,-3,13,2,-4
1529305571855231,-1,-3,-2,-1,-18,-10,-1,-2
1529305571855231,-5,-8,-14,-9,-4,12,-2,-2
1529305571863209,-1,-2,-3,-5,-2,-1,2,-1
1529305571863209,-1,1,2,3,0,-7,-1,0
1529305571870191,1,8,11,3,9,-3,-1,-1
1529305571870191,1,3,2,4,3,14,2,0
1529305571885151,1,1,-1,0,-5,-13,-4,-3
1529305571885151,-3,1,-1,-2,10,2,-1,-2
1529305571893133,-2,-12,-20,-6,1,6,3,2
1529305571893133,-2,-6,-1,-7,-6,-16,-6,-2
1529305571901108,-1,7,12,2,4,-2,-1,1
1529305571901108,1,0,-4,-4,-11,-5,-2,1
1529305571915070,1,7,12,6,7,7,0,0
1529305571915070,-3,-9,-20,-5,2,-8,-2,-1
1529305571923049,-2,-10,-6,-2,-9,-1,1,-2
1529305571923049,0,-1,2,-8,-4,3,-3,-2
1529305571963941,5,15,13,3,-3,6,3,1
1529305571963941,0,3,6,6,4,-2,0,0
1529305571964937,2,1,5,3,6,3,1,1
1529305571964937,1,-5,-10,-2,-17,-11,-3,0
1529305571967935,-5,-2,-7,0,14,32,5,0
1529305571967935,-1,1,-2,-5,-7,0,-3,-1
1529305571968935,-3,-9,-16,-2,-1,-2,-2,-1
1529305571968935,-6,-16,-3,-4,4,3,-1,-2
1529305571974910,3,16,21,8,1,-16,-3,2
1529305571974910,5,15,16,8,-2,6,5,3
1529305571983900,0,8,12,11,7,10,-3,0
1529305571983900,1,-3,-14,0,13,-6,-1,-1
1529305571989873,-2,-15,-18,-11,-14,-2,-4,-4
1529305571989873,-4,-14,-20,-11,4,-5,-2,-4
1529305572004831,-1,-2,7,-1,-13,-7,-3,-2
1529305572004831,2,8,15,4,3,4,0,0
1529305572011812,1,-1,-1,0,-3,-9,0,0
1529305572011812,-1,4,2,4,15,-3,0,1
1529305572020810,1,4,5,-3,-4,19,6,2
1529305572020810,0,-1,-4,-5,-10,2,-2,-1
1529305572035748,2,1,8,0,-3,-5,0,-2
1529305572035748,-2,-10,-26,-5,8,5,-4,-4
1529305572041732,-2,-8,-3,-1,-3,-14,-2,0
1529305572041732,-1,9,27,4,1,7,4,3
1529305572049711,2,5,1,10,7,-5,0,1
1529305572049711,1,-1,-1,3,6,-2,1,0
1529305572064671,-2,8,8,-12,-31,0,-1,-3
1529305572064671,-2,3,-5,0,2,5,-1,0
1529305572072649,-3,-9,-10,-6,14,0,-2,-1
1529305572072649,-3,-5,-3,-1,-49,-4,-4,-1
1529305572080664,-1,-5,-13,-4,11,0,-1,0
1529305572080664,-4,-8,-8,-6,-10,-2,1,-1
1529305572095619,-2,-5,-4,1,-7,-13,-2,-2
1529305572095619,3,6,21,8,11,5,1,-1
1529305572102569,3,1,-6,-9,-4,-2,2,1
1529305572102569,3,5,10,7,0,10,2,1
1529305572109550,-4,-12,-21,0,5,8,1,2
1529305572109550,-5,-1,11,5,19,-12,-8,-4
1529305572124566,2,10,9,10,8,-11,0,0
1529305572124566,3,12,18,8,20,-9,-4,-1
1529305572132544,0,0,-6,-10,0,9,2,1
1529305572132544,0,-8,-4,-6,-31,-16,1,1
1529305572141491,-4,-8,-12,-2,-1,-9,-2,-3
1529305572141491,-1,-7,-16,-8,-4,9,1,-1
1529305572155428,0,1,5,0,-1,-10,0,-2
1529305572155428,-1,-1,-6,1,16,-2,-2,-3
1529305572162448,-2,-4,-4,-5,-12,2,-1,-1
1529305572162448,1,6,3,1,-3,-5,-1,0
1529305572169391,1,-1,0,-2,-5,-8,-4,-1
1529305572169391,1,1,2,5,12,16,5,5
1529305572184350,-1,-1,6,0,5,-1,0,0
1529305572184350,-1,1,0,1,-2,-19,-8,-5
1529305572192330,-3,-3,-8,-11,-19,3,-5,-4
1529305572192330,1,3,3,6,1,-4,-3,-2
1529305572201307,-2,-5,-9,1,15,20,4,-1
1529305572201307,2,1,4,-4,-11,-16,-1,1
1529305572215271,-1,4,8,4,20,14,1,2
1529305572215271,-2,-4,-9,-18,-41,-4,-5,0
1529305572222250,0,2,7,14,24,-5,-3,-2
1529305572222250,0,-2,-4,0,7,-4,0,0
1529305572229232,-4,-3,-3,-2,-10,1,-3,-2
1529305572229232,1,10,9,0,3,3,6,2
1529305572244191,0,2,-4,-4,-5,-8,-3,0
1529305572244191,-4,-9,-11,6,23,14,1,-3
1529305572252211,-2,-5,1,1,-5,-14,-2,-3
1529305572252211,-1,-1,-1,-2,0,34,2,-1
1529305572267132,-1,5,8,4,14,0,2,0
1529305572267132,1,-1,-6,-4,-15,-21,-3,-3
1529305572275107,1,0,0,-3,-14,-2,-2,-1
1529305572275107,-3,-4,-3,-1,10,-7,-1,-1
1529305572282094,-1,-3,-3,-1,-16,-2,1,2
1529305572282094,-1,3,1,-4,-10,8,-1,1
1529305572290069,0,3,0,4,28,12,5,0
1529305572290069,-2,-2,-3,-10,-25,-23,-5,-2
1529305572305027,-1,-4,-3,-2,-6,0,-2,0
1529305572305027,-2,-2,6,4,-6,-1,0,1
1529305572312010,0,5,10,12,6,3,-3,-3
1529305572312010,1,3,7,2,12,6,1,-1
1529305572326969,-1,-1,1,-2,-16,0,-2,-2
1529305572326969,-2,-6,-13,-16,1,4,-1,0
1529305572334948,1,1,5,-1,-2,-1,1,0
1529305572334948,-1,-3,-1,4,3,7,-1,-1
1529305572341929,-2,-2,-2,-2,-7,-6,-2,-3
1529305572341929,-2,2,1,1,10,-2,-2,-1
1529305572349910,-1,-3,-3,-7,-27,6,3,2
1529305572349910,-3,-9,-11,-11,18,-7,0,2
1529305572364907,-2,1,4,7,-46,-14,-2,-1
1529305572364907,2,5,10,8,-7,5,2,0
1529305572371849,2,1,-1,0,18,0,1,0
1529305572371849,0,0,0,-3,13,7,-1,-3
1529305572386810,-2,-6,-12,-11,8,1,2,2
1529305572386810,0,0,0,0,-2,6,-2,0
1529305572395787,0,4,8,4,-14,-17,-4,-1
1529305572395787,2,0,-2,2,5,12,4,0
1529305572401769,-2,-4,-4,-9,7,8,-3,0
1529305572401769,-4,-8,-10,-6,-22,1,0,-1
1529305572409748,-1,-1,0,-1,9,-6,-1,0
1529305572409748,2,3,3,7,11,-8,1,1
1529305572424708,0,3,3,6,4,3,-2,-3
1529305572424708,0,-1,-6,-2,5,-1,1,1
1529305572431732,-1,-3,-1,-1,-26,-7,1,1
1529305572431732,2,5,8,-2,4,0,-3,2
1529305572446650,0,-4,-6,2,21,1,1,0
1529305572446650,1,3,0,-8,-9,1,3,-1
1529305572455646,0,-3,-11,-5,2,2,0,-2
1529305572455646,0,1,0,2,2,-10,-4,-3
1529305572462607,-2,-1,1,-5,-7,-10,-2,-1
1529305572462607,-3,-3,0,9,17,14,-1,-2
1529305572469588,1,2,9,4,-5,3,0,2
1529305572469588,-2,-1,-1,-1,-1,-6,-2,-1
1529305572484552,-1,3,0,2,7,-2,-4,-2
1529305572484552,-1,1,3,7,18,-6,-2,0
1529305572492541,-2,-2,-3,-4,-8,-3,-1,-2
1529305572492541,0,-3,-2,-7,-13,0,-1,-1
1529305572507765,3,-1,-6,-4,7,-15,2,0
1529305572507765,1,1,1,4,4,6,3,3
1529305572515551,-4,-3,-4,-15,-12,-7,-3,-2
1529305572515551,-1,2,-7,2,5,-3,-2,-1
1529305572522739,0,4,13,15,1,6,-2,1
1529305572522739,0,-2,-2,-4,-1,-7,-1,-1
1529305572529478,0,0,6,10,24,6,1,-2
1529305572529478,-3,-6,-9,-20,-33,-7,-1,-1
1529305572544452,-2,-3,-5,3,16,3,-2,-3
1529305572544452,1,0,0,0,-4,1,-1,-1
1529305572552734,-2,-4,-9,-7,11,15,-1,1
1529305572552734,0,0,11,12,1,-9,0,0
1529305572567719,3,0,0,-4,-7,5,0,1
1529305572567719,-1,-2,-4,-4,2,1,2,-1
1529305572575785,-3,0,1,1,2,-7,-3,-3
1529305572575785,-1,1,0,-1,-6,10,3,0
1529305572582662,1,0,-3,-12,-11,5,2,-1
1529305572582662,-2,-2,0,8,-4,13,-2,-2
1529305572597852,2,0,-2,-4,-12,-9,-4,3
1529305572597852,-2,-1,1,7,9,-14,-2,-1
1529305572604834,-4,0,1,-2,-2,-6,-3,-2
1529305572604834,-3,-3,-3,-8,-6,-3,3,-3
1529305572611840,-1,-1,-1,2,0,-10,-5,-2
1529305572611840,-1,-3,0,-1,0,10,-1,-1
1529305572626775,1,0,1,-3,-2,-5,-1,-2
1529305572626775,-6,-3,-2,4,6,-6,-4,-4
1529305572634752,3,0,-1,0,1,3,2,0
1529305572634752,-3,-3,-8,-6,-5,-7,2,1
1529305572641735,1,2,3,-2,-3,-3,-1,1
1529305572641735,-1,-2,0,-3,-6,-2,0,-1
1529305572658400,-1,3,5,8,7,5,2,0
1529305572658400,5,3,9,12,-3,-12,1,0
1529305572665325,1,1,1,-4,3,17,2,0
1529305572665325,1,2,-3,-2,2,-4,-1,0
1529305572672621,0,-2,-6,-4,3,1,2,-1
1529305572672621,0,-1,1,4,10,11,1,3
1529305572687384,-1,-3,-2,1,-7,2,3,1
1529305572687384,-2,0,-1,-5,-7,-13,-5,-2
1529305572695313,1,-2,-2,-1,7,-2,1,-1
1529305572695313,-3,0,-1,-1,-2,-2,-1,-4
1529305572702297,0,-1,-3,-3,-4,3,3,0
1529305572702297,1,2,4,5,5,6,4,4
1529305572717428,1,2,2,5,2,3,-3,1
1529305572717428,-4,-4,-7,-14,-32,-12,-8,-6
1529305572724462,2,2,0,-1,-3,-3,0,3
1529305572724462,2,2,0,-1,-6,-2,6,7
1529305572732434,-3,-4,-1,-2,-5,-1,-14,-4
1529305572732434,0,2,3,3,6,-6,-1,-13
1529305572747661,-3,-1,-1,0,7,12,-5,-12
1529305572747661,0,-1,0,-1,-11,-7,-1,1
1529305572755649,-1,-3,-1,-1,-1,-8,0,-1
1529305572755649,-2,-5,-6,-7,0,13,0,5
1529305572762860,-2,-3,-2,4,4,-8,1,3
1529305572762860,0,-1,-3,-3,7,-1,-3,-10
1529305572777710,-1,3,1,-1,-7,-5,3,-2
1529305572777710,-2,-1,2,0,0,10,-2,2
1529305572784634,0,0,5,1,3,-7,-3,-2
1529305572784634,0,-1,2,8,1,-8,-4,-1
1529305572792613,-2,-2,-3,-5,-8,-3,5,2
1529305572792613,2,1,4,0,0,-11,-2,0
1529305572807597,0,-1,0,5,3,3,1,1
1529305572807597,1,2,0,-4,-23,-24,-9,-6
1529305572815553,1,-1,-3,0,11,6,4,-1
1529305572815553,4,-1,0,1,1,2,3,2
1529305572822574,-7,-3,-3,-3,-3,-2,-1,1
1529305572822574,-3,-3,-4,-6,4,5,-4,-1
1529305572837548,-2,0,6,1,-4,-4,1,-1
1529305572837548,1,1,0,-1,3,4,1,0
1529305572844528,3,2,3,3,-2,-5,-3,0
1529305572844528,1,0,-3,-1,7,13,5,2
1529305572852507,0,4,2,-3,-14,6,2,0
1529305572852507,-3,-4,-4,0,9,5,-6,0
1529305572867467,0,1,-3,-12,-7,-3,-2,0
1529305572867467,2,5,13,17,3,6,1,2
1529305572875445,2,-6,-7,-5,9,0,-4,-1
1529305572875445,-1,2,-4,0,11,9,3,-1
1529305572882427,0,-1,1,-1,1,-6,1,-1
1529305572882427,-1,-1,-2,-8,-15,-4,-5,-4
1529305572897358,-2,1,-2,-1,1,6,-4,-2
1529305572897358,-3,-3,0,-1,-2,-8,1,1
1529305572904352,-4,-4,-2,9,9,-5,-1,0
1529305572904352,1,3,1,-2,4,8,4,-1
1529305572912330,1,-1,-3,-4,-7,-6,-3,-1
1529305572912330,-3,-2,-3,-8,-3,5,-1,0
1529305572927307,0,-1,-4,-1,-2,1,1,0
1529305572927307,-1,-3,0,-3,-3,1,0,0
1529305572935231,-3,-1,-3,-1,-2,-10,-3,-3
1529305572935231,2,0,1,-2,0,6,1,1
1529305572949227,0,3,1,-2,-1,-4,-2,-1
1529305572949227,-2,-3,-4,-2,-7,2,0,1
1529305572958204,1,-2,-2,0,1,-4,-1,1
1529305572958204,0,1,1,3,0,2,0,-1
1529305572973184,2,3,8,0,1,13,1,1
1529305572973184,-1,-4,-6,-6,4,-4,-1,-2
1529305572974181,0,-1,1,-4,-11,-2,0,-3
1529305572974181,-1,-1,-5,-2,6,-4,-2,0
1529305572996068,-2,-2,0,-1,-2,0,-1,-3
1529305572996068,-1,1,-4,-7,-5,1,1,3
1529305572997066,0,1,4,10,5,1,3,2
1529305572997066,-1,0,3,5,7,-2,-2,-2
1529305573010032,2,-1,-3,-9,-10,3,6,3
1529305573010032,-3,-2,-1,-4,2,-2,-5,-3
1529305573018064,1,1,2,8,3,6,1,1
1529305573018064,-1,-2,-3,0,2,2,-1,-3
1529305573033025,-3,-1,3,2,-3,-1,1,1
1529305573033025,-4,-2,0,3,10,-5,-1,-3
1529305573034021,-2,-2,1,-4,0,4,-2,0
1529305573034021,0,-2,-2,-1,-11,-2,2,1
1529305573046992,0,-1,-2,6,9,2,-4,-4
1529305573046992,1,1,1,-11,-8,-4,-1,-1
1529305573054971,-3,1,3,5,6,-3,-2,0
1529305573054971,2,-2,-6,-5,-14,-7,0,0
1529305573069926,0,-1,-2,0,8,-3,-2,0
1529305573069926,-1,-3,-7,-10,-3,-1,1,0
1529305573077889,0,0,4,9,6,2,3,1
1529305573077889,0,0,0,-2,-10,-1,-1,0
1529305573092811,1,-2,-4,-4,-3,-7,-2,-1
1529305573092811,0,0,1,7,5,2,1,1
1529305573093808,-1,-3,-8,-13,0,9,-6,-5
1529305573093808,0,1,-3,-4,3,9,5,3
1529305573107324,1,2,17,23,5,-6,-3,0
1529305573107324,-2,-4,0,-3,-1,1,-2,1
1529305573115775,0,-1,-3,-5,-5,-4,-1,-1
1529305573115775,2,1,7,6,4,0,-3,-1
1529305573129979,0,-4,-10,-12,-10,-8,3,0
1529305573129979,0,-2,-3,-1,-2,5,1,0
1529305573137964,-3,3,15,9,-2,-8,-3,-3
1529305573137964,-3,-2,-5,-6,-2,-15,-1,-1
1529305573153285,-2,2,-2,-4,-6,4,-3,-3
1529305573153285,1,-1,-1,4,15,4,0,0
1529305573154470,4,-1,-7,-9,-12,-9,7,9
1529305573154470,-7,-3,-2,1,3,2,-6,-10
1529305573167729,0,0,1,-1,0,1,3,0
1529305573167729,1,-1,2,1,-10,-13,-4,0
1529305573175829,-1,0,-2,-2,1,8,-3,-6
1529305573175829,5,-1,6,5,7,7,4,16
1529305573190079,-6,-4,-9,-7,-11,-5,-1,-18
1529305573190079,0,-4,-4,0,1,0,2,2
1529305573199055,2,3,2,0,1,10,9,8
1529305573199055,-3,-2,-1,1,-2,-7,-14,-6
1529305573212021,2,1,-1,-4,6,3,1,2
1529305573212021,-4,1,4,5,4,-4,1,-12
1529305573221799,-1,-6,-5,-2,-2,-14,-2,10
1529305573221799,0,1,0,-1,-4,5,5,0
1529305573227793,0,-2,1,-3,0,-7,-4,4
1529305573227793,1,-1,-1,0,1,6,4,3
1529305573236792,1,1,-5,-5,6,4,-3,-8
1529305573236792,1,3,11,11,-2,-9,1,1
1529305573249952,2,2,0,-1,-1,0,-4,2
1529305573249952,0,0,-2,2,-6,-5,3,9
1529305573258702,0,1,0,-4,3,4,1,-2
1529305573258702,1,1,1,3,5,4,1,0
1529305573272836,-4,1,2,0,2,5,2,1
1529305573272836,-3,3,3,1,-2,1,-2,-2
1529305573280905,-1,-4,-5,-3,-1,-3,-1,-1
1529305573280905,1,0,0,-5,-16,-6,7,1
1529305573287207,-2,-2,-2,5,23,7,0,0
1529305573287207,3,-1,-3,-9,-28,-3,1,10
1529305573296091,-6,0,2,-3,-6,-17,-15,-21
1529305573296091,4,-1,-6,-1,16,12,0,6
1529305573309316,-3,-2,1,4,4,-1,5,9
1529305573309316,-3,-3,-3,-7,13,0,-18,-19
1529305573319517,-1,-1,3,14,-8,0,5,10
1529305573319517,-2,-1,-3,-6,-10,-7,-3,-3
1529305573332458,-2,-3,1,-4,-11,-6,-2,1
1529305573332458,2,1,1,0,10,3,2,-5
1529305573341170,-1,-1,-3,0,-3,-5,3,0
1529305573341170,-2,-2,-6,-6,-2,-5,0,-5
1529305573347410,0,0,-7,-6,-10,-7,-8,0
1529305573347410,-3,0,1,-2,-1,4,-1,1
1529305573356430,1,0,-1,-2,11,8,-4,-5
1529305573356430,-1,2,4,8,-2,1,5,6
1529305573370040,-2,-4,-6,-7,0,3,1,-4
1529305573370040,1,-1,-1,-2,-2,-2,0,2
1529305573378730,0,0,-2,0,-3,-2,-2,2
1529305573378730,-5,-4,1,-5,4,0,-4,-6
1529305573392264,1,1,0,-2,-2,9,-2,-2
1529305573392264,-2,-2,-1,4,-2,-9,-3,-1
1529305573400948,-1,-1,-4,-9,0,2,2,0
1529305573400948,-1,-4,-4,1,6,-2,-4,-4
1529305573407772,1,0,-1,1,-5,3,0,1
1529305573407772,-2,0,1,0,2,-14,-2,1
1529305573416489,-1,-2,-3,-8,-6,-4,-1,-1
1529305573416489,1,1,0,3,-3,-8,0,0
1529305573430164,1,1,0,-8,-10,2,3,2
1529305573430164,-3,-1,-1,8,9,-11,-7,-7
1529305573438730,-1,-6,-7,-8,-10,0,-1,-1
1529305573438730,0,0,2,-1,0,-6,-1,-3
1529305573452892,0,0,3,6,1,-1,-1,0
1529305573452892,1,2,2,-3,-8,-5,4,1
1529305573461012,-2,0,3,11,1,-2,2,1
1529305573461012,-2,-2,-6,-5,1,-2,-4,0
1529305573467465,-1,0,0,-3,-4,-12,-2,-1
1529305573467465,-1,-2,-5,-5,9,22,5,1
1529305573476443,3,0,0,4,-4,-6,0,0
1529305573476443,0,-2,0,-2,12,9,0,-1
1529305573490063,-2,-3,-1,1,-3,-15,-2,-1
1529305573490063,1,0,-1,1,-4,-1,3,1
1529305573498690,-2,0,-1,-4,-3,3,4,8
1529305573498690,-3,-1,0,3,-9,-8,-13,-16
1529305573512226,0,0,-3,-2,9,3,1,0
1529305573512226,1,0,0,1,-1,-5,-4,0
1529305573521097,0,-1,-2,-6,5,8,0,0
1529305573521097,1,0,-2,-3,-9,2,1,3
1529305573527952,-2,-1,2,6,1,-6,-4,-3
1529305573527952,-1,1,2,1,-3,2,2,0
1529305573536148,-1,-2,-2,-1,5,10,1,-3
1529305573536148,-2,0,-2,-7,-4,-3,1,2
1529305573550297,4,0,0,1,0,-2,-2,-2
1529305573550297,-2,1,2,1,1,-1,0,3
1529305573558545,-2,0,0,-1,0,-1,-3,-3
1529305573558545,-1,0,0,2,2,7,2,-1
1529305573572816,-1,0,-2,0,2,12,4,0
1529305573572816,2,2,1,1,1,5,-2,-3
1529305573581550,1,0,2,0,1,-13,0,1
1529305573581550,-1,-1,-1,-2,-8,-7,-4,1
1529305573587881,1,1,0,2,1,-2,-2,-1
1529305573587881,-3,-5,-2,-3,0,18,0,0
1529305573596023,-3,-2,1,3,1,1,0,-1
1529305573596023,2,-1,0,-1,2,8,5,1
1529305573609783,-2,-1,-1,-3,-3,-1,-5,-1
1529305573609783,-1,-2,-2,-3,-5,0,-3,-3
1529305573619061,0,-1,0,0,5,10,1,-1
1529305573619061,-1,-1,0,0,2,-2,5,6
1529305573632033,1,1,4,3,-3,-7,-9,0
1529305573632033,-1,-1,-5,-3,-2,-4,4,-2
1529305573641060,0,1,1,-5,-3,-3,-5,1
1529305573641060,-1,-1,-3,6,3,2,1,-2
1529305573647248,0,0,5,-5,-8,5,3,-1
1529305573647248,3,2,0,0,3,0,4,6
1529305573655962,0,-1,2,2,-4,-12,-1,-3
1529305573655962,-2,-3,-9,-11,-5,-12,-5,-4
1529305573669769,1,-2,-4,0,2,0,-4,-1
1529305573669769,-1,-2,-2,-2,-4,-1,-4,-5
1529305573678501,-2,2,3,-1,0,4,-2,-4
1529305573678501,3,2,5,6,5,3,0,2
1529305573691757,-1,-3,-2,-2,-3,-3,-1,-1
1529305573691757,1,1,-3,-8,-3,-7,4,1
1529305573701173,0,0,4,15,4,7,8,2
1529305573701173,-2,-1,-4,-4,-5,-5,-9,-1
1529305573707478,-1,-1,2,3,2,5,6,6
1529305573707478,0,0,-1,-2,0,0,-3,0
1529305573716132,-1,-1,-3,-3,-1,-3,-1,0
1529305573716132,1,-1,3,0,-1,2,5,2
1529305573730487,3,-1,-2,-3,-2,2,-6,-1
1529305573730487,-7,-3,-1,1,4,-2,-1,0
1529305573739072,-2,-1,-3,-4,-6,-1,1,0
1529305573739072,0,1,2,2,4,-1,-1,-1
1529305573752296,-1,-1,-5,-4,0,1,-1,-3
1529305573752296,-1,-1,-2,-1,-8,-8,-3,-3
1529305573761043,2,-1,-2,-1,0,1,3,2
1529305573761043,-1,-1,-1,-1,0,0,-1,1
1529305573775972,1,-1,-2,-1,1,0,6,6
1529305573775972,2,0,1,2,1,3,-6,-2
1529305573777967,2,-1,-1,-3,-2,-3,-1,-1
1529305573777967,-4,-3,0,-1,-1,2,4,0
1529305573790193,-2,-2,-1,0,4,-1,-6,-7
1529305573790193,-3,1,0,2,-3,-3,0,0
1529305573798911,-1,-2,-4,-4,2,0,-6,-1
1529305573798911,0,-2,-2,-2,-3,1,0,0
1529305573812139,-2,3,7,5,7,2,3,1
1529305573812139,-2,0,1,-3,-9,-5,0,2
1529305573821977,7,3,-2,2,-1,0,0,-3
1529305573821977,-5,-3,-4,-3,0,-1,-1,-2
1529305573836073,-4,-1,-8,-6,-2,0,1,0
1529305573836073,6,-1,1,5,4,4,3,4
1529305573837807,-7,1,3,-5,-2,0,0,3
1529305573837807,-1,-2,1,3,-2,0,-4,-2
1529305573850088,1,-4,-3,-2,0,0,2,1
1529305573850088,0,-2,-4,-3,1,1,0,-1
1529305573859063,-3,-2,-6,-6,-3,-5,-6,-4
1529305573859063,0,1,9,12,3,-1,-4,-2
1529305573872273,-3,-1,-3,-6,-3,-1,-1,-5
1529305573872273,-2,-2,-2,-1,2,-1,1,-3
1529305573881004,0,-2,0,0,0,-4,-1,0
1529305573881004,1,-2,-6,-8,-4,-1,0,0
1529305573896231,0,-2,4,7,-1,-1,0,-1
1529305573896231,0,-2,-1,-3,-3,3,1,1
1529305573897959,2,1,2,3,0,-1,-3,2
1529305573897959,-3,2,-1,-3,-3,2,4,-1
1529305573909928,3,1,3,4,-3,1,2,2
1529305573909928,-1,1,-1,-6,-1,-1,-2,0
1529305573919165,-6,-3,-1,4,-2,-2,-2,-2
1529305573919165,2,1,-2,-5,2,-1,4,5
1529305573932181,-1,-1,-2,5,2,0,1,0
1529305573932181,0,-1,0,4,3,4,2,2
1529305573941157,3,-1,-4,-2,1,-2,-4,0
1529305573941157,-1,0,-1,-5,-5,-2,1,-1
1529305573957307,-2,-1,-2,-2,-2,0,2,2
1529305573957307,-4,-1,1,-1,-2,0,0,0
1529305573958161,2,1,1,4,2,0,-7,-2
1529305573958161,1,-3,-3,-3,0,2,1,-2
1529305573970473,-1,-1,-4,-1,-1,-1,-1,-1
1529305573970473,-2,1,2,4,0,-3,-1,-1
1529305573979097,-1,-3,-1,-2,-2,0,3,1
1529305573979097,3,0,-1,2,1,-1,-3,-1
1529305573992434,-2,0,-1,-6,-5,-1,-1,-2
1529305573992434,0,-1,-1,3,8,2,2,1
1529305574001409,1,0,0,-9,-6,-3,-1,-2
1529305574001409,-3,-2,1,9,5,1,2,-2
1529305574016756,0,-4,-9,-8,3,-3,-1,2
1529305574016756,5,0,7,7,-7,-2,0,-2
1529305574017672,-4,-2,-3,-3,-1,1,3,0
1529305574017672,0,1,1,1,2,2,0,2
1529305574030225,-2,1,4,-1,1,-1,-1,-3
1529305574030225,-2,-3,-4,-5,0,-4,-1,-2
1529305574039379,0,0,-2,4,3,2,2,-1
1529305574039379,-2,0,5,-5,-9,-7,-9,-1
1529305574052531,-1,-3,5,7,-1,-1,0,-2
1529305574052531,0,-2,-4,-8,-2,-1,-4,1
1529305574061546,-1,-1,2,10,-1,0,5,0
1529305574061546,0,-1,-6,-7,0,1,1,0
1529305574076468,3,2,0,0,-2,-1,-1,2
1529305574076468,1,1,-1,-2,-1,-1,0,-1
1529305574077466,-2,1,-3,-4,1,2,2,0
1529305574077466,0,2,0,2,2,0,3,1
1529305574089433,-3,-2,0,-1,-1,0,-3,-4
1529305574089433,-1,1,1,-1,1,0,-2,-2
1529305574098409,-2,-3,-1,-3,-2,-1,-5,-2
1529305574098409,-3,0,2,3,-2,0,-1,-2
1529305574112410,-1,0,-3,-3,-2,-1,1,1
1529305574112410,-1,-1,-5,-2,-1,1,5,-1
1529305574121349,-3,0,3,1,1,-4,-4,-4
1529305574121349,1,-2,-3,-1,-1,0,-1,-2
1529305574136307,-2,-1,-2,0,-1,-1,-1,0
1529305574136307,-2,-3,-3,0,-1,-2,-1,-1
1529305574137305,-1,0,0,0,-1,0,2,2
1529305574137305,1,-1,-3,-4,0,2,0,-1
1529305574149315,1,-1,1,0,1,2,1,1
1529305574149315,-1,0,1,-1,-1,1,-2,-1
1529305574158249,0,-2,-2,-3,0,0,1,0
1529305574158249,0,-3,-3,-3,0,-4,-2,0
1529305574172565,0,0,-2,-2,-1,1,-1,-2
1529305574172565,0,1,1,-1,-1,1,0,1
1529305574181188,2,0,1,-2,-1,-2,-3,-2
1529305574181188,0,-4,-5,-5,-2,1,0,-2
1529305574196481,-1,0,0,-2,-1,0,-1,-1
1529305574196481,0,-2,-1,3,0,-2,-2,1
1529305574198143,-2,0,-2,-5,-1,1,-2,0
1529305574198143,-1,0,-1,5,1,-2,-1,0
1529305574210110,0,1,2,0,-2,-2,-1,-1
1529305574210110,-1,-2,-3,0,2,-1,-3,0
1529305574219309,1,-1,-3,-4,-2,-2,0,-1
1529305574219309,-2,1,6,6,0,-2,0,-1
1529305574232296,-1,0,-3,-1,-2,1,2,-1
1529305574232296,0,1,-1,-2,-2,0,-2,-1
1529305574241057,0,-2,-4,-2,-1,-1,2,1
1529305574241057,-2,-1,-2,-1,1,0,-1,-1
1529305574256561,3,-2,0,0,-1,-5,-2,1
1529305574256561,-2,-1,1,1,-1,-2,1,0
1529305574258421,0,-2,-2,1,1,3,1,1
1529305574258421,0,-2,0,0,-2,-1,-1,-1
1529305574269322,-2,0,-1,-1,-2,-3,-2,0
1529305574269322,0,1,-1,-2,-1,-4,-2,-1
1529305574278271,-2,-2,-1,4,0,-1,0,-1
1529305574278271,0,1,-1,-1,-1,2,3,1
1529305574292224,-1,-2,-7,-8,1,-1,-1,0
1529305574292224,1,1,10,12,3,0,-1,-2
1529305574301218,-1,0,0,0,-2,1,0,-1
1529305574301218,-1,2,0,-2,-3,-3,0,-1
1529305574316262,-1,-1,-2,-2,-1,2,-2,1
1529305574316262,-1,0,-3,-5,0,2,-1,0
1529305574318134,1,-1,2,2,0,0,0,0
1529305574318134,0,-1,-3,-4,-4,-2,-1,-2
1529305574330367,-3,0,-1,-3,2,2,-2,-3
1529305574330367,0,-1,1,3,11,4,4,1
1529305574339303,-1,-3,-2,-2,-12,-4,-1,-1
1529305574339303,0,-2,0,-1,-1,-1,-4,0
1529305574352280,-3,-2,-1,3,0,2,0,-1
1529305574352280,-1,-3,-2,-4,-5,-3,-1,-3
1529305574361048,0,2,-1,0,7,-2,-1,-1
1529305574361048,2,0,0,2,-2,-2,-3,1
1529305574376026,-1,2,0,-1,2,4,-2,-1
1529305574376026,-3,-3,-6,-2,-5,-2,6,2
1529305574378021,-3,-2,-1,-5,-3,-4,0,-2
1529305574378021,-2,-1,1,-2,1,0,-3,-1
1529305574390337,1,-1,1,1,0,-1,1,0
1529305574390337,-1,-2,-3,-5,-7,-3,-5,-1
1529305574398964,-1,-3,-4,0,1,0,2,-1
1529305574398964,0,0,1,1,0,2,4,3
1529305574411932,-1,-1,-2,-1,3,0,-1,2
1529305574411932,-1,-1,-2,-1,2,1,-1,1
1529305574428885,-1,-2,-2,-1,-3,-2,-3,0
1529305574428885,1,-2,-2,-3,3,-1,-1,0
1529305574436262,1,-1,2,3,0,0,0,0
1529305574436262,2,1,1,-2,-4,1,4,1
1529305574438466,-3,0,3,2,6,0,-3,-3
1529305574438466,-1,-1,-2,-1,-1,-2,-2,-1
1529305574450390,1,1,0,1,-3,-3,-1,1
1529305574450390,-1,-3,-4,-6,0,-1,-1,0
1529305574458682,3,2,4,4,4,7,1,2
1529305574458682,-2,1,0,4,2,0,1,-3
1529305574472872,-2,0,0,-1,-3,-10,-2,-2
1529305574472872,-2,0,2,0,-1,-3,-4,0
1529305574480625,1,-1,-2,0,-1,-2,0,2
1529305574480625,-1,-2,-2,-1,-3,-2,-4,-2
1529305574495577,-1,-1,-3,-1,-1,1,2,1
1529305574495577,-1,-1,-1,0,1,-1,0,0
1529305574502302,-2,-1,0,-2,-2,-1,-1,0
1529305574502302,-2,-1,0,-1,0,1,1,0
1529305574509288,0,-1,-1,0,-3,-4,-4,-1
1529305574509288,1,2,1,0,-1,1,-2,-2
1529305574518622,2,-1,1,-1,-1,-4,0,1
1529305574518622,0,-1,-1,-1,1,0,0,-1
