timestamp,emg1,emg2,emg3,emg4,emg5,emg6,emg7,emg8
1528876531760570,-2,-1,0,0,0,-1,0,0
1528876531760570,-1,-2,0,0,0,-2,-1,0
1528876531760570,-1,-1,-1,-2,0,-2,1,-1
1528876531760570,1,0,-2,0,-1,-1,-1,-1
1528876531762568,0,-1,0,0,0,0,-1,0
1528876531762568,0,-1,1,0,0,-1,-1,-1
1528876531766555,0,-1,-1,-1,-1,1,0,0
1528876531766555,-1,-2,1,-2,-1,-1,-1,-1
1528876531772539,1,-1,0,0,-1,0,-2,-1
1528876531772539,1,0,0,-1,-1,0,0,-1
1528876531785503,1,-1,0,0,-1,-2,-1,-1
1528876531785503,-1,-2,-2,-2,-1,-1,-1,0
1528876531787498,-1,0,-1,-1,0,0,0,0
1528876531787498,1,-1,-2,0,-1,1,0,-2
1528876531802459,-1,1,-1,1,0,1,-1,-1
1528876531802459,-1,1,0,-1,0,0,-1,0
1528876531812431,-1,-2,-1,0,0,-2,1,-1
1528876531812431,0,-1,-2,0,0,0,-1,-1
1528876531819414,0,-1,-1,-1,-2,-2,-1,0
1528876531819414,1,0,0,0,0,-1,-1,0
1528876531832380,-1,1,-2,-2,-1,0,-1,1
1528876531832380,-2,1,-1,-1,1,-1,-1,-1
1528876531843349,-1,-1,1,-1,-2,-2,-2,0
1528876531843349,0,-2,1,0,-2,-1,0,-1
1528876531881248,-1,-1,-1,-1,1,0,-2,-2
1528876531881248,1,0,-3,-1,1,0,0,0
1528876531883244,-1,1,0,-1,-1,-1,-2,0
1528876531883244,-2,-2,0,-1,-3,0,-1,-1
1528876531887233,-1,-1,0,-1,-2,-1,0,-2
1528876531887233,-1,0,0,0,0,-1,0,0
1528876531888231,-1,-1,-1,1,1,-1,-3,-2
1528876531888231,1,-2,-2,-1,0,-1,0,-1
1528876531892219,-1,-2,0,1,-1,0,0,0
1528876531892219,-1,0,-1,-2,-2,0,0,0
1528876531901196,-1,1,-1,0,0,1,0,-1
1528876531901196,-2,-1,0,0,1,-3,1,0
1528876531907181,-1,1,0,-1,-1,0,0,-1
1528876531907181,0,-2,1,1,-1,0,-1,-1
1528876531922139,-1,-1,-1,-2,0,-2,0,0
1528876531922139,-1,0,-1,-1,-1,-1,-1,-1
1528876531930117,-2,0,0,-3,-1,-1,0,0
1528876531930117,-2,-1,0,-1,-1,-2,-1,0
1528876531940090,-1,-1,-1,0,-3,-1,0,-1
1528876531940090,-1,-1,0,0,-1,-1,0,0
1528876531952059,1,-1,-1,-1,-1,-1,0,1
1528876531952059,0,-1,0,0,-1,-1,-1,0
1528876531961035,-1,-2,0,0,0,0,0,-1
1528876531961035,0,0,-1,-2,-2,-1,-1,-2
1528876531967020,1,-2,0,-2,-1,-2,-3,0
1528876531967020,-2,-1,-1,-1,0,0,1,-1
1528876531981978,0,0,-2,-2,-2,0,-1,0
1528876531981978,0,-1,0,0,0,1,-2,-1
1528876531989956,0,0,-1,2,0,1,-1,0
1528876531989956,1,0,-1,0,0,-1,-2,0
1528876531999930,1,-2,-1,-1,0,-1,-1,1
1528876531999930,0,1,0,-1,1,1,0,1
1528876532012900,0,-1,-3,0,-1,0,-3,0
1528876532012900,0,0,-1,-1,0,0,0,-1
1528876532021873,-1,-2,-1,0,0,1,-1,-1
1528876532021873,0,-2,0,-1,-1,-2,1,-2
1528876532027857,1,-1,-2,1,1,-1,1,-1
1528876532027857,0,0,1,0,-2,-2,1,-1
1528876532042817,-1,-1,1,0,-1,-2,1,0
1528876532042817,-1,-1,-1,-2,0,0,0,1
1528876532049805,-3,0,-2,1,0,-1,0,-1
1528876532049805,-1,-1,0,0,1,0,-2,-2
1528876532064759,-1,0,-2,-1,-2,-1,0,-1
1528876532064759,0,0,0,-2,-2,-2,-3,-1
1528876532072738,-2,-1,1,-2,-1,-1,1,1
1528876532072738,0,0,-1,1,-1,-1,-2,-1
1528876532081721,-1,-1,0,-1,1,0,0,0
1528876532081721,-1,-2,-1,1,0,0,-1,-1
1528876532087696,0,-2,0,0,-1,-1,0,-1
1528876532087696,0,0,0,-1,-1,0,-2,0
1528876532102656,0,0,-2,1,0,0,1,-2
1528876532102656,-1,-1,-3,-1,-1,0,0,-1
1528876532109639,0,0,0,-3,0,-1,-1,-1
1528876532109639,-1,-1,0,-1,-1,-1,0,-2
1528876532124598,1,-1,0,-1,-1,-1,-1,-1
1528876532124598,-1,1,-1,-1,-1,0,-2,1
1528876532132577,-1,0,1,-1,1,0,0,-2
1528876532132577,0,-1,-2,-2,-1,0,0,-1
1528876532141554,-1,0,1,-1,1,1,0,0
1528876532141554,-1,-2,0,-1,0,-3,-2,-1
1528876532147537,-1,0,-1,-1,-2,-1,-2,0
1528876532147537,-1,-1,-1,-1,-1,-1,-1,1
1528876532162497,0,0,-2,-1,-2,-2,0,1
1528876532162497,0,-1,-2,-1,-1,0,0,0
1528876532170484,-2,-2,-2,0,0,0,-1,0
1528876532170484,-1,-1,0,-2,-1,-1,1,-1
1528876532185434,0,-2,0,0,-1,0,-2,-1
1528876532185434,-1,-1,-2,-2,-1,-2,-1,-1
1528876532192418,-1,-3,-2,1,-2,0,0,-2
1528876532192418,-1,0,-3,0,-1,1,2,-1
1528876532201393,-1,-1,-1,-1,-2,-1,-2,0
1528876532201393,0,0,1,3,-1,-2,-1,-1
1528876532207377,-1,1,0,-1,0,-1,-1,-1
1528876532207377,-1,-1,0,1,0,-1,-2,0
1528876532222337,-1,-1,-1,0,0,0,0,-3
1528876532222337,0,-1,0,-1,0,0,0,-1
1528876532230316,-1,-1,0,-1,-1,1,-1,1
1528876532230316,-1,-2,0,-1,-1,-1,0,-1
1528876532245275,-1,0,-1,0,0,-1,-1,-1
1528876532245275,-1,0,-1,-1,0,0,-1,2
1528876532252257,0,1,-1,0,0,-2,1,0
1528876532252257,-1,0,-2,-2,-1,-1,1,1
1528876532261250,0,-2,-3,-1,0,0,0,0
1528876532261250,2,-1,-1,1,0,-1,-1,-1
1528876532267218,0,-2,-1,0,0,0,-1,0
1528876532267218,0,0,1,-2,-1,-1,-1,0
1528876532282177,-1,-1,0,0,-1,0,0,0
1528876532282177,-1,1,0,-1,-1,0,1,-1
1528876532290156,-2,-2,-1,1,0,1,-1,-1
1528876532290156,0,-1,-1,2,-3,-1,-1,0
1528876532305115,-1,-1,-1,-2,0,-1,-1,0
1528876532305115,0,-1,0,0,-2,0,-1,-1
1528876532312097,0,0,-1,0,0,0,-1,-1
1528876532312097,-2,-1,0,-1,0,0,-1,0
1528876532321073,0,1,-1,0,0,0,1,-1
1528876532321073,0,0,0,0,-1,-2,1,0
1528876532327056,1,-1,0,0,-1,-2,-1,0
1528876532327056,-1,-1,-2,-1,1,-1,0,-1
1528876532342017,1,-2,0,-1,-1,-1,0,0
1528876532342017,-3,1,-1,-1,0,1,1,-1
1528876532349994,0,-1,0,-1,0,0,-1,-1
1528876532349994,1,2,2,-1,-1,0,0,-1
1528876532364957,-1,0,-1,-1,-2,1,-1,-1
1528876532364957,-2,-1,-3,-1,-1,0,1,-1
1528876532371937,-2,0,0,0,-2,-2,1,-1
1528876532371937,0,0,0,-1,-1,-1,-2,0
1528876532380913,-2,0,-2,-2,0,-1,-2,0
1528876532380913,-1,0,-1,-1,-1,1,-1,-1
1528876532395872,0,1,0,0,0,-1,-1,-2
1528876532395872,0,0,0,0,1,-1,1,-2
1528876532402855,-1,-1,0,-1,1,-1,0,-1
1528876532402855,1,-1,-1,0,1,-1,-1,0
1528876532409836,0,1,0,-2,-1,-1,-2,0
1528876532409836,3,-1,-2,-1,-1,-1,0,0
1528876532424847,-1,1,-1,1,-1,-2,-2,-1
1528876532424847,-1,-1,-1,1,0,-2,0,0
1528876532432831,0,0,0,0,0,0,1,-1
1528876532432831,-2,-1,-1,0,-1,-2,-2,-1
1528876532441751,0,-2,0,-1,-1,-3,0,0
1528876532441751,0,-1,0,-2,0,-1,0,1
1528876532455765,-1,-1,-1,-1,-2,0,-2,1
1528876532455765,-1,-1,0,0,-1,0,0,0
1528876532462892,-1,0,0,0,-1,0,-1,-1
1528876532462892,-1,-1,1,-1,-1,-1,-1,-4
1528876532469866,-1,0,0,-1,-1,0,2,1
1528876532469866,-1,0,0,1,0,0,-1,0
1528876532484987,0,1,-2,-2,-1,-1,2,-1
1528876532484987,-2,-2,0,-1,1,0,-2,-1
1528876532492996,-2,0,-1,-1,-1,0,-1,-1
1528876532492996,-2,0,-2,0,1,-1,-1,-1
1528876532501986,1,0,-1,1,-1,-1,0,-2
1528876532501986,0,1,-1,0,-1,1,-1,0
1528876532516083,0,-3,-2,-2,-2,-2,-1,-1
1528876532516083,-1,-1,-2,-1,0,-2,0,1
1528876532522082,0,-1,-1,-1,0,0,0,0
1528876532522082,1,-2,1,0,0,0,0,0
1528876532530028,-2,-2,-2,0,0,1,-1,-2
1528876532530028,-1,0,-2,-1,-1,-2,-1,-1
1528876532545006,-2,-3,-1,-1,-1,-3,0,0
1528876532545006,0,-1,-1,0,0,1,-1,0
1528876532551947,0,1,-1,1,0,0,2,-1
1528876532551947,-1,0,-2,0,0,-1,-1,-1
1528876532561934,0,-1,-2,-2,-1,0,-1,-1
1528876532561934,-1,-1,-1,0,-2,-1,1,-2
1528876532575901,1,0,0,-2,-1,0,0,-1
1528876532575901,-2,1,-1,-1,1,1,0,-1
1528876532582903,1,0,2,0,1,0,-1,1
1528876532582903,0,-1,-1,-1,-1,-1,2,-1
1528876532589886,-1,-1,1,0,0,-1,0,0
1528876532589886,0,-1,-1,-1,-1,1,1,-2
1528876532604859,-1,0,-3,0,0,-1,-1,0
1528876532604859,-3,-1,-1,0,-1,-2,1,0
1528876532612927,-1,-1,-1,0,0,-1,1,-1
1528876532612927,1,-2,0,0,0,1,-2,-2
1528876532621761,-2,-3,-1,-1,0,-1,-1,-2
1528876532621761,1,0,-1,-1,-1,0,-1,-1
1528876532635722,1,0,0,0,-1,-1,0,0
1528876532635722,0,-1,1,-1,-2,0,0,0
1528876532642704,-1,-2,0,0,1,0,1,0
1528876532642704,0,-1,-1,0,-1,0,-2,0
1528876532649685,-2,0,-1,-2,0,1,-1,1
1528876532649685,-1,-1,0,-1,-4,-3,-3,-2
1528876532664801,0,0,2,0,0,0,0,-2
1528876532664801,1,-1,-1,-5,-2,-2,-2,0
1528876532671958,-3,-10,-22,1,-1,-2,-1,-2
1528876532671958,2,11,38,3,-2,-4,-3,-1
1528876532681142,1,5,5,4,-1,0,-1,1
1528876532681142,-4,-4,-2,-5,0,2,-2,-3
1528876532696158,1,0,-12,-2,-1,-1,1,0
1528876532696158,2,1,23,11,-1,-1,-1,-1
1528876532702138,-3,-4,-10,-7,-3,-2,-1,-2
1528876532702138,3,2,-6,-3,3,3,1,2
1528876532710066,-1,-5,-6,-7,-1,-1,-1,1
1528876532710066,-4,-4,-16,-9,-5,0,0,0
1528876532725425,-1,0,-3,10,4,0,-1,-1
1528876532725425,2,3,27,6,5,1,0,1
1528876532732544,-1,1,3,-4,-5,0,0,-3
1528876532732544,-2,-9,-32,-3,4,5,1,-1
1528876532741581,-1,-9,4,-3,-5,-3,-1,-1
1528876532741581,-2,19,9,5,-5,-1,1,2
1528876532755706,2,-1,7,4,4,0,-1,-1
1528876532755706,0,2,-5,-5,-6,-2,1,-1
1528876532762541,4,10,17,10,5,3,0,2
1528876532762541,-1,-12,-12,-1,-2,-3,0,-1
1528876532769508,-6,-15,-1,0,-2,-2,-2,-3
1528876532769508,-3,-7,-16,-5,2,0,0,0
1528876532784468,2,-2,-5,-4,-1,-1,-1,-1
1528876532784468,-2,14,10,6,0,-3,-1,1
1528876532792501,4,16,17,4,3,4,0,-5
1528876532792501,-1,-12,-12,-8,-1,-4,-1,7
1528876532801421,-2,-7,-9,-5,-4,-1,-1,5
1528876532801421,-8,-5,-8,1,-1,1,-2,-20
1528876532815540,-1,-8,-4,3,2,1,0,-3
1528876532815540,1,14,11,-3,2,12,1,18
1528876532824360,2,9,4,1,-1,-7,1,1
1528876532824360,0,-12,-7,-5,0,-5,-1,5
1528876532830351,-9,-1,0,-1,-2,-1,-4,-7
1528876532830351,-8,-15,-10,2,0,-3,-2,-8
1528876532845303,0,-2,3,-3,-4,6,-2,-2
1528876532845303,8,1,-10,-4,3,7,10,4
1528876532852286,-11,12,13,3,2,-1,-2,1
1528876532852286,13,7,5,1,-1,-3,0,6
1528876532867382,7,-3,-5,-4,-1,-4,-3,-2
1528876532867382,-17,-14,-14,-6,-6,-7,-4,-4
1528876532875369,19,7,12,0,-5,0,-1,1
1528876532875369,-74,-8,2,0,-3,-4,-6,-26
1528876532890199,47,-5,-12,-6,-3,-1,15,26
1528876532890199,21,-1,-1,-1,1,4,-10,-4
1528876532891190,-4,-1,-12,-8,0,5,4,10
1528876532891190,11,-1,-2,2,-2,-3,0,9
1528876532905345,-35,-12,1,2,-3,-8,-16,-24
1528876532905345,-21,18,4,0,-1,3,4,1
1528876532912293,-10,1,1,6,9,12,6,-7
1528876532912293,53,1,-11,-5,-9,-25,-24,12
1528876532927253,-6,4,8,-3,-2,0,5,-7
1528876532927253,-22,-14,-2,0,1,-3,-2,0
1528876532935231,2,-6,-5,-5,-7,-6,-10,-10
1528876532935231,-6,3,4,6,7,7,13,-3
1528876532950191,-5,1,-10,-8,-3,-2,-8,-3
1528876532950191,11,6,11,4,-2,-12,-5,1
1528876532951203,-7,-6,-13,0,-3,-5,1,1
1528876532951203,6,1,8,3,5,15,10,9
1528876532965151,0,-1,-1,3,-1,2,-2,-2
1528876532965151,-18,-3,-1,-2,3,5,1,5
1528876532972132,12,-4,-9,0,-5,-17,-11,-3
1528876532972132,22,6,-4,-2,0,-6,-3,-18
1528876532987128,-7,2,-5,1,3,14,7,14
1528876532987128,13,15,20,9,0,-4,2,4
1528876532995070,3,-6,-4,-9,-8,-8,-3,1
1528876532995070,-46,-4,7,4,6,13,4,3
1528876533010065,36,6,-3,4,10,0,7,2
1528876533010065,-8,-9,-3,-3,-7,-4,-13,21
1528876533011058,15,7,4,1,3,-3,-2,-23
1528876533011058,-7,9,9,-2,0,4,2,1
1528876533025044,-9,-1,-7,-6,-17,-5,-5,-17
1528876533025044,9,-8,-6,4,13,5,2,0
1528876533032026,-14,3,3,-1,4,5,10,9
1528876533032026,5,-5,-8,-1,-4,3,-2,-18
1528876533046986,-8,-4,-8,11,7,-4,-9,6
1528876533046986,9,0,-10,-24,-10,5,5,11
1528876533055962,3,6,20,7,-3,0,3,10
1528876533055962,-4,-10,-12,-5,1,0,-4,-13
1528876533070920,2,9,6,5,0,-2,-2,-2
1528876533070920,-13,1,11,3,-10,-4,9,-17
1528876533070920,9,-5,-7,9,9,3,1,15
1528876533070920,2,3,5,-9,-3,2,5,3
1528876533084885,-19,-7,-6,-8,-12,-6,-6,-9
1528876533084885,8,-2,-14,-1,0,-4,0,2
1528876533092845,-25,0,13,5,4,0,-10,5
1528876533092845,17,-3,-3,3,12,4,7,-11
1528876533107823,2,2,6,4,6,-10,-7,-3
1528876533107823,-13,-1,1,1,14,12,10,17
1528876533115802,31,5,1,-8,-23,-6,-2,-8
1528876533115802,-9,0,-6,-8,-21,-16,8,14
1528876533130767,-6,-4,6,-3,17,12,6,2
1528876533130767,3,3,8,8,-9,-7,4,-16
1528876533131762,-34,-8,-7,2,4,-4,-6,5
1528876533131762,26,12,13,4,5,-2,-7,9
1528876533144725,-1,-5,-19,-12,-4,4,7,0
1528876533144725,-1,-6,24,14,0,-1,-4,-8
1528876533152660,-2,6,-11,-26,1,10,9,-3
1528876533152660,8,6,27,13,3,-3,-3,1
1528876533167662,-6,2,-1,-9,-29,-1,-1,0
1528876533167662,6,0,1,22,39,8,-1,0
1528876533175645,5,-5,-14,2,2,-3,-3,-11
1528876533175645,-16,-8,10,-11,11,-2,-1,10
1528876533190605,4,5,8,12,-7,11,7,8
1528876533190605,-9,-4,-16,-10,-15,-8,-5,-10
1528876533191546,16,5,7,-1,9,-13,-11,-1
1528876533191546,-8,-5,-22,-1,-18,1,-1,-12
1528876533204563,9,1,9,5,9,0,-14,5
1528876533204563,16,3,-8,-8,2,6,18,-4
1528876533212542,-4,-6,-7,0,6,-2,8,6
1528876533212542,-21,-7,-7,2,2,9,-5,-11
1528876533227452,-3,0,7,-5,1,-17,-6,-6
1528876533227452,6,-3,-9,-6,0,2,-6,10
1528876533235460,-24,-6,-6,1,-8,-2,-2,-1
1528876533235460,30,13,13,2,7,1,5,1
1528876533250486,-4,-6,18,11,8,1,0,-7
1528876533250486,-5,-3,-22,-10,-13,-1,0,5
1528876533258504,10,8,12,0,-8,2,5,7
1528876533258504,2,-4,0,4,-5,-7,-6,7
1528876533265466,-14,-1,-17,24,18,3,-1,-12
1528876533265466,-4,-2,8,-21,-7,0,-3,-5
1528876533272488,4,-1,1,-2,4,3,1,2
1528876533272488,-25,0,-11,-1,-18,-2,1,-7
1528876533287610,25,3,0,-12,-31,-5,2,2
1528876533287610,-4,-2,0,16,11,-6,-8,1
1528876533295448,5,1,1,4,1,10,6,1
1528876533295448,-10,-2,3,5,-11,-15,-7,0
1528876533310495,-15,-5,-11,-19,6,-1,2,-7
1528876533310495,-8,-9,2,0,-15,1,-5,-8
1528876533318523,-5,0,3,5,-2,0,-12,-3
1528876533318523,1,-5,-7,5,13,11,8,0
1528876533325368,-12,-1,1,-10,-9,-6,-5,10
1528876533325368,43,10,-3,-7,-4,-11,-5,3
1528876533332509,-20,0,5,11,5,14,11,-11
1528876533332509,14,2,-4,-1,8,7,0,13
1528876533347313,36,3,0,3,4,-1,6,11
1528876533347313,-13,-1,-5,-7,-10,2,-6,-9
1528876533355429,-25,-7,-2,-3,-32,14,3,-8
1528876533355429,9,2,2,18,61,6,-14,-9
1528876533370410,-21,-1,2,-7,0,3,12,8
1528876533370410,3,4,-3,5,7,-2,6,8
1528876533378230,22,-1,-3,-6,-24,8,1,4
1528876533378230,-7,-5,-6,-10,-6,-9,-6,-7
1528876533385227,-10,-3,-6,3,5,-1,18,-4
1528876533385227,-12,-7,1,-6,-10,-4,-16,-20
1528876533392190,17,4,-2,-7,-4,3,5,11
1528876533392190,-4,-6,-6,-5,-4,-3,-2,6
1528876533407152,-17,-5,-6,2,-7,-16,-9,-11
1528876533407152,-13,-1,-8,-10,-12,3,10,-1
1528876533415129,25,1,-3,-11,1,-6,3,-1
1528876533415129,-17,-1,-5,0,-12,-4,-3,7
1528876533430394,37,-1,-13,-5,7,7,-7,-2
1528876533430394,-14,1,12,4,-1,-2,-1,-1
1528876533438538,-11,-6,-9,-1,10,-18,-18,-5
1528876533438538,0,-2,-7,-4,-7,5,10,2
1528876533445513,-13,2,12,7,2,3,-2,3
1528876533445513,11,-6,-14,-4,-15,-1,1,-1
1528876533452369,-7,0,-6,-1,28,-5,-3,-3
1528876533452369,12,-1,-2,-5,-25,-4,-1,-9
1528876533467636,-12,-7,9,28,39,12,4,2
1528876533467636,3,3,-11,-24,-12,-8,-14,-1
1528876533475471,0,-9,-11,-5,-6,-8,5,8
1528876533475471,-1,1,-1,0,-6,-9,-4,-1
1528876533490488,-8,-3,-5,-10,2,0,-4,-12
1528876533490488,5,8,14,20,6,6,0,-2
1528876533498547,-4,-4,-7,-6,-1,-6,0,5
1528876533498547,3,1,3,0,8,10,1,-2
1528876533513505,-5,-1,-6,-3,-12,-2,-4,-4
1528876533513505,6,7,11,12,18,19,13,12
1528876533514438,0,-2,-2,-9,-19,-26,-10,-7
1528876533514438,-10,-5,0,1,-1,4,2,-8
1528876533527451,2,1,-5,-10,-3,0,2,7
1528876533527451,-3,-3,-7,2,9,2,-4,-3
1528876533536129,1,8,19,11,-7,2,7,-1
1528876533536129,-1,-6,-7,6,3,-14,-3,1
1528876533550233,5,11,16,-6,20,7,0,2
1528876533550233,-9,-9,-4,-7,0,-3,-11,-8
1528876533558073,9,1,1,16,34,28,10,19
1528876533558073,8,0,0,-10,-43,-16,4,3
1528876533573193,-3,-4,-4,-2,-9,-4,-12,-4
1528876533573193,2,-3,-2,-1,-4,-13,2,1
1528876533574030,-2,-3,-6,0,15,5,-1,-4
1528876533574030,-2,0,1,-3,2,13,6,-2
1528876533588036,1,2,14,0,-4,-1,-2,-2
1528876533588036,0,-4,-5,1,11,17,14,3
1528876533596151,-8,0,1,-4,-16,-18,-5,-5
1528876533596151,4,3,-2,-8,-2,-7,-7,-4
1528876533625900,-3,0,-2,2,-10,-1,1,4
1528876533625900,4,-2,-6,-4,-10,0,2,4
1528876533626898,1,1,-6,-5,17,9,-2,2
1528876533626898,0,12,33,15,5,2,0,1
1528876533632881,-1,-2,-2,5,-2,-3,1,1
1528876533632881,-5,-4,0,9,2,-5,-4,-3
1528876533633893,-1,-2,2,-9,-7,11,6,1
1528876533633893,-1,-2,-8,-6,-1,-11,-19,-7
1528876533647984,-3,2,-6,-3,1,7,12,4
1528876533647984,-2,-4,-5,2,-2,-2,-2,0
1528876533656012,-1,6,12,5,-8,-9,-7,-8
1528876533656012,0,-5,-13,-7,1,1,0,-1
1528876533670383,-3,-4,4,1,-7,-10,-4,0
1528876533670383,3,0,-5,-2,1,-3,-4,-2
1528876533678366,-9,-9,-7,-3,-4,1,2,-4
1528876533678366,3,2,-6,-4,1,-4,-3,3
1528876533693540,-2,-1,5,17,-3,-5,-6,-4
1528876533693540,0,-2,-19,-29,-6,-7,-2,-1
1528876533694491,1,0,5,-6,5,-4,-1,0
1528876533694491,-3,-9,-11,6,7,15,12,2
1528876533707844,1,2,1,-6,-14,-6,-10,-4
1528876533707844,1,10,56,42,12,2,-3,-2
1528876533723025,-3,3,-6,-18,-8,-4,-3,-2
1528876533723025,2,-2,9,42,4,-2,-1,-1
1528876533730000,0,2,27,-10,-17,-1,1,-2
1528876533730000,-4,-9,-21,-21,-2,4,1,0
1528876533737979,0,-2,-7,1,-6,4,-3,-2
1528876533737979,6,2,-3,-5,14,-7,-1,2
1528876533752963,-2,-5,-8,8,7,2,-1,-2
1528876533752963,-2,-2,-2,-2,-11,13,3,0
1528876533753961,-2,-2,3,10,-4,-1,-2,-2
1528876533753961,1,1,-6,-14,-3,1,-1,2
1528876533767311,-1,-2,-13,-6,1,1,1,0
1528876533767311,0,2,2,-4,5,-11,-2,1
1528876533776185,-1,1,2,10,3,3,-1,-1
1528876533776185,0,-1,1,-6,-6,1,5,0
1528876533790268,-1,-3,-12,-9,4,-4,14,0
1528876533790268,1,3,-1,4,-2,-1,-7,-3
1528876533798250,1,-2,1,5,0,4,27,0
1528876533798250,-2,-1,-1,-8,-2,-3,-18,-15
1528876533813196,-1,-1,-4,-6,-7,5,4,1
1528876533813196,-1,-1,-5,5,3,-13,-3,-3
1528876533814048,2,2,3,2,2,10,17,9
1528876533814048,-1,0,-2,-10,-5,2,-1,2
1528876533828033,-4,-3,-3,-1,2,4,-2,0
1528876533828033,13,4,2,2,-3,-5,-9,2
1528876533835990,-6,-2,-2,-2,-3,-5,-14,-1
1528876533835990,1,-3,0,-4,-1,6,12,-2
1528876533849952,0,2,-1,1,3,-3,-13,-1
1528876533849952,-11,0,-2,-3,-3,-4,15,1
1528876533858927,7,0,2,2,2,0,-1,4
1528876533858927,17,2,0,-1,-1,-1,3,2
1528876533881037,7,-3,-3,-3,-1,1,-6,1
1528876533881037,6,6,3,-1,2,3,8,1
1528876533883034,-12,0,-2,0,-2,-5,-8,-7
1528876533883034,-6,-7,-1,-4,-3,0,-6,1
1528876533887027,0,4,-1,-1,-1,0,4,3
1528876533887027,-2,-2,-2,0,0,-1,-2,0
1528876533896140,-5,-1,1,1,-1,-6,-10,-2
1528876533896140,2,7,3,0,0,2,-2,3
1528876533909962,-9,-15,-11,-5,-1,0,3,-3
1528876533909962,-12,-5,-6,-3,-3,-3,-6,-5
1528876533918938,10,0,6,-1,0,-2,-1,2
1528876533918938,-2,10,-2,-1,-1,1,2,0
1528876533932902,2,19,20,7,2,2,0,1
1528876533932902,-3,-8,0,1,1,1,-2,2
1528876533941027,7,-2,-1,0,1,-2,-7,-1
1528876533941027,-17,-10,-7,-3,-2,0,3,-1
1528876533947005,20,-1,-8,-3,0,-4,-2,6
1528876533947005,-3,0,3,-2,-1,0,-2,-1
1528876533956128,0,-4,-5,-1,-1,-3,-1,-1
1528876533956128,-7,-14,-12,-2,1,-1,-1,-1
1528876533969944,-2,4,5,-3,-3,-2,-3,-2
1528876533969944,9,23,14,1,0,1,2,1
1528876533978920,2,-2,-3,0,-2,0,-2,0
1528876533978920,0,1,5,2,3,3,2,0
1528876533992886,-12,-14,-5,2,-2,-1,-1,-4
1528876533992886,-2,-15,-16,-5,0,1,-1,-1
1528876534001967,-9,7,-5,-1,-2,-2,-4,-6
1528876534001967,17,4,10,-2,1,2,2,3
1528876534007882,0,-3,2,3,1,0,-1,-1
1528876534007882,6,21,24,4,2,0,0,2
1528876534022940,-1,-5,-7,0,-2,-2,-1,-1
1528876534022940,-3,6,1,1,-1,-1,0,-2
1528876534029824,-4,-3,-5,-4,-1,-2,-2,-2
1528876534029824,-1,-16,-12,-5,-3,-3,-3,-1
1528876534038858,-5,4,2,2,0,-3,-3,-3
1528876534038858,-4,-16,-15,-4,-4,-2,-2,-2
1528876534053000,0,19,18,4,0,0,-3,1
1528876534053000,4,1,-13,0,-3,-1,0,0
1528876534061000,-2,-7,9,-2,-2,-2,-1,-2
1528876534061000,-7,8,-3,-2,-1,0,0,-3
1528876534067957,1,-4,-11,-6,1,4,1,1
1528876534067957,-5,-7,0,-3,-2,-1,-2,-2
1528876534083912,3,-10,4,5,0,0,-1,1
1528876534083912,4,14,22,5,0,0,0,0
1528876534090053,0,1,-4,-3,-1,0,0,-1
1528876534090053,-6,3,-1,0,-1,0,0,-3
1528876534098902,-2,-21,-29,-8,-1,-1,-1,-2
1528876534098902,-8,-12,3,-1,-2,-3,-2,-1
1528876534112867,2,27,20,0,-2,-1,-3,-4
1528876534112867,2,-13,-13,0,-1,4,1,3
1528876534121840,7,20,28,2,1,-1,0,2
1528876534121840,-4,-14,-21,-6,-1,-3,0,0
1528876534127827,-6,-14,-6,9,-6,1,-1,-4
1528876534127827,1,1,-13,-14,21,-2,0,-2
1528876534136800,-5,-18,-22,8,-1,-5,-2,-2
1528876534136800,8,32,48,-8,-14,-2,2,3
1528876534149765,5,13,-2,3,21,9,5,1
1528876534149765,0,-4,-1,1,0,0,1,1
1528876534158746,0,-6,-9,-8,3,-2,-1,-1
1528876534158746,-4,-27,-39,-1,-21,-4,-2,-2
1528876534172706,-6,-9,2,-6,3,-5,-3,-4
1528876534172706,2,35,30,6,-7,3,0,1
1528876534181830,3,4,-3,-3,15,0,1,1
1528876534181830,3,2,4,8,7,3,0,1
1528876534187820,-1,-13,-12,-7,-16,-5,0,-1
1528876534187820,-2,-15,-11,1,0,1,-2,-1
1528876534196640,-3,10,11,-1,-11,-1,0,1
1528876534196640,-2,1,-6,-2,9,1,-1,0
1528876534209605,-3,-9,-12,-2,2,-1,0,-1
1528876534209605,-1,-4,2,-1,-7,-5,0,0
1528876534218581,5,11,6,0,-1,2,1,5
1528876534218581,-3,-2,-5,-2,5,-2,-2,-4
1528876534232546,-4,-10,-2,-3,1,0,0,-1
1528876534232546,-4,-4,-2,0,-7,-2,-3,0
1528876534241521,-3,-4,-1,-2,-2,0,0,-4
1528876534241521,8,17,7,5,6,1,1,4
1528876534256480,3,-3,-1,3,-6,-3,-2,0
1528876534256480,-2,-2,-3,-1,1,-3,0,-5
1528876534258476,-1,-3,-4,-2,-1,0,-1,-1
1528876534258476,-4,-3,-1,-3,-1,-1,-1,-2
1528876534269446,0,-1,-1,-2,-4,-1,0,1
1528876534269446,1,-8,-5,1,-2,-6,-1,1
1528876534278421,-3,1,0,-3,-1,4,-2,-2
1528876534278421,-2,-1,0,1,1,-1,1,1
1528876534292384,1,0,-3,-3,-1,-2,1,1
1528876534292384,1,-4,-1,-1,-2,1,0,1
1528876534301423,1,5,3,-2,-4,-2,-2,-2
1528876534301423,-3,-4,-3,-3,0,0,-1,1
1528876534307406,-1,-3,-4,-2,1,-3,10,-3
1528876534307406,-5,0,-1,-2,0,-9,-20,-6
1528876534316235,-6,4,3,-1,1,3,5,-2
1528876534316235,-6,-5,-3,-2,-3,-2,-5,-20
1528876534330204,22,1,0,0,1,0,-1,22
1528876534330204,-6,1,1,2,0,8,23,-1
1528876534339234,0,-2,-2,1,-2,-14,-3,-1
1528876534339234,-3,0,-3,2,1,-1,-24,-6
1528876534352157,-3,3,-1,1,-1,-1,-3,-5
1528876534352157,12,-1,-1,2,0,-3,-4,-1
1528876534361219,-1,3,0,0,1,6,1,-3
1528876534361219,1,-3,0,2,3,6,12,6
1528876534367262,-3,-2,-3,-5,-5,-3,-5,-7
1528876534367262,1,-3,0,1,2,3,-1,5
1528876534376173,-1,-1,0,1,-1,2,2,-5
1528876534376173,3,-1,1,0,-1,-4,0,1
1528876534390041,-4,0,-1,1,0,3,-1,0
1528876534390041,-4,-2,-1,1,-1,0,1,-3
1528876534398606,3,0,0,0,-1,-1,-4,1
1528876534398606,-3,-3,-2,-1,0,1,5,4
1528876534412919,-3,-3,-1,0,-2,0,-3,-3
1528876534412919,-1,-1,-1,-3,-2,-4,-2,-5
1528876534421736,2,0,0,0,-2,-2,-2,0
1528876534421736,7,-2,0,-1,0,-1,1,5
1528876534436696,-15,-1,-2,-1,-1,-2,-2,-5
1528876534436696,10,1,1,-2,-3,-1,-2,2
1528876534437692,-2,-1,-2,-2,1,1,7,7
1528876534437692,-2,0,-1,-1,0,-1,-3,-5
1528876534449663,-2,0,0,-1,0,-2,-2,0
1528876534449663,-4,-1,-1,-1,0,-1,-1,1
1528876534458699,0,-1,-1,-1,-1,0,1,2
1528876534458699,0,1,-1,-2,-1,1,2,3
1528876534472799,0,0,-1,-1,0,-1,-2,0
1528876534472799,-3,-1,-1,0,-1,0,0,1
1528876534481997,0,-2,-2,-1,-2,-1,-4,-2
1528876534481997,0,1,-1,-1,-2,-1,1,0
