timestamp,emg1,emg2,emg3,emg4,emg5,emg6,emg7,emg8
1529308069681343,-9,-2,-2,15,11,6,-3,-2
1529308069681343,2,0,-1,-15,-4,-1,-1,-1
1529308069688325,-2,-1,3,36,1,-1,-2,1
1529308069688325,3,1,-1,-45,-13,2,2,2
1529308069696304,-2,-1,5,-6,1,0,0,2
1529308069696304,-2,-2,-11,-9,-3,-3,0,1
1529308069703285,2,0,7,26,9,1,0,-1
1529308069703285,-2,1,3,14,0,-2,2,1
1529308069712259,1,-3,-6,-5,-8,-6,-2,-3
1529308069712259,1,-1,3,-3,4,1,1,-1
1529308069726223,1,0,-8,-27,-19,-3,3,-1
1529308069726223,-2,-1,-2,24,-5,-10,-3,-1
1529308069734219,2,1,1,-9,17,6,2,0
1529308069734219,-2,-2,-2,-9,3,-1,-3,-1
1529308069749162,-2,0,-1,-12,10,0,-1,-1
1529308069749162,-1,-4,-11,-24,-7,1,0,-2
1529308069758143,-1,0,7,43,-8,-9,-4,-3
1529308069758143,-3,0,5,12,3,2,4,0
1529308069771142,-2,-2,-2,-15,-2,2,-3,-1
1529308069771142,-2,-2,-1,18,10,2,-5,-2
1529308069779081,0,-1,-8,-8,3,-3,0,-1
1529308069779081,0,-3,1,9,-11,-5,-2,-1
1529308069795038,-2,-3,7,-38,-11,-2,0,-1
1529308069795038,-1,0,10,80,11,4,-2,-4
1529308069801024,-1,2,6,-17,-6,1,4,3
1529308069801024,0,-1,-3,28,2,-1,-2,-3
1529308069815983,-1,-2,-8,-24,1,-2,-7,-3
1529308069815983,-3,-5,-8,-35,-13,-7,-3,-2
1529308069823960,1,-2,0,18,-12,1,0,-1
1529308069823960,0,0,4,13,1,-6,2,0
1529308069830941,-2,-2,-9,-10,7,1,-1,-1
1529308069830941,2,3,6,56,32,11,2,0
1529308069838923,2,5,17,26,-16,-9,-2,-1
1529308069838923,-1,0,-9,-81,-16,-3,0,3
1529308069856873,-2,-3,-16,-1,2,-6,-5,-2
1529308069856873,2,7,15,-43,-11,-2,1,2
1529308069860864,-3,-5,-13,3,-23,-12,-5,-2
1529308069860864,-1,-2,-2,-28,-9,-7,-6,-3
1529308069875841,-1,1,7,51,40,31,10,1
1529308069875841,0,-5,-21,2,7,-8,1,-1
1529308069883800,3,3,-11,-24,6,10,-5,1
1529308069883800,4,1,5,20,-14,2,2,2
1529308069894771,-1,-3,-4,-33,-23,-11,-5,-3
1529308069894771,-1,-1,4,-13,-21,-7,-1,0
1529308069898760,-4,-1,-6,-18,28,-14,-8,-4
1529308069898760,-4,-12,-11,20,-2,3,-3,-3
1529308069913732,0,-10,17,15,-9,-6,8,2
1529308069913732,-1,-11,-13,-66,-20,-11,-13,-3
1529308069921701,2,1,8,16,-9,-5,1,1
1529308069921701,-1,5,10,23,10,6,0,-1
1529308069937657,-2,10,6,45,27,9,2,-2
1529308069937657,-3,-8,-32,-74,-41,-15,-2,-2
1529308069943641,-3,-1,30,26,2,1,-2,-3
1529308069943641,-1,3,2,37,34,-14,-9,-3
1529308069966580,2,-12,-12,-34,-40,10,10,3
1529308069966580,-2,-1,2,-51,-9,13,4,0
1529308069973561,-1,10,19,42,8,6,2,-1
1529308069973561,-5,6,-9,34,10,-32,-5,-4
1529308069981577,-2,-1,6,-25,3,8,-12,-1
1529308069981577,-1,-20,-23,-40,-36,-28,-2,-3
1529308069996500,-3,13,16,-55,23,-2,-11,-3
1529308069996500,-2,5,14,56,7,-8,-11,-3
1529308070003490,-2,-13,-10,32,-15,-14,-10,1
1529308070003490,-1,-11,-4,0,-7,-18,-3,0
1529308070011459,-1,-15,-8,23,11,33,12,0
1529308070011459,1,-1,-2,-36,-10,1,1,-2
1529308070018440,-4,-3,-7,16,-6,-30,0,-2
1529308070018440,-2,-2,-25,-101,8,28,-4,1
1529308070033402,2,5,15,-3,-6,-9,-6,-1
1529308070033402,0,-2,2,73,16,4,10,0
1529308070041381,1,-6,1,7,-9,15,1,0
1529308070041381,1,-4,1,-59,16,-5,1,0
1529308070056340,-4,-5,-2,10,-12,-15,-3,-4
1529308070056340,-1,2,-1,-13,-6,-21,0,2
1529308070063321,1,0,-6,11,12,25,3,1
1529308070063321,1,10,33,7,1,6,-2,-1
1529308070078280,-2,3,-21,14,-2,-6,0,-1
1529308070078280,-2,12,-4,27,7,14,0,-1
1529308070086259,-1,9,-12,20,-5,-17,-7,-3
1529308070086259,0,-9,-8,-1,-13,-6,-12,-2
1529308070101219,-1,1,29,-47,11,1,-1,0
1529308070101219,-6,1,5,95,1,-2,-2,-4
1529308070116179,2,-1,-16,-68,3,-12,-2,0
1529308070116179,-4,-5,1,83,7,-8,-10,-4
1529308070124158,-2,-9,-10,-81,-2,4,1,0
1529308070124158,1,13,16,26,-14,-8,6,1
1529308070139118,-2,-3,-13,-34,-14,1,1,-4
1529308070139118,-4,8,11,32,15,-1,-11,-3
1529308070146101,1,-10,-13,-26,-9,7,-2,-1
1529308070146101,-3,-14,19,42,-7,-13,-6,-4
1529308070169037,-6,-1,-34,-27,-13,-9,3,-5
1529308070169037,2,13,-7,38,15,8,0,0
1529308070183999,1,10,68,51,-2,-7,-12,-3
1529308070183999,-3,-5,-2,-17,9,5,10,-2
1529308070190980,0,-7,-2,-50,-6,-4,-34,-6
1529308070190980,-1,-14,6,-54,-6,-10,23,1
1529308070205939,-8,-10,-14,73,-23,-2,-10,-6
1529308070205939,2,4,8,-45,12,6,14,1
1529308070213918,-3,7,1,73,12,-9,-58,-12
1529308070213918,8,5,12,31,11,35,37,19
1529308070220899,4,9,21,73,13,12,6,-4
1529308070220899,1,-6,-14,4,61,21,-22,-3
1529308070235859,-4,-10,-9,-48,-21,-10,-25,-8
1529308070235859,5,9,10,-37,41,17,1,4
1529308070243838,-9,-1,-13,-28,-90,-36,-7,0
1529308070243838,2,3,-9,39,0,-6,-11,1
1529308070258799,4,-6,11,83,73,15,-83,-9
1529308070258799,0,-18,-15,-127,-117,-9,73,11
1529308070265779,4,3,6,80,77,9,-2,-2
1529308070265779,-10,-14,-6,-104,-87,-23,71,-6
1529308070280740,-2,3,-29,-39,-12,3,36,7
1529308070280740,-1,27,42,-10,1,-6,-41,-7
1529308070295701,-2,22,10,120,23,11,29,-8
1529308070295701,-2,10,-38,-51,-1,9,-25,4
1529308070311657,0,-8,6,-70,-5,6,11,2
1529308070311657,-1,-18,20,0,37,-1,-52,-10
1529308070318638,-2,-35,-19,0,-15,-1,70,12
1529308070318638,0,-16,36,23,-4,2,-23,-6
1529308070333598,-5,-22,-41,-30,-2,1,9,-1
1529308070333598,1,-7,-11,-24,14,-9,-13,-1
1529308070348561,4,17,14,-60,-1,25,49,10
1529308070348561,-2,7,2,-36,-13,-10,9,-3
1529308070356538,-2,5,-54,-112,7,3,10,1
1529308070356538,5,9,80,73,-18,-13,-26,-4
1529308070371898,-6,-3,-1,-51,-7,0,-65,-10
1529308070371898,7,4,-20,21,6,9,79,19
1529308070378915,-1,-2,-7,-19,-1,-4,-38,-3
1529308070378915,-1,-3,-21,-76,0,8,85,11
1529308070393888,4,-1,33,115,21,12,6,2
1529308070393888,-3,-10,-32,-46,-32,-1,-2,-2
1529308070408801,-4,-5,0,0,-9,-14,-6,-4
1529308070408801,-6,-9,-32,-20,-5,15,-14,-5
1529308070415831,1,3,51,81,39,-2,27,3
1529308070415831,-7,-5,-35,-54,-20,-1,-36,-10
1529308070430989,2,6,-3,-46,-40,-6,22,8
1529308070430989,1,6,6,2,30,-6,-25,-7
1529308070438968,0,-4,-14,36,22,14,2,4
1529308070438968,-4,-1,-4,-5,6,19,8,2
1529308070455855,-3,-8,-9,-27,-21,-20,18,-4
1529308070455855,2,3,-2,34,-37,-23,-22,-2
1529308070468641,4,8,16,83,20,20,37,10
1529308070468641,1,-5,14,34,-20,2,41,6
1529308070476620,3,0,-17,-57,-21,-11,11,0
1529308070476620,4,7,8,22,5,0,0,0
1529308070491581,-2,-5,-5,-6,14,1,-25,-8
1529308070491581,-7,-3,-4,0,-10,-8,-41,-11
1529308070498605,4,3,10,-50,-46,-1,26,10
1529308070498605,2,-1,-8,54,48,-15,13,0
1529308070513525,-1,1,3,-34,1,-7,-4,-3
1529308070513525,-3,-2,6,65,66,42,-4,-3
1529308070528482,-3,-5,1,-21,-65,-2,15,-3
1529308070528482,-2,-6,-12,7,45,-18,-8,-4
1529308070536463,-2,5,5,-48,5,-15,-15,-2
1529308070536463,-3,-2,-12,-20,-39,0,23,-9
1529308070551642,-1,4,11,42,-10,-23,-37,-2
1529308070551642,3,5,-4,-34,-29,-5,-20,-1
1529308070558402,2,2,4,40,63,46,-8,10
1529308070558402,-3,0,1,-12,28,12,37,1
1529308070573538,4,-6,-2,10,-27,-5,31,-5
1529308070573538,3,-1,5,27,-34,-27,-25,-11
1529308070588321,-5,-10,-9,26,51,-8,-33,-3
1529308070588321,5,5,6,-14,47,46,30,6
1529308070596300,-3,0,23,0,1,0,15,-3
1529308070596300,1,8,12,68,-15,4,-20,0
1529308070611825,-5,3,-32,-113,-30,-18,-4,-3
1529308070611825,5,12,37,65,28,1,-16,1
1529308070619129,-1,2,-3,13,18,-9,-3,-5
1529308070619129,-3,-6,-4,-13,-11,13,-17,0
1529308070633199,2,-2,-1,-45,-2,15,19,4
1529308070633199,-7,-6,-4,-47,-39,-12,37,0
1529308070648921,-1,2,2,4,35,0,-36,-5
1529308070648921,-3,-3,-11,-31,-25,-7,-3,2
1529308070656558,-2,-1,3,49,-31,-1,6,-5
1529308070656558,3,5,-3,-85,11,8,-4,4
1529308070671530,-1,2,13,58,7,-6,-27,-5
1529308070671530,-4,-6,-8,34,35,9,10,1
1529308070678782,-2,-1,1,-18,-31,-9,-3,-2
1529308070678782,-1,4,2,-11,18,8,-7,0
1529308070694025,-2,-3,6,36,-38,-7,3,0
1529308070694025,1,-2,-3,-21,17,16,-6,1
1529308070716968,1,-3,-8,-50,-53,6,16,3
1529308070716968,-4,-1,-5,26,31,-17,-12,-3
1529308070723979,1,7,23,83,29,18,9,1
1529308070723979,-1,-3,-22,-39,47,12,-4,0
1529308070739170,1,2,7,18,47,25,8,0
1529308070739170,-4,1,4,-24,-73,-19,-9,-2
1529308070746927,-1,-1,0,-14,17,-11,0,2
1529308070746927,-5,-14,-27,-49,-79,-20,-11,-3
1529308070761933,1,18,-3,-37,6,-6,3,3
1529308070761933,0,9,5,13,-19,3,-6,-5
1529308070776391,-2,27,-9,-65,10,-5,-2,-2
1529308070776391,0,83,-8,3,19,-13,-9,-3
1529308070791087,-4,-79,2,71,44,-4,-4,-4
1529308070791087,-1,-15,-4,-75,-68,-20,-10,-1
1529308070799340,-2,13,6,-18,31,11,6,-1
1529308070799340,1,5,18,8,11,-1,1,-2
1529308070814026,0,-11,6,30,22,20,6,0
1529308070814026,-3,84,-15,-77,-102,-42,-10,-1
1529308070829258,-3,-70,-7,64,5,-7,-10,-6
1529308070829258,-3,-117,-20,-25,22,11,-2,0
1529308070836448,-2,-41,-9,-10,-61,-27,-8,1
1529308070836448,1,8,-3,-32,-26,-17,2,2
1529308070851469,4,-36,17,16,-2,36,20,9
1529308070851469,-5,-8,3,-4,-1,-6,-12,-9
1529308070858455,2,-20,-20,-60,-16,-9,-9,-4
1529308070858455,-5,8,1,77,35,8,5,-1
1529308070873419,-3,29,6,-28,-32,-46,-9,-3
1529308070873419,0,-3,-12,17,-2,29,3,0
1529308070888380,1,60,-4,-1,19,18,13,1
1529308070888380,0,29,-1,-21,-24,-17,-6,-2
1529308070896599,-4,16,-12,-25,2,3,-7,-5
1529308070896599,0,50,0,0,-30,-1,-1,0
1529308070911855,-3,33,2,-7,-2,-11,-5,-1
1529308070911855,0,-36,10,14,41,20,13,3
1529308070918586,-5,-53,-8,9,-19,-5,-5,-6
1529308070918586,-3,-37,-7,-9,10,0,-15,2
1529308070933868,1,-8,1,-22,5,22,9,1
1529308070933868,-4,-23,-4,12,-7,-20,-6,-3
1529308070948744,-10,-5,-16,-83,-53,-14,-19,-10
1529308070948744,2,-16,15,98,43,48,31,21
1529308070956723,-6,24,1,25,-20,-26,-12,-9
1529308070956723,-7,28,-3,-81,-70,2,20,-21
1529308070971442,13,15,0,54,99,11,4,14
1529308070971442,20,0,3,-31,-54,-9,33,-8
1529308070978452,-23,-13,0,9,-70,-2,-35,8
1529308070978452,10,5,4,24,31,11,57,27
1529308070993383,0,6,-5,-102,10,13,-4,4
1529308070993383,-4,-1,4,0,-6,3,-3,-14
1529308071001362,21,-5,2,-25,-67,-34,14,6
1529308071001362,-18,-8,-8,-35,72,28,-20,-31
1529308071016908,8,-4,-4,59,-64,-45,-18,3
1529308071016908,1,2,-3,-83,3,25,28,18
1529308071023629,-15,-2,-10,-57,-32,35,-33,-23
1529308071023629,1,1,-5,31,36,33,45,11
1529308071031958,-5,-1,-1,12,-4,-1,6,-14
1529308071031958,-14,-2,1,-7,-69,-80,-38,-18
1529308071039153,2,3,3,54,119,49,31,23
1529308071039153,5,2,-4,-18,-105,-5,-30,-2
1529308071054345,-2,2,19,14,-25,-22,4,-1
1529308071054345,-10,-6,-6,-45,11,-25,-26,8
1529308071061510,9,3,-7,0,-52,-3,19,2
1529308071061510,-10,-7,-16,-9,-1,-31,-37,-7
1529308071076721,-3,3,-7,-1,28,26,13,3
1529308071076721,-3,0,-8,-12,10,-14,-1,-9
1529308071083699,1,3,-10,22,44,20,8,0
1529308071083699,-1,-4,19,15,-14,-65,-16,-9
1529308071091439,-1,1,0,55,44,11,-11,-1
1529308071091439,6,3,1,100,66,80,22,16
1529308071098670,-5,-1,11,2,11,-57,-2,1
1529308071098670,-5,0,-5,-12,-15,-26,-6,-27
1529308071121604,-3,1,3,31,-51,47,-36,-5
1529308071121604,-10,-8,-2,5,16,-35,-19,-3
1529308071129461,9,-2,-6,-49,-37,60,7,-7
1529308071129461,-8,-9,-9,20,-81,-118,-25,5
1529308071143848,8,-1,-1,-20,73,63,-49,-5
1529308071143848,3,-8,-1,58,-45,2,44,2
1529308071151822,1,1,-7,-16,-14,-5,-11,9
1529308071151822,-16,0,7,-10,-91,-32,-27,-4
1529308071158801,0,5,-8,-73,29,-89,-6,-11
1529308071158801,1,-3,24,53,5,107,17,12
1529308071173551,0,5,7,44,20,15,7,24
1529308071173551,0,-1,-18,-55,-1,-22,-34,-31
1529308071181323,-3,-3,-13,-79,-7,-23,-24,-10
1529308071181323,11,2,13,51,32,49,1,0
1529308071196263,-10,-11,-15,26,-47,-48,15,12
1529308071196263,-3,-5,-8,-90,-34,-106,-37,-2
1529308071203798,-2,5,5,98,27,-66,-12,-20
1529308071203798,-5,-11,13,29,74,115,17,19
1529308071211943,9,-14,-5,-16,18,44,36,-5
1529308071211943,3,6,-4,-32,-55,-63,-29,-7
1529308071219220,-5,0,9,35,31,-50,-1,-12
1529308071219220,2,1,-15,-97,-48,-20,-1,2
1529308071234437,-10,-10,-12,-11,-30,-37,-4,-10
1529308071234437,-3,3,2,-17,-29,-25,-8,2
1529308071241229,3,14,-7,-35,67,74,76,14
1529308071241229,6,19,11,91,26,-54,4,8
1529308071256896,-9,0,-15,-34,-32,-57,-13,-14
1529308071256896,-1,5,9,20,-26,-35,-24,-1
1529308071263806,-2,5,6,10,4,73,13,9
1529308071263806,8,7,-11,-32,30,49,14,1
1529308071271965,-7,-4,8,18,-51,-25,17,10
1529308071271965,-18,-10,0,37,11,-45,-24,-27
1529308071278949,-4,-4,11,64,38,28,11,-3
1529308071278949,-6,-5,-8,-106,-36,3,-23,-6
1529308071293855,7,7,0,3,-4,-25,2,2
1529308071293855,13,13,21,85,53,106,19,14
1529308071301867,-4,-10,-11,-52,-38,-31,-16,-5
1529308071301867,-1,-2,3,27,-13,-25,-15,11
1529308071315828,-9,2,-3,-22,-1,-25,-13,-25
1529308071315828,0,-2,1,11,18,36,12,8
1529308071330756,-14,-12,-8,-26,-32,-80,-10,4
1529308071330756,14,5,15,54,-1,-44,-11,0
1529308071345715,6,3,9,-7,49,116,29,14
1529308071345715,1,-2,-5,-23,26,24,4,-6
1529308071353694,0,-7,1,38,-16,-12,-15,1
1529308071353694,-5,-5,-2,48,-1,-92,-14,-4
1529308071368654,-3,-2,4,-4,-11,67,8,-7
1529308071368654,-4,-9,-21,-29,-36,-16,-4,2
1529308071376633,-2,0,-11,-29,-9,26,-13,-5
1529308071376633,5,-1,10,-3,13,3,-9,-2
1529308071383615,6,9,-6,1,-60,-78,-7,6
1529308071383615,-14,-5,-7,27,51,-25,17,-3
1529308071391595,5,7,0,-79,-48,20,18,5
1529308071391595,-4,0,0,-28,-10,25,-7,-9
1529308071398576,3,-2,4,-15,18,11,1,5
1529308071398576,3,-6,-4,-30,-25,-19,-10,2
1529308071421566,0,2,10,29,18,-5,-12,1
1529308071421566,3,3,-15,-49,29,45,34,12
1529308071428530,-2,-2,8,43,33,14,4,-19
1529308071428530,-5,-5,-25,-77,5,0,0,-3
1529308071436525,4,0,-2,92,-81,-58,-7,-6
1529308071436525,4,-1,-2,20,30,8,-8,3
1529308071443455,-1,-5,-24,-64,-24,-40,9,9
1529308071443455,-6,-1,3,30,10,40,14,-1
1529308071458440,-7,-2,4,-17,18,22,0,-3
1529308071458440,5,3,-8,-18,2,12,11,3
1529308071473374,-3,-1,-2,-20,4,3,-1,-4
1529308071473374,0,1,1,23,2,-6,-8,-2
1529308071481407,-2,-3,-1,-36,-14,-6,2,0
1529308071481407,9,1,0,26,-8,21,-2,5
1529308071496313,-20,0,3,-34,6,-12,-5,-17
1529308071496313,5,-6,0,-11,-12,-13,-6,-19
1529308071503346,-3,3,2,-13,-2,6,-2,-1
1529308071503346,1,0,-3,3,-4,-2,-8,-2
1529308071511324,4,0,1,-13,-8,-4,4,6
1529308071511324,-6,-4,-8,-65,3,-24,-6,-1
1529308071518257,2,2,25,109,1,41,12,3
1529308071518257,2,-2,8,13,-2,-12,-5,2
1529308071533271,5,1,-6,-33,24,16,10,4
1529308071533271,-10,-2,-3,-19,-12,-1,-8,-3
1529308071541195,4,2,-2,28,2,-8,-11,1
1529308071541195,-5,2,-5,-19,-6,-5,-1,-1
1529308071556207,-1,-2,5,36,11,4,9,-1
1529308071556207,-3,-5,2,-3,3,4,-10,-6
1529308071564131,-5,-5,-5,5,-11,0,6,2
1529308071564131,-4,-1,0,-1,11,1,2,-5
1529308071571165,0,-5,-2,-17,-4,3,3,0
1529308071571165,15,2,3,15,4,6,1,16
1529308071579143,-15,-4,-5,-20,2,3,-4,-12
1529308071579143,-1,4,-4,-15,1,0,-2,-6
1529308071601090,3,3,1,11,-9,-8,-9,-3
1529308071601090,4,-5,1,20,-4,-1,-7,0
1529308071609066,9,16,-3,-8,0,4,-3,9
1529308071609066,-4,-2,-6,-19,2,0,-11,-7
1529308071623972,13,-3,-2,11,15,-4,5,1
1529308071623972,-11,-3,-1,14,-15,-1,5,6
1529308071630998,9,6,0,-54,-17,5,2,-4
1529308071630998,-12,-11,-3,-12,-1,-6,3,-1
1529308071645968,12,1,-1,3,-5,3,-14,11
1529308071645968,-7,-2,-1,14,12,4,1,-9
1529308071653946,0,-5,2,9,-2,-4,1,-2
1529308071653946,-8,-1,-5,-38,-2,2,-3,-2
1529308071660891,1,-5,6,52,5,-4,2,-2
1529308071660891,6,-2,-4,-10,-3,-1,-1,7
1529308071668904,-5,-8,4,29,-2,1,-7,-2
1529308071668904,16,8,-2,-2,-4,-4,-7,-1
1529308071675887,-10,-6,-7,-13,-3,2,18,11
1529308071675887,-2,0,3,10,-8,-3,0,-3
1529308071683866,-4,1,-3,-4,18,9,4,-1
1529308071683866,5,1,0,18,3,1,-6,-1
1529308071691917,0,7,-1,-20,-5,0,1,-5
1529308071691917,-10,1,4,11,1,-5,-2,-6
1529308071699020,4,-12,-7,-30,-16,-11,-7,-2
1529308071699020,-1,-6,-3,12,-13,-3,5,3
1529308071714039,-8,4,-8,-15,7,5,-5,-3
1529308071714039,-2,1,15,28,10,0,0,-2
1529308071721353,0,0,-7,13,4,-2,-8,3
1529308071721353,-3,-2,-1,8,-7,-2,0,-2
1529308071729102,-6,-2,-6,-21,-11,-2,-1,-2
1529308071729102,4,5,3,15,5,4,0,-2
1529308071736081,0,-1,-8,-43,-20,-7,-3,0
1529308071736081,-3,-6,9,48,26,8,3,-2
1529308071751294,-2,-5,-4,-9,-2,-4,-3,-5
1529308071751294,1,-3,-1,-16,-14,-1,2,0
1529308071759020,-3,-4,-2,-4,-2,-4,-6,-2
1529308071759020,0,-9,-3,-1,11,4,5,3
1529308071773295,0,3,4,-5,1,-5,-6,1
1529308071773295,0,-2,1,10,-8,4,1,-1
1529308071781537,-4,-3,-2,-8,9,-2,1,-2
1529308071781537,0,-1,1,-3,-6,-2,1,-1
1529308071789375,-1,2,-2,0,-7,-2,-6,-3
1529308071789375,-6,0,-4,-13,1,-4,-6,-3
1529308071796498,0,-6,1,7,-14,-6,-3,-2
1529308071796498,-1,8,-1,6,25,12,3,-1
1529308071811740,-4,-9,-2,-6,-6,10,0,-2
1529308071811740,-3,3,-3,-2,8,9,2,-1
1529308071818714,2,9,0,3,-1,-5,-4,1
1529308071818714,-3,13,1,0,5,-4,-1,-1
1529308071833550,-3,0,-2,-5,-10,-4,-3,-2
1529308071833550,0,-15,-2,3,-2,0,-2,-2
1529308071841525,-1,-15,-1,-29,8,2,1,0
1529308071841525,-2,-9,-2,18,-16,-11,-4,-2
1529308071851078,0,-6,3,-22,4,2,0,-1
1529308071851078,0,0,-2,20,7,3,-2,-1
1529308071864178,0,5,-2,3,-3,-1,1,-1
1529308071864178,-1,4,-1,-8,-2,-1,-3,-2
1529308071871741,-1,4,-3,-3,-6,-6,-1,0
1529308071871741,-2,8,-6,-18,-2,-3,-1,3
1529308071878328,-2,6,-3,7,2,0,3,-3
1529308071878328,0,-6,-2,-5,-9,-1,4,0
1529308071894259,5,-5,0,12,10,1,-3,-4
1529308071894259,31,6,-2,-16,0,-3,-1,11
1529308071901600,-18,2,4,11,4,5,0,-8
1529308071901600,-14,-3,4,-2,-3,-2,-4,0
1529308071908291,-2,-7,-2,-4,-7,-6,-2,-3
1529308071908291,-10,-10,2,0,2,-3,-5,4
1529308071916500,50,-2,-1,3,-2,4,2,1
1529308071916500,-19,-20,-5,-5,-4,-8,-4,4
1529308071931222,9,-1,4,5,2,6,4,-5
1529308071931222,4,-1,-2,0,2,2,0,-3
1529308071938203,-5,-7,-4,0,-4,-1,-7,1
1529308071938203,9,-2,-2,-5,0,0,-1,6
1529308071954161,-19,-4,-7,-5,-6,-7,-5,-18
1529308071954161,-3,-3,-1,-3,-2,-3,2,-5
1529308071969344,-3,0,1,3,4,1,1,11
1529308071969344,-14,-3,-2,-2,-1,-2,-4,-19
1529308071976502,-6,-1,-2,3,-3,1,0,6
1529308071976502,-2,-1,-4,-7,-2,0,-6,-5
1529308071991106,7,-2,8,3,-6,5,4,6
1529308071991106,-13,-10,-3,6,27,-1,-3,-8
1529308072006263,0,-10,0,0,-5,-3,2,7
1529308072006263,7,16,-3,-6,-4,3,0,5
1529308072014245,8,-3,-1,7,2,5,7,-8
1529308072014245,-17,13,-3,-9,-14,-6,-4,2
1529308072029202,-2,3,5,-2,-1,1,0,-4
1529308072029202,21,94,5,-3,-5,-5,-11,-6
1529308072036190,-18,33,-16,-3,-2,-5,6,14
1529308072036190,-8,-35,-8,4,7,2,1,-16
1529308072051624,2,3,0,2,2,-3,-6,1
1529308072051624,-12,15,3,0,3,9,11,23
1529308072066536,6,3,-4,-1,-5,-2,-3,5
1529308072066536,25,-14,-5,0,3,2,-1,8
1529308072073663,7,16,2,-1,-1,-1,1,-5
1529308072073663,-43,30,-1,-2,-4,-2,-3,-17
1529308072088956,-33,112,4,0,0,-2,-1,-13
1529308072088956,15,46,-3,2,4,0,0,15
1529308072096199,-6,2,0,-5,-2,-6,-5,-20
1529308072096199,10,-54,1,-2,-7,-5,-5,1
1529308072111441,-5,-65,2,-2,1,-5,7,13
1529308072111441,-9,-35,-1,-1,-4,-5,-1,-11
1529308072126471,36,-5,0,-1,-1,0,-4,3
1529308072126471,11,-7,0,0,1,1,4,12
1529308072133496,9,-10,1,-1,-2,-3,-11,-4
1529308072133496,1,10,0,2,-3,5,10,10
1529308072148781,-5,10,-4,-2,-3,-5,-2,-11
1529308072148781,18,8,4,1,-1,-1,-4,-7
1529308072156392,-5,16,0,0,-1,-1,-4,5
1529308072156392,-7,10,-1,-2,-4,-1,-7,-9
1529308072171891,-20,-2,0,1,1,1,0,-8
1529308072171891,39,11,-2,-4,-5,-2,-4,4
1529308072186612,7,-2,0,1,0,1,1,2
1529308072186612,-29,-8,-1,-3,-1,-1,-1,-12
1529308072193833,12,4,1,-3,-3,-3,-4,4
1529308072193833,5,4,-1,-4,-2,-3,-2,3
1529308072208551,-4,8,-1,-2,1,-1,3,6
1529308072208551,-4,0,-1,0,0,-2,-1,-2
1529308072216532,-13,-15,-2,-1,-3,-3,-1,3
1529308072216532,-4,1,-2,-1,-1,-1,-4,-4
1529308072231852,-4,-10,-1,1,-2,1,2,8
1529308072231852,-4,-2,-2,-1,-2,0,-2,-8
1529308072246555,3,7,-1,-2,-3,0,-2,0
1529308072246555,-13,-7,-2,-1,-3,-1,1,-2
1529308072253528,9,2,-1,-1,0,-4,-2,-3
1529308072253528,5,7,1,1,0,-1,-8,3
1529308072268515,-5,0,-3,-2,-3,-4,5,10
1529308072268515,26,13,1,0,1,4,7,-15
1529308072276824,-8,2,-2,1,-1,-1,0,7
1529308072276824,-16,3,0,0,0,-1,4,-12
1529308072291491,1,1,-2,-3,1,-1,-4,-4
1529308072291491,18,5,-1,-3,-3,-1,0,8
1529308072306651,1,3,1,3,4,4,2,-6
1529308072306651,-21,-8,-3,-3,-5,-5,-6,5
1529308072313413,0,29,4,1,-2,-1,-1,-19
1529308072313413,21,-1,0,-2,-1,-1,1,0
1529308072328362,-38,-10,-4,-2,-1,0,-2,-7
1529308072328362,-10,-2,-2,1,0,3,0,9
1529308072336588,-4,-7,-2,-1,0,-2,-3,-14
1529308072336588,0,0,-2,-1,0,-3,0,2
1529308072351330,1,-5,-3,0,-1,0,0,6
1529308072351330,-2,-1,-2,-1,-1,1,0,-2
1529308072366493,8,-1,-4,-2,-1,-3,-3,-4
1529308072366493,-13,-3,0,0,-1,-2,-2,-6
1529308072373564,10,-1,1,-1,0,-1,1,6
1529308072373564,-9,-2,0,-1,-1,-1,-7,-5
1529308072388564,6,-8,-3,-3,-4,-5,-4,-4
1529308072388564,15,15,3,0,-2,1,5,-4
1529308072396749,-3,-5,1,-1,-2,0,-2,0
1529308072396749,8,6,0,-2,-1,0,0,8
1529308072411701,7,-2,-1,-1,-1,1,1,3
1529308072411701,-11,-5,0,-2,1,-1,0,-1
1529308072426661,28,4,1,-1,0,0,0,12
1529308072426661,-31,-1,0,0,-1,-2,0,-13
1529308072433643,-2,-6,-1,1,1,-2,-1,1
1529308072433643,-2,-2,-1,0,-2,-1,0,-1
1529308072448419,0,-2,1,1,0,0,1,1
1529308072448419,15,7,1,-3,-2,0,-3,4
1529308072456795,-3,-1,-3,-1,-1,-2,-2,-9
1529308072456795,-1,1,-1,0,-1,1,3,0
1529308072471664,19,-1,-2,-1,-3,0,1,1
1529308072471664,-6,-2,-1,-2,1,1,-1,-18
1529308072485923,-24,-8,-4,-4,-3,-3,-6,-8
1529308072485923,15,19,2,-2,-1,0,0,7
1529308072494100,-4,-1,0,-2,0,1,0,2
1529308072494100,7,1,-1,2,-1,1,1,3
1529308072509085,8,1,1,-1,0,0,-2,-4
1529308072509085,-30,-23,-6,-2,-2,-3,-1,5
1529308072516960,-3,10,1,-1,-2,-1,-4,-17
1529308072516960,-9,-5,-1,-1,-1,-3,-1,1
