timestamp,emg1,emg2,emg3,emg4,emg5,emg6,emg7,emg8
1529303104424196,5,5,5,-10,-4,-1,2,3
1529303104424196,2,-2,0,9,3,-1,1,0
1529303104424196,2,2,0,0,1,-1,-1,1
1529303104424196,0,0,-5,-2,1,1,-1,-2
1529303104426189,-3,-2,1,2,0,-1,0,-1
1529303104426189,-5,-6,-2,-2,-3,-3,-3,0
1529303104429182,-4,-5,0,0,1,1,1,0
1529303104429182,-1,-7,-6,-13,-2,-2,0,0
1529303104436162,-4,0,-2,9,0,-1,-1,-1
1529303104436162,0,6,7,12,7,0,-2,-3
1529303104448130,2,-3,0,9,5,5,0,0
1529303104448130,1,8,9,6,0,-4,-1,0
1529303104451122,1,2,1,0,-1,-3,-1,-1
1529303104451122,-3,-5,-6,-20,-5,-4,-3,-2
1529303104467080,2,5,-12,-22,-6,-2,0,-2
1529303104467080,-2,-11,3,-2,-1,2,1,-2
1529303104475063,-2,4,-3,6,1,-1,-2,-1
1529303104475063,-4,-8,-1,0,-4,-2,-1,-3
1529303104482041,0,6,11,8,2,0,-1,-2
1529303104482041,8,8,-4,-4,3,2,5,5
1529303104496004,1,1,-3,-2,-3,-2,-4,-5
1529303104496004,-3,5,1,-5,-2,2,1,0
1529303104506974,-9,-5,12,10,1,-3,-2,-8
1529303104506974,-7,-9,-20,5,-3,-1,-3,0
1529303104543875,3,8,17,-8,-1,1,0,1
1529303104543875,-1,5,-1,-4,4,4,1,-1
1529303104544872,-4,-5,2,-3,-5,-4,-1,-2
1529303104544872,0,5,9,7,2,-1,-2,-3
1529303104550883,-6,-16,-15,12,0,-3,-2,-2
1529303104550883,2,3,-6,-11,-5,-3,1,-1
1529303104551853,3,-3,5,30,2,0,-1,1
1529303104551853,-5,4,-13,-53,-6,-1,-3,-2
1529303104555843,3,-1,8,4,-9,-4,0,0
1529303104555843,-1,0,4,10,4,1,0,4
1529303104564819,-3,7,-4,-6,0,1,1,-2
1529303104564819,0,-9,-2,15,-1,-4,1,2
1529303104570803,2,-1,-4,-2,4,2,-3,-5
1529303104570803,0,14,6,-5,-8,-7,-4,0
1529303104586760,0,0,9,8,7,3,-1,-5
1529303104586760,2,-2,4,6,7,3,4,9
1529303104593741,5,5,-7,-10,-2,-1,0,0
1529303104593741,-1,-13,2,6,9,4,2,-3
1529303104602718,-8,-7,-20,-13,-7,-4,-3,-3
1529303104602718,0,-3,-2,14,5,0,-1,-1
1529303104615682,-3,8,12,2,2,2,2,1
1529303104615682,3,19,10,8,5,2,0,-2
1529303104624659,-1,-11,0,-19,-4,1,0,0
1529303104624659,-2,5,-3,1,-3,1,1,-4
1529303104632638,-2,-9,-15,2,2,0,-1,2
1529303104632638,-9,-28,-4,-8,-4,-5,-6,-6
1529303104645603,0,22,10,2,1,-2,-3,0
1529303104645603,12,-1,-4,-5,-15,-7,-3,0
1529303104653582,6,12,8,-2,3,3,1,5
1529303104653582,-11,13,-14,-6,-15,-10,-7,-12
1529303104662558,-3,-41,-11,-7,-6,-4,-1,6
1529303104662558,-16,-55,-54,-1,9,6,5,-6
1529303104675534,10,46,50,6,2,4,6,4
1529303104675534,10,34,20,1,10,10,6,7
1529303104684498,2,28,9,7,-7,-4,-2,-3
1529303104684498,2,-20,8,5,3,-2,-3,0
1529303104690483,-8,-33,-21,-5,-3,-5,-2,-5
1529303104690483,4,-12,-6,3,2,-1,1,9
1529303104705443,-6,6,-1,1,8,2,-1,-3
1529303104705443,-9,-8,-5,-6,-1,3,-2,-3
1529303104713422,-9,-13,-19,-2,-1,-5,-6,-7
1529303104713422,2,-1,-3,-18,-25,-5,-2,-4
1529303104722404,-1,-2,-5,5,-14,4,-2,-4
1529303104722404,8,23,20,4,0,1,2,6
1529303104735362,-10,-8,-11,-2,16,4,0,-4
1529303104735362,-1,-10,-7,-11,-15,-7,0,0
1529303104745336,3,-6,-11,-12,-5,12,7,0
1529303104745336,-9,0,8,12,-12,-6,-5,-9
1529303104751320,5,12,7,0,19,1,2,1
1529303104751320,0,-13,-8,-6,14,2,7,13
1529303104766280,9,-3,0,9,-1,-5,-6,-6
1529303104766280,8,23,13,8,19,6,-3,-3
1529303104773261,-10,-4,-12,-8,-15,8,6,-3
1529303104773261,-16,-9,9,17,4,-16,-5,-14
1529303104782237,9,1,-3,-6,16,-2,5,22
1529303104782237,0,9,-5,-14,-15,-5,-1,2
1529303104796202,0,1,27,7,-1,1,-2,0
1529303104796202,-5,-10,-23,-5,-17,8,-3,-6
1529303104805216,-7,16,20,-5,-5,-1,-5,-10
1529303104805216,-2,-23,-11,1,5,-5,-1,1
1529303104811160,-1,7,-11,-8,-1,-4,-2,1
1529303104811160,-4,-11,7,8,-17,-7,-7,-5
1529303104826122,5,8,-10,-11,13,8,3,3
1529303104826122,10,18,6,-14,-16,4,3,5
1529303104833149,-5,-12,-3,-1,7,-5,-3,-5
1529303104833149,3,-8,-25,8,26,-2,-3,-1
1529303104848061,-8,-1,16,7,-22,-4,-2,1
1529303104848061,2,8,13,3,4,-1,0,-1
1529303104856067,0,-6,-9,7,1,6,0,-6
1529303104856067,8,12,4,2,11,0,5,12
1529303104865016,-3,-15,-15,-5,-3,-7,-3,-6
1529303104865016,-1,12,4,-4,1,-8,-7,-5
1529303104871000,3,-10,-5,8,-9,-5,1,3
1529303104871000,-1,-8,-4,-15,-3,1,-2,2
1529303104885988,6,3,7,8,7,-2,1,2
1529303104885988,1,16,14,12,-2,3,0,-1
1529303104892942,-2,-14,-21,-5,-9,-6,-5,-2
1529303104892942,-3,7,6,-12,-4,6,-2,-1
1529303104907903,-4,-10,1,15,7,-1,-1,-2
1529303104907903,3,2,-17,-25,0,-3,0,2
1529303104915882,-1,-1,3,11,-3,-5,-2,-1
1529303104915882,-6,-12,0,-16,-3,3,2,-3
1529303104924857,-5,-4,-10,12,5,5,0,-1
1529303104924857,9,2,6,6,-8,-7,0,2
1529303104930842,0,6,-3,-15,-7,0,-1,2
1529303104930842,-6,-3,-2,-4,-15,-6,-6,-5
1529303104945840,2,2,2,-6,4,0,-1,-3
1529303104945840,-9,-14,-9,3,5,-4,2,1
1529303104953828,-2,1,0,-5,2,1,-3,1
1529303104953828,-4,5,-5,0,4,1,3,-2
1529303104968738,-6,-5,9,-4,-6,-10,-3,0
1529303104968738,-5,-12,-6,2,0,4,1,-1
1529303104975737,6,12,13,0,2,6,2,4
1529303104975737,10,1,-13,15,7,-17,-3,2
1529303104984697,3,14,8,-21,-14,8,4,1
1529303104984697,-6,-8,-5,-2,-10,3,-3,-2
1529303104990681,-3,-4,-8,-8,-6,1,0,-1
1529303104990681,1,0,3,12,10,3,0,-3
1529303105005680,-7,-11,-18,0,10,6,2,-2
1529303105005680,5,3,7,5,4,0,1,3
1529303105013619,1,4,4,6,2,1,-2,-2
1529303105013619,1,0,6,7,-9,-1,-2,3
1529303105028579,0,-8,-20,-38,-14,-4,0,-1
1529303105028579,-9,-1,1,11,2,-3,-3,-4
1529303105035560,0,-13,-7,3,-2,-5,-3,0
1529303105035560,9,11,9,-4,1,9,3,7
1529303105044537,6,7,9,10,4,-12,-1,-2
1529303105044537,-2,3,1,1,6,2,1,-1
1529303105050521,0,-1,2,-3,-3,-8,-1,0
1529303105050521,-13,-14,-16,-14,-8,4,0,-6
1529303105065482,7,5,24,12,12,9,0,-1
1529303105065482,-3,-2,-8,-8,-2,5,-2,-2
1529303105073459,7,14,17,11,13,4,6,7
1529303105073459,1,2,10,3,-2,4,-1,-1
1529303105088724,-11,-6,-9,0,-2,-4,-1,-3
1529303105088724,-2,-10,-12,-16,-1,6,-2,-4
1529303105096094,2,0,11,5,-9,-6,-4,-1
1529303105096094,-3,-3,1,3,8,9,4,4
1529303105104845,-6,5,0,0,4,-10,0,-2
1529303105104845,8,6,9,12,-11,-3,1,2
1529303105110715,-7,-10,-17,-27,-20,-3,-2,1
1529303105110715,12,-1,4,8,5,-4,1,-2
1529303105125628,-2,1,-1,1,5,2,1,-1
1529303105125628,-5,-3,-4,1,10,2,3,0
1529303105133608,0,4,3,-4,1,-5,0,-1
1529303105133608,-3,-2,-9,-2,0,3,-2,-3
1529303105148889,-3,-9,1,4,-9,0,-3,1
1529303105148889,7,12,21,-4,2,-5,-2,-1
1529303105156646,2,-3,-6,6,-7,-4,-3,0
1529303105156646,-7,6,2,1,0,-1,0,-1
1529303105164868,8,4,2,4,1,3,2,3
1529303105164868,1,-1,-11,1,2,2,0,2
1529303105179486,-4,-7,-10,-7,-1,3,-3,-3
1529303105179486,-2,4,15,10,3,-3,1,0
1529303105185469,-1,0,-18,-26,-8,-2,-2,-1
1529303105185469,-3,4,16,17,3,-1,-4,-3
1529303105193481,-5,-1,-3,11,3,0,0,-3
1529303105193481,3,-3,-4,-29,-27,-12,-2,5
1529303105208408,4,-5,-10,2,4,1,0,-4
1529303105208408,3,5,10,1,5,2,1,4
1529303105216385,-10,-3,-7,-7,-1,3,2,-7
1529303105216385,4,0,4,13,9,7,1,1
1529303105224365,-3,-2,-4,-8,-2,-3,-7,0
1529303105224365,-4,-6,-9,2,2,-14,-4,-6
1529303105239648,-1,-4,-10,-23,-21,-6,11,6
1529303105239648,-2,2,9,-7,-4,-3,-12,-15
1529303105246347,-5,-6,-11,4,0,-3,2,9
1529303105246347,1,0,-1,-1,-2,0,0,1
1529303105253551,4,4,5,4,3,0,-3,0
1529303105253551,0,3,1,-5,7,7,4,0
1529303105268566,-3,-2,7,2,-4,-4,-4,-4
1529303105268566,0,-6,-18,-4,0,-11,-2,-3
1529303105275549,2,5,12,11,6,3,3,4
1529303105275549,6,6,1,5,-5,-7,3,4
1529303105284857,-6,-6,-5,24,13,4,-3,-6
1529303105284857,-2,2,3,-37,-19,-11,-3,3
1529303105299514,-3,-1,29,24,16,6,-5,-5
1529303105299514,5,4,-9,-8,-13,4,2,3
1529303105305467,-2,-10,-25,-6,8,-1,-3,-2
1529303105305467,-9,-2,12,16,1,7,7,-1
1529303105313446,18,0,-12,-12,-1,3,-2,3
1529303105313446,0,0,8,7,8,-18,-3,2
1529303105328693,-9,0,8,8,-7,3,0,-2
1529303105328693,9,-2,-11,-12,1,3,-2,3
1529303105336625,-5,-6,-21,0,3,0,-2,-1
1529303105336625,-3,0,5,1,-2,1,-1,1
1529303105344737,11,10,21,6,-3,3,2,1
1529303105344737,-3,-5,-12,1,5,-1,1,-3
1529303105359752,-2,2,3,2,5,3,-2,1
1529303105359752,5,-15,-23,-5,-1,-7,-8,-9
1529303105365569,-5,-3,-25,-8,1,-9,1,4
1529303105365569,1,11,37,22,3,-1,0,2
1529303105373548,3,1,-4,1,3,3,3,2
1529303105373548,-11,-12,-13,2,6,2,-1,-3
1529303105388784,6,3,-7,-24,0,4,2,-1
1529303105388784,4,10,31,16,-6,-4,0,1
1529303105396576,-9,-13,-35,-13,-5,-12,-4,-3
1529303105396576,4,22,63,24,9,4,1,0
1529303105404740,2,-1,-10,-6,-4,3,2,5
1529303105404740,-8,-9,-14,-5,9,3,0,-2
1529303105419472,17,9,15,-10,-25,-2,-1,6
1529303105419472,-6,-11,-22,-2,-10,-2,-4,0
1529303105425456,3,3,7,2,13,-2,6,5
1529303105425456,-17,-8,-18,-9,-11,2,-11,-14
1529303105433656,-6,1,9,5,-1,-29,-9,-2
1529303105433656,-12,-7,-13,-8,6,17,6,-4
1529303105449102,5,5,11,10,-7,-7,-2,0
1529303105449102,-4,-8,-9,-2,4,3,0,-3
1529303105456400,2,5,1,0,7,8,6,2
1529303105456400,-3,-7,-8,1,-4,-3,-1,0
1529303105465071,-2,6,15,2,2,1,-2,-6
1529303105465071,6,-3,-13,-6,1,-3,6,6
1529303105478636,3,5,6,-15,-2,0,-2,-1
1529303105478636,-6,-2,-1,3,13,2,3,-3
1529303105485620,7,1,5,-7,-5,4,1,3
1529303105485620,4,-3,-9,-2,-12,0,-2,2
1529303105493904,-8,-4,4,15,9,4,-2,-2
1529303105493904,-6,-1,-4,-8,1,-9,-1,-5
1529303105508556,2,0,1,2,-1,-2,0,0
1529303105508556,10,4,-4,-9,-5,0,-2,4
1529303105515538,-7,-8,-5,-4,4,2,-3,-2
1529303105515538,-4,1,3,4,-4,1,-1,-4
1529303105530498,5,2,-4,-4,-6,-6,-7,-5
1529303105530498,1,2,9,6,3,7,11,9
1529303105539476,-2,11,8,-6,-5,2,1,-1
1529303105539476,7,-1,-3,-3,-5,-3,3,5
1529303105554433,-6,-8,-5,-1,-3,-2,-4,-6
1529303105554433,-4,-3,-3,5,6,-1,-4,-2
1529303105554433,3,1,0,2,1,3,4,0
1529303105554433,-3,0,0,0,4,4,-1,1
1529303105568432,4,1,-6,-3,-6,-5,1,0
1529303105568432,-4,2,13,5,6,-5,-3,-6
1529303105576374,-3,-6,-8,-2,-5,0,5,0
1529303105576374,4,2,-1,6,7,-5,-4,0
1529303105590391,-1,-4,-2,-3,-5,-2,-1,4
1529303105590391,-3,5,-2,-4,-1,2,2,-1
1529303105599370,-9,-1,-12,-5,0,2,-4,-5
1529303105599370,7,-3,4,6,-5,-8,0,4
1529303105614331,-4,1,2,-4,4,6,2,1
1529303105614331,-2,-18,-38,-9,-3,-5,-4,-4
1529303105615307,7,18,44,10,-4,-1,1,1
1529303105615307,-5,-6,-12,1,7,10,1,0
1529303105628293,-5,-3,6,15,7,5,2,0
1529303105628293,-1,-1,2,-18,-6,1,-4,-10
1529303105636267,-2,-9,-12,0,5,2,1,2
1529303105636267,0,3,0,-5,-7,0,0,0
1529303105651229,-6,-1,3,4,5,1,2,-2
1529303105651229,13,1,0,2,0,1,1,3
1529303105659154,0,-3,-7,4,2,-8,-4,-2
1529303105659154,-7,-2,2,-11,-5,-1,-1,-3
1529303105674114,1,-1,1,7,3,-11,-4,-4
1529303105674114,-7,1,-4,-1,-5,2,2,2
1529303105675112,-2,-6,-5,-6,1,4,-3,-3
1529303105675112,-1,5,3,4,6,0,0,1
1529303105690071,4,-1,15,11,0,0,2,0
1529303105690071,7,8,12,0,-2,-1,-6,0
1529303105696110,4,-1,-2,-4,-3,-5,1,0
1529303105696110,-6,-4,-8,0,6,-4,-4,0
1529303105712039,1,-3,-9,-6,-10,0,0,1
1529303105712039,-3,3,7,-1,6,-1,1,0
1529303105719050,1,0,8,4,-10,-2,-1,0
1529303105719050,2,2,5,-2,1,3,-1,-1
1529303105734006,2,1,-3,-8,-7,3,-1,1
1529303105734006,-6,-3,-7,2,2,-8,-2,-4
1529303105735007,-2,-8,-9,4,4,3,-2,0
1529303105735007,3,4,-3,-13,-9,1,2,1
1529303105747978,1,4,6,0,0,-3,-1,1
1529303105747978,-3,0,-1,0,-2,4,0,0
1529303105755952,-3,-5,-6,5,5,-2,-1,-1
1529303105755952,-1,-2,2,-6,-8,0,-2,-4
1529303105770907,-11,-10,-21,-8,3,3,-2,-7
1529303105770907,7,6,8,-11,-13,-10,-1,5
1529303105778888,-4,-1,6,8,-4,-3,-3,-5
1529303105778888,1,-3,-6,-3,-2,2,-2,1
1529303105793853,-9,-1,1,0,1,-4,-2,-5
1529303105793853,9,4,0,1,3,5,0,2
1529303105794791,1,-2,-4,-6,-5,-4,4,2
1529303105794791,2,-3,-4,-1,-1,-1,1,1
1529303105808770,0,0,1,-1,1,2,1,-2
1529303105808770,-4,1,10,7,11,4,0,-1
1529303105815787,5,2,0,-2,-1,1,0,1
1529303105815787,-2,-1,-3,-5,-2,-3,1,0
1529303105830697,10,3,-4,-11,-10,-8,0,5
1529303105830697,-6,-7,-5,3,-1,2,0,-3
1529303105838722,-7,1,-4,-5,1,2,-1,-2
1529303105838722,7,7,11,4,7,0,1,2
1529303105853948,5,3,2,14,2,3,3,0
1529303105853948,1,-1,-7,-26,-17,-4,-2,-1
1529303105854945,-3,-4,1,10,0,4,-1,-3
1529303105854945,5,-2,-8,-1,0,0,-1,4
1529303105867953,-8,0,9,10,6,2,-7,-8
1529303105867953,-8,-6,-9,3,3,1,2,-3
1529303105875889,-2,-1,-4,0,-3,1,0,2
1529303105875889,-1,3,2,-2,-7,-7,-2,-2
1529303105891219,1,-5,-10,-5,0,-7,-2,-1
1529303105891219,0,7,32,19,-3,-4,0,2
1529303105899435,-7,-6,-11,-13,-4,-4,-5,-6
1529303105899435,-4,-6,-7,-8,-4,2,0,-2
1529303105914349,0,2,9,8,3,2,-1,-1
1529303105914349,-3,-2,-16,-10,-1,-2,1,-3
1529303105915106,-1,-1,1,4,0,-2,-1,7
1529303105915106,1,0,3,3,4,2,0,1
1529303105928311,-2,0,-2,-3,-5,5,5,-2
1529303105928311,4,-4,-5,5,8,7,2,4
1529303105936311,-12,-2,-7,2,7,-3,-1,-7
1529303105936311,18,8,7,-8,-15,1,-3,5
1529303105951275,-7,-4,-8,1,6,-14,-4,0
1529303105951275,6,2,-6,-6,-3,-2,0,2
1529303105959254,-3,-4,-8,8,10,6,1,-3
1529303105959254,-2,5,30,10,6,-1,0,-2
1529303105974006,2,8,-3,-5,0,5,4,4
1529303105974006,-7,-8,-8,2,-1,-3,-3,-3
1529303105974947,10,6,4,-3,0,3,5,1
1529303105974947,-1,-5,-8,18,3,-3,-3,1
1529303105989124,4,4,8,1,6,-1,-1,3
1529303105989124,-8,-5,-13,-16,-15,-4,-4,-3
1529303105996151,-1,-16,-41,-12,-2,-2,-3,-1
1529303105996151,2,31,77,18,-6,-3,4,2
1529303106011189,0,-1,11,-2,2,5,1,-2
1529303106011189,-7,-6,-11,0,8,0,-1,1
1529303106019155,5,6,19,12,6,-4,-1,0
1529303106019155,-6,-16,-44,-12,-13,-11,-3,-7
1529303106034330,-4,-7,-10,-9,1,5,1,-2
1529303106034330,1,1,10,0,-6,3,1,-1
1529303106035093,1,1,-1,-4,1,-11,0,2
1529303106035093,-2,-5,-19,7,8,8,0,-1
1529303106049089,2,9,13,-13,-3,-3,-2,1
1529303106049089,-2,-4,2,8,4,4,-1,-2
1529303106056292,-1,2,11,3,-5,-6,-3,0
1529303106056292,-5,-11,-17,-21,-10,-7,-2,-4
1529303106071559,0,-1,1,8,-6,4,-2,-1
1529303106071559,3,5,4,-10,3,3,1,2
1529303106079545,1,2,3,6,4,3,0,-1
1529303106079545,1,1,-8,-11,1,0,2,2
1529303106093642,-4,-19,-34,-13,-7,-3,-3,-3
1529303106093642,0,6,10,16,1,-8,-1,-3
1529303106102373,-4,-10,-4,-6,1,1,-1,-3
1529303106102373,1,-1,4,2,-10,-13,-4,0
1529303106108610,2,4,-37,-22,-3,-1,2,2
1529303106108610,1,12,34,5,-4,-6,0,1
1529303106116655,-3,-13,-23,2,1,1,-3,-2
1529303106116655,-11,-9,-3,-4,0,9,0,-5
1529303106131592,-5,-7,-4,4,7,4,3,4
1529303106131592,-4,-9,-28,-4,-11,-12,-10,-4
1529303106139791,24,15,19,-6,1,8,11,17
1529303106139791,-9,-7,-12,0,2,-10,-10,-12
1529303106153746,-3,7,15,8,-5,-5,-4,-1
1529303106153746,-9,-5,-3,-1,6,9,3,-3
1529303106161729,-1,6,13,-5,-5,-5,-4,-3
1529303106161729,4,2,0,5,7,5,1,3
1529303106168710,1,-1,3,1,0,-1,0,-2
1529303106168710,0,1,6,8,-5,-4,-3,-3
1529303106176007,1,0,-2,-1,-1,4,1,2
1529303106176007,-2,-3,-19,-3,5,1,-4,2
1529303106190717,-2,5,36,19,1,-3,-2,-1
1529303106190717,0,-10,-10,-10,1,-1,0,-3
1529303106199287,11,9,2,-4,-10,-2,-4,2
1529303106199287,6,-2,-3,0,-1,-1,8,8
1529303106213788,0,1,8,1,-2,2,-1,-1
1529303106213788,-1,-1,-4,6,8,-4,-3,-7
1529303106222010,-13,-5,-3,-12,-8,-1,1,-2
1529303106222010,2,3,2,1,2,2,3,-1
1529303106228749,-4,-3,0,3,-3,-7,-5,-5
1529303106228749,1,3,5,-3,-4,-4,2,2
1529303106244925,0,6,1,-1,2,-2,-5,-4
1529303106244925,-6,-4,-3,1,7,2,1,-2
1529303106251119,2,-1,0,-6,-11,-6,-1,-3
1529303106251119,-2,-1,-1,5,8,5,-1,0
1529303106258668,-5,-1,-2,-3,-4,5,-1,-4
1529303106258668,9,2,5,-6,-3,-3,-2,3
1529303106274112,-2,-4,-2,2,-3,-7,0,-1
1529303106274112,1,-5,-10,-1,2,4,0,3
1529303106282221,-7,-5,7,4,-3,-1,-1,-4
1529303106282221,-5,2,-7,-9,0,7,1,0
1529303106297218,3,3,-4,-3,4,2,0,1
1529303106297218,2,5,5,0,-3,-1,1,2
1529303106297218,-4,-7,-4,-2,-5,-5,-1,0
1529303106297218,-5,-3,-11,0,1,0,-3,-2
1529303106311306,4,8,21,7,-1,1,-2,0
1529303106311306,-3,-7,-10,-4,3,1,1,1
1529303106319843,1,0,6,3,0,-1,-1,-1
1529303106319843,2,3,-2,1,5,2,0,0
1529303106333685,0,-2,-2,0,3,3,1,2
1529303106333685,-2,-2,-5,-3,-9,-8,-2,-2
1529303106341664,-1,0,1,-4,-3,-2,0,-1
1529303106341664,-1,-2,2,2,0,0,0,0
1529303106357309,-1,-2,-7,-3,-1,-1,-1,0
1529303106357309,0,3,5,0,0,2,-1,0
1529303106357309,-1,-2,-7,-4,-1,0,-2,-2
1529303106357309,-1,1,6,0,-3,-3,0,0
1529303106371238,-1,-5,-4,4,3,1,0,-1
1529303106371238,0,-1,-2,-3,1,-1,-1,0
1529303106379238,0,1,0,-3,-2,-4,0,0
1529303106379238,-1,-2,1,1,1,2,1,-1
1529303106394166,1,-3,-3,-3,-4,-3,-1,-1
1529303106394166,0,-3,-1,-2,-2,-1,0,0
1529303106402150,-2,2,-2,0,3,0,-2,-1
1529303106402150,1,-1,3,2,-1,-1,-1,-2
1529303106416788,0,-2,-5,-3,-3,-2,-2,0
1529303106416788,-1,0,1,2,-1,0,-2,1
1529303106417780,0,1,-1,-3,-3,-1,0,-1
1529303106417780,0,-1,-1,0,-1,0,-1,-1
1529303106431159,-1,-1,-3,-1,0,-2,0,0
1529303106431159,0,1,-2,-2,-1,0,1,-2
1529303106439130,-2,-1,0,1,1,0,-1,-2
1529303106439130,-1,-1,-1,1,-1,-2,-1,1
1529303106453094,1,-2,-1,-2,0,-1,-2,-1
1529303106453094,0,1,2,-2,1,-1,-1,0
1529303106462465,-1,1,-2,-1,0,0,1,-1
1529303106462465,-1,1,0,0,-2,-1,0,-1
1529303106476475,0,-2,-1,-2,0,0,1,-2
1529303106476475,0,-1,-2,-1,-2,0,0,0
1529303106477476,1,-1,0,-1,0,0,0,-1
1529303106477476,2,1,2,-1,-1,0,-1,0
1529303106490613,1,0,-1,0,-2,0,0,-1
1529303106490613,0,0,-2,-2,1,-2,-3,-4
1529303106499677,-2,-3,-1,-1,1,0,0,-3
1529303106499677,2,1,1,-1,-2,-2,-1,0
1529303106513634,-2,-4,-3,-1,-1,0,-2,1
1529303106513634,0,2,4,2,1,-1,0,0
1529303106521615,-2,0,-2,-1,-1,-1,-1,0
1529303106521615,-1,-1,2,2,0,1,0,0
1529303106536351,-1,-2,-3,-2,0,-2,-1,-2
1529303106536351,1,-1,-1,-1,0,0,0,0
1529303106537315,-1,-1,-2,-1,0,-1,-1,0
1529303106537315,-1,-1,-1,-1,-2,-1,0,0
1529303106551548,-1,1,-2,2,1,-1,2,0
1529303106551548,-1,-2,-1,-3,-4,1,-1,-1
1529303106559509,-1,1,0,-1,1,-3,-1,0
1529303106559509,0,1,1,-1,-6,-1,-1,1
1529303106574028,-2,-3,0,-4,1,5,0,-2
1529303106574028,2,0,0,1,1,3,1,2
1529303106581745,-1,0,0,-3,-4,2,-1,-1
1529303106581745,0,0,1,-1,4,-6,-3,1
1529303106597130,-1,-3,-1,0,4,2,0,0
1529303106597130,1,1,0,-1,1,0,-1,0
1529303106597130,-1,-3,-5,1,3,2,1,0
1529303106597130,-1,-1,-2,2,0,-3,-3,-1
1529303106610716,-1,0,-2,-7,-3,11,2,-1
1529303106610716,0,0,0,2,8,-17,-2,-2
1529303106618698,2,0,2,3,4,-5,-4,-1
1529303106618698,-1,-3,-1,0,-3,3,-2,-1
1529303106634090,0,0,-1,-2,-1,0,-1,1
1529303106634090,-1,-1,-2,-7,-14,5,2,-1
1529303106641637,0,-1,0,1,-1,2,0,-2
1529303106641637,-2,-1,-2,-3,-1,-2,0,1
1529303106655598,-2,1,1,6,3,-6,-3,-3
1529303106655598,-4,-3,-4,-7,-7,-5,-3,-2
1529303106664741,-4,-2,-4,1,7,0,1,0
1529303106664741,7,1,0,-1,0,5,1,-3
1529303106670558,1,1,1,0,2,1,3,0
1529303106670558,-3,-1,-2,2,2,2,0,-1
1529303106679589,-1,-2,-2,-3,-3,1,0,0
1529303106679589,6,0,-1,0,2,-2,0,3
1529303106693497,-3,0,0,-1,-6,1,-6,-2
1529303106693497,0,0,0,0,-1,0,0,-1
1529303106702480,-2,0,1,-1,-2,-1,-1,-1
1529303106702480,-4,-1,-2,1,4,-3,1,-2
1529303106715438,-1,0,1,-1,-2,-4,-1,0
1529303106715438,1,-1,-1,0,-1,0,0,2
1529303106724414,0,-1,-2,-3,-4,-3,0,0
1529303106724414,-1,-1,1,-4,0,1,-1,0
1529303106730398,0,-1,0,3,-2,-5,-1,0
1529303106730398,1,3,1,-1,-4,0,1,0
1529303106739376,-1,-3,-8,1,0,-1,-1,-2
1529303106739376,-4,-1,4,-1,3,-1,-1,-1
1529303106753338,3,6,14,2,-5,-6,-1,0
1529303106753338,-2,-3,-5,-2,0,2,0,0
1529303106762313,1,0,0,-1,-3,1,-1,0
1529303106762313,-2,-2,-5,0,0,2,-2,-2
1529303106776277,-2,-1,-2,-1,-1,-3,-3,-1
1529303106776277,0,-1,1,1,2,0,-1,-2
1529303106785510,-1,0,1,0,0,0,0,-2
1529303106785510,-4,-3,-2,-1,-1,-2,-1,-2
1529303106791271,-1,0,-1,-2,-1,-2,-1,0
1529303106791271,-1,-1,-2,1,2,1,1,-2
1529303106800212,-2,-1,-2,-4,0,1,-1,1
1529303106800212,-2,-2,-1,0,-4,0,0,1
1529303106813419,0,-3,-4,-1,-1,0,-2,-1
1529303106813419,-1,-2,0,2,3,1,0,1
1529303106822165,0,2,2,-1,-3,0,-3,-1
1529303106822165,0,0,-1,0,3,6,0,-1
1529303106836339,-1,-2,-3,-1,0,-2,-1,1
1529303106836339,-2,-2,-2,-2,-5,-4,-4,-1
1529303106845093,1,0,2,0,-1,0,-1,0
1529303106845093,-3,0,-1,2,-2,-1,1,0
1529303106851306,-1,-2,-5,-3,1,1,2,0
1529303106851306,-1,0,2,1,3,1,0,0
1529303106860067,1,0,-1,0,-2,-2,0,1
1529303106860067,-1,0,-1,-3,-2,-1,0,0
1529303106873772,-2,-1,-3,-3,3,-1,0,1
1529303106873772,-1,0,2,11,2,-2,-1,-2
1529303106883057,-1,-1,0,-1,-3,-3,-1,-1
1529303106883057,1,1,-1,-2,-2,1,-1,-2
1529303106896696,-1,0,-2,-3,-2,-2,0,-2
1529303106896696,-1,-1,0,-4,1,2,0,-1
1529303106904886,0,0,2,9,5,2,-1,1
1529303106904886,-1,-1,1,-4,-2,0,-1,0
1529303106910918,0,-2,-2,-5,-2,-1,-1,0
1529303106910918,-2,-1,-3,-6,-7,-2,0,-1
1529303106920644,-1,0,1,-3,-3,-2,-1,-1
1529303106920644,0,-1,0,0,0,-2,0,-2
1529303106933857,-1,0,0,14,5,0,0,0
1529303106933857,0,1,-1,-4,0,-1,-1,0
1529303106942877,-2,-2,0,-2,1,0,0,0
1529303106942877,0,0,-2,2,1,-2,1,0
1529303106956399,0,-1,0,0,0,-2,0,-1
1529303106956399,2,1,0,6,1,1,0,-1
1529303106965124,1,1,-1,-14,-3,-2,1,0
1529303106965124,-1,-2,1,9,-4,-3,-3,-3
1529303106971369,0,-1,2,-5,-4,2,0,-1
1529303106971369,0,0,5,14,5,-1,0,0
1529303106980115,-1,-2,-8,-28,-11,-2,-1,-1
1529303106980115,-2,-1,-3,-5,-2,-1,-1,-1
1529303106993683,-2,2,-2,-1,-3,-2,-2,-1
1529303106993683,-1,-2,-2,-2,1,1,-1,0
1529303107002684,1,-1,4,12,3,-1,1,1
1529303107002684,0,-4,-4,-16,-7,-3,-2,-1
1529303107015888,-2,-1,-2,1,0,0,0,-2
1529303107015888,0,-1,0,0,1,2,-1,1
1529303107024624,-1,-1,1,5,1,1,-2,-3
1529303107024624,0,0,-1,2,1,0,0,0
1529303107030607,0,-1,-1,1,1,0,-1,1
1529303107030607,-1,0,-3,-8,-1,1,0,0
1529303107039741,0,-1,-2,1,-2,-3,-1,-1
1529303107039741,0,-2,0,0,1,-1,-1,-1
1529303107053721,1,-2,0,-2,-1,-2,-1,0
1529303107053721,-1,-1,-3,-4,-2,-2,-1,-1
1529303107062467,-2,-2,0,2,-4,0,0,-1
1529303107062467,1,1,0,2,1,0,1,0
1529303107075632,-1,0,-2,0,-2,-1,0,0
1529303107075632,-1,-2,-2,-4,0,-1,2,0
1529303107092588,-1,-1,2,4,3,0,-1,-1
1529303107092588,-2,0,-1,-1,-2,0,-1,1
1529303107093583,0,-1,0,-4,-3,-1,-2,-1
1529303107093583,1,0,-2,-3,-1,0,-1,-1
1529303107099829,-2,0,-1,1,1,1,0,0
1529303107099829,-1,1,2,4,5,0,1,-1
1529303107114052,-1,-2,-4,-3,-3,-3,-1,-1
1529303107114052,0,0,-1,-3,-3,-2,-1,-2
1529303107123050,1,-1,-1,0,-1,-1,-1,0
1529303107123050,0,-1,-1,0,-1,0,-2,-1
1529303107136105,0,-1,1,0,-3,-1,0,-1
1529303107136105,-1,-2,-1,-3,-1,0,0,-1
1529303107144817,0,0,-1,0,-2,-1,-1,0
1529303107144817,-1,-2,-1,0,-1,0,0,0
1529303107151006,-1,0,-1,-1,0,0,0,-1
1529303107151006,-2,-1,0,-1,-1,0,-1,0
1529303107159844,1,0,-2,1,2,1,1,0
1529303107159844,1,0,0,-1,-1,-1,0,0
1529303107173854,-2,0,0,0,0,-2,-1,-2
1529303107173854,-1,-1,1,0,0,0,0,-1
1529303107183249,0,-3,0,-2,0,-1,-1,-1
1529303107183249,-2,0,-2,-4,-2,-1,0,-1
1529303107195986,1,-1,-2,-3,-4,-2,-1,-1
1529303107195986,0,-1,0,-2,-1,-1,-1,1
1529303107205389,-2,-1,0,0,-1,-2,-2,0
1529303107205389,-1,-1,-2,1,0,-1,0,-1
1529303107220653,-1,-2,-1,0,-2,0,0,-1
1529303107220653,1,-1,-1,0,0,-2,-1,-1
1529303107221350,0,-1,-2,-1,1,-1,1,-1
1529303107221350,-3,-2,-1,1,-1,-3,-1,-1
1529303107232898,0,-2,0,-1,2,0,1,0
1529303107232898,-2,-2,-1,-2,-1,-1,0,0
1529303107241856,0,1,0,0,-2,0,-1,-2
1529303107241856,0,0,-2,0,0,0,-1,1
1529303107256046,0,-1,-1,-1,1,-1,-2,-1
1529303107256046,0,-1,0,-1,0,-1,0,-1
1529303107264793,1,0,-1,0,-1,-1,1,0
1529303107264793,0,0,0,0,1,0,-1,0
1529303107280052,-2,0,0,1,1,0,-1,0
1529303107280052,0,0,-2,0,-1,-1,-3,-1
1529303107281258,-2,-1,0,1,0,-2,1,-2
1529303107281258,1,-2,-1,-1,0,0,-1,-1
1529303107293665,-1,1,0,0,-2,0,0,-1
1529303107293665,-1,0,-2,-1,-2,-1,-1,-1
1529303107302469,0,-2,-1,-3,-2,-1,-1,-2
1529303107302469,-1,-1,-2,-1,-2,-1,0,0
1529303107316560,-1,0,1,-2,2,-1,0,-1
1529303107316560,-1,-1,-1,0,-1,-1,0,-1
1529303107325222,0,-1,-1,-1,-1,1,-1,1
1529303107325222,-1,-1,1,1,3,2,-1,1
1529303107340382,0,-1,-2,-2,-2,-1,-1,1
1529303107340382,0,-2,-1,-3,-2,1,0,0
1529303107341005,1,0,1,0,1,0,1,0
1529303107341005,1,-1,0,0,0,-1,0,-1
1529303107354159,0,-1,-2,1,2,0,-1,-1
1529303107354159,1,-1,0,-1,0,-2,0,1
1529303107362009,-1,-1,-1,-1,-1,-2,0,0
1529303107362009,1,-1,0,-2,0,0,-1,-1
1529303107375910,0,-1,-2,0,-1,0,-1,-1
1529303107375910,-1,-2,0,0,0,-2,-1,-1
1529303107384886,-1,0,0,-1,0,1,-1,-2
1529303107384886,-1,0,-1,0,0,-2,0,-1
1529303107400396,0,0,0,-1,-1,0,0,-1
1529303107400396,-1,0,2,0,-1,-1,-1,1
1529303107401310,-2,0,-2,-1,-1,-1,-1,1
1529303107401310,-2,0,-1,-1,-2,-1,-1,-1
1529303107413662,0,0,1,-1,1,-1,0,-1
1529303107413662,-3,1,-2,-2,-2,1,-1,-1
1529303107422250,2,0,1,0,0,-2,-1,-1
1529303107422250,-1,-2,-1,-1,-2,-1,0,-1
1529303107436474,-3,-1,-1,2,1,-1,0,0
1529303107436474,1,-2,-1,0,-1,-1,0,-1
1529303107445189,-1,1,0,-3,-1,-2,0,-1
1529303107445189,0,-1,-1,-2,-2,0,-1,-1
1529303107460418,1,0,0,-1,0,-1,1,0
1529303107460418,-1,-1,-1,1,-2,-1,-1,-1
1529303107462176,1,1,0,0,-1,0,-1,-1
1529303107462176,-1,-2,-1,-1,-1,-2,-1,-1
1529303107473359,-1,0,-1,-1,0,0,0,0
1529303107473359,0,2,0,-2,1,0,0,-2
