timestamp,emg1,emg2,emg3,emg4,emg5,emg6,emg7,emg8
1528875852483666,-2,-2,-1,0,0,-2,-1,0
1528875852483666,-1,0,-1,-2,-1,-1,-2,-2
1528875852489650,0,-1,0,-2,-3,-1,0,-2
1528875852489650,0,0,-1,0,-2,-2,0,0
1528875852496631,-1,0,-1,1,0,-1,0,-2
1528875852496631,-1,-1,-2,-1,-1,1,-1,0
1528875852505614,-3,0,-1,-1,0,-1,-3,1
1528875852505614,1,0,0,-1,-1,-1,0,-2
1528875852511591,0,0,0,0,-1,1,0,-2
1528875852511591,-1,1,0,1,0,-1,1,-1
1528875852526550,2,-2,-3,0,0,0,1,0
1528875852526550,-1,-2,0,0,0,-2,-2,-2
1528875852534529,-1,0,-1,-2,-2,-1,-2,-1
1528875852534529,0,-1,-1,-3,0,-2,-2,0
1528875852549489,-2,0,0,0,0,-1,-3,-1
1528875852549489,-3,0,-1,-3,2,-2,-1,-1
1528875852560461,-1,-1,-2,-1,0,-1,-1,0
1528875852560461,-1,-1,0,1,-1,-1,-1,-1
1528875852572428,-1,-1,0,-1,-1,-2,-2,0
1528875852572428,1,-1,-2,0,-1,1,-1,-1
1528875852579438,-1,1,-1,0,-1,1,1,-2
1528875852579438,-1,1,-1,0,1,-1,0,-2
1528875852586390,-2,-2,0,0,0,-2,1,0
1528875852586390,-2,-1,0,-2,-1,1,-1,1
1528875852594371,-1,0,-1,-2,0,0,-2,-1
1528875852594371,1,1,0,0,-2,1,-2,-1
1528875852612326,-1,0,-1,-1,-2,-2,-1,-1
1528875852612326,0,0,-1,0,-2,-1,0,0
1528875852617307,0,0,0,-2,0,0,0,0
1528875852617307,-2,-2,-1,-1,0,0,0,0
1528875852632270,2,0,-1,0,0,1,-1,-1
1528875852632270,0,-1,0,-1,-1,-1,-3,0
1528875852647227,-2,-1,-1,1,0,-2,-2,0
1528875852647227,0,0,0,-1,-1,-2,0,-1
1528875852654209,0,-1,0,-1,0,1,1,-2
1528875852654209,0,0,0,1,-1,0,-1,-3
1528875852665180,2,-2,-1,-1,-1,-1,0,-1
1528875852665180,-1,-2,0,0,0,0,0,0
1528875852677148,-1,0,-1,0,-2,-1,-1,-2
1528875852677148,0,0,-2,-1,0,1,1,0
1528875852684129,-8,0,0,0,0,0,0,-1
1528875852684129,4,1,-1,-3,-1,-1,0,-1
1528875852692108,0,1,-2,0,-1,-1,-1,-1
1528875852692108,-2,0,0,0,1,-1,0,-1
1528875852699089,1,-2,-1,0,-1,-1,-2,0
1528875852699089,-4,-1,-1,-1,-1,-3,1,-1
1528875852707069,0,1,0,1,0,0,-1,0
1528875852707069,0,0,0,-1,-1,0,-1,-1
1528875852717041,-3,-3,-1,-1,-2,-1,0,1
1528875852717041,0,-2,-3,0,-2,-1,0,0
1528875852729009,-4,-5,0,-2,-1,-1,-1,-2
1528875852729009,3,2,2,2,2,-1,-2,1
1528875852736988,4,2,3,-2,-6,2,1,1
1528875852736988,-5,-6,-7,-8,1,-7,-6,-3
1528875852758929,2,2,3,2,11,6,5,4
1528875852758929,-5,-4,-3,5,13,-1,-2,-3
1528875852766908,1,0,-1,-3,-12,-9,-3,-1
1528875852766908,2,-1,-9,-3,-3,6,2,1
1528875852781868,1,2,3,4,-14,8,5,2
1528875852781868,-4,-12,5,10,5,-20,-13,-7
1528875852796829,-1,-3,-9,-18,37,4,-1,-2
1528875852796829,-3,-8,-30,-14,-18,-4,-3,-2
1528875852803809,8,7,26,61,8,-4,0,7
1528875852803809,4,14,33,-81,-37,0,-1,-3
1528875852811789,-4,1,-15,7,26,-9,-3,-3
1528875852811789,-1,-3,-30,16,-23,3,1,0
1528875852826748,8,7,15,-15,13,1,2,3
1528875852826748,-3,-9,-19,21,38,17,3,-3
1528875852834726,-7,-19,-26,-66,-27,-17,-9,-6
1528875852834726,-2,-4,14,79,39,12,5,1
1528875852849686,-2,8,-14,-45,-27,-5,1,-1
1528875852849686,-3,5,-2,19,25,-3,-1,-1
1528875852856668,11,29,38,11,-7,9,5,2
1528875852856668,8,-11,-27,20,-17,3,3,4
1528875852879607,-3,-5,-27,-32,-9,1,1,-2
1528875852879607,-7,-3,12,40,30,11,1,-3
1528875852894566,3,1,-4,-41,-38,-3,-1,2
1528875852894566,-7,12,14,14,-1,-3,-1,-5
1528875852901548,-2,-18,-16,38,40,12,2,-1
1528875852901548,1,31,30,-31,-7,-6,2,3
1528875852916508,-5,-17,-44,-34,-8,10,2,0
1528875852916508,-1,2,23,30,29,9,4,3
1528875852931468,2,9,17,61,45,6,2,-5
1528875852931468,-4,-9,-20,-71,-54,-15,-4,0
1528875852946427,9,4,8,44,10,-7,-4,-1
1528875852946427,-8,-10,6,52,10,8,2,-2
1528875852954406,2,13,3,-107,-31,-12,-4,-7
1528875852954406,-17,-20,-9,64,32,3,-7,-11
1528875852969367,-1,-12,-7,-9,-14,-1,2,-1
1528875852969367,-22,-35,-20,66,5,0,-5,-10
1528875852976348,7,53,55,4,-59,-12,-6,-2
1528875852976348,10,12,-8,-50,35,9,6,5
1528875852999287,-4,-10,1,59,38,2,1,1
1528875852999287,6,6,14,34,-38,-5,1,4
1528875853014247,-9,7,24,77,13,3,1,-3
1528875853014247,4,-2,-34,-124,-23,-3,1,2
1528875853022240,-13,-21,-19,10,0,-3,-1,3
1528875853022240,0,5,23,-3,35,-1,-2,-3
1528875853037185,2,17,11,-13,13,7,2,5
1528875853037185,0,8,12,38,4,-5,-7,-10
1528875853052145,12,2,10,-16,-7,-1,-2,2
1528875853052145,4,-6,-5,64,31,3,5,8
1528875853067105,-26,-7,-12,-71,-67,-2,11,-8
1528875853067105,22,16,12,12,29,0,-3,0
1528875853074087,15,-16,3,65,3,-2,-6,6
1528875853074087,1,6,-14,-16,-44,-1,2,3
1528875853089048,-13,2,5,17,47,5,5,4
1528875853089048,13,5,14,-1,-23,-5,-5,-7
1528875853097026,-33,-22,-19,-34,-18,3,11,-2
1528875853097026,11,4,-6,2,13,2,-8,-2
1528875853111985,7,0,4,23,-4,-5,-7,-3
1528875853111985,1,-4,4,3,3,2,-4,-6
1528875853126946,-3,-3,-15,-30,-14,-3,2,-4
1528875853126946,-1,-1,-3,3,4,-2,1,11
1528875853133928,-9,2,0,-26,1,8,13,-1
1528875853133928,3,0,-4,18,-10,-2,-14,2
1528875853149886,23,-1,4,28,-5,-8,3,1
1528875853149886,-3,7,2,-55,4,7,-1,-1
1528875853157864,3,-4,3,43,58,6,-12,1
1528875853157864,-8,-3,-14,-48,-17,3,24,1
1528875853171825,-2,2,-1,-6,-7,-2,-4,-4
1528875853171825,7,2,-7,-33,-9,-4,-6,2
1528875853195009,-1,6,14,16,3,-9,-3,1
1528875853195009,-6,-6,-4,27,-1,-7,-1,-2
1528875853201991,16,7,-2,-11,-16,7,-5,-5
1528875853201991,-17,-4,-5,2,8,13,-1,0
1528875853217566,7,3,-2,-73,-49,-11,-1,2
1528875853217566,20,-4,-4,11,0,19,9,9
1528875853224344,-26,-13,-7,27,-6,9,1,-8
1528875853224344,-2,-1,-1,-27,-32,-11,-5,-4
1528875853232264,-5,-21,3,-9,18,9,-22,1
1528875853232264,-30,-6,-4,-27,-9,-23,13,9
1528875853247225,26,5,13,42,2,6,-13,1
1528875853247225,-4,5,-2,-45,-19,-3,17,-2
1528875853255203,8,-4,-6,34,29,4,17,11
1528875853255203,-12,9,16,34,58,-1,-10,-7
1528875853277145,-2,5,-1,-33,-26,13,10,7
1528875853277145,-5,3,-12,26,23,-5,-11,-6
1528875853284126,0,1,0,-22,-72,-16,2,2
1528875853284126,8,-1,14,54,64,6,-1,-2
1528875853299639,7,12,6,-51,-69,-3,7,6
1528875853299639,-17,-14,-18,26,17,2,-7,-9
1528875853314910,31,18,6,6,26,-2,13,3
1528875853314910,8,10,3,-28,-75,2,-17,1
1528875853329724,-44,-34,-18,14,6,-5,-6,-7
1528875853329724,38,-5,-2,15,-22,-4,3,10
1528875853336705,7,10,-5,44,40,6,1,-4
1528875853336705,18,18,13,19,29,-10,0,2
1528875853351666,-45,-6,-8,28,-1,-3,-3,-7
1528875853351666,25,-5,-28,-21,-34,-1,3,8
1528875853359644,-17,-12,14,10,33,-4,-7,-14
1528875853359644,8,9,-3,-10,-24,8,10,3
1528875853374605,-9,5,12,32,4,0,-1,-4
1528875853374605,48,3,-18,-54,4,11,8,10
1528875853389584,-75,-14,17,23,12,-2,-7,-17
1528875853389584,-30,-8,-2,-4,-23,5,5,-5
1528875853396837,2,-9,-10,-37,16,2,-2,3
1528875853396837,-12,-3,-2,13,7,-6,-14,-4
1528875853412527,3,9,-1,-20,-39,12,17,-10
1528875853412527,33,5,3,22,36,-12,-9,-9
1528875853420243,11,-15,-2,-12,5,-5,1,12
1528875853420243,-13,2,14,26,21,-5,6,11
1528875853434947,2,7,-7,-16,4,-9,-2,-1
1528875853434947,12,-21,-9,-45,-63,-5,-1,-7
1528875853449658,-5,-4,-15,-43,-7,-15,-6,-1
1528875853449658,-12,-1,2,-4,19,1,2,-2
1528875853456883,8,6,-1,47,32,-5,0,19
1528875853456883,-10,-11,-1,18,-25,1,-4,-11
1528875853471801,-1,10,9,-19,-11,-1,-9,-25
1528875853471801,-2,2,4,-28,-19,-2,2,-3
1528875853479559,13,8,3,2,-4,8,-1,3
1528875853479559,-6,-5,-4,-9,-4,-3,4,-6
1528875853495047,-16,3,6,12,-9,4,6,-2
1528875853495047,7,-6,-22,-62,-14,-7,-7,1
1528875853509059,20,-9,9,21,10,-4,-5,3
1528875853509059,1,24,17,22,14,1,-2,2
1528875853517040,-10,3,-4,-6,-14,-8,0,-2
1528875853517040,-1,3,14,-3,2,3,3,1
1528875853531998,4,10,-5,-18,-34,-3,-2,7
1528875853531998,-5,-9,-4,21,-11,-6,1,-1
1528875853538983,-6,-12,-12,-47,-6,-6,-7,-9
1528875853538983,-3,14,29,13,6,2,-3,-4
1528875853561918,-10,-8,-4,-8,-17,-8,-8,-9
1528875853561918,-5,4,-3,-7,8,1,-1,-2
1528875853577186,4,-6,1,35,21,9,3,4
1528875853577186,-3,-1,-11,-33,-6,-8,-5,-3
1528875853584742,-7,-7,-29,8,0,5,2,-1
1528875853584742,0,0,25,-37,-21,-3,1,-1
1528875853600025,3,9,25,31,35,29,9,1
1528875853600025,5,-11,-22,6,4,-3,-5,1
1528875853613871,4,4,12,-1,12,1,-2,-1
1528875853613871,-6,-3,-12,-13,-22,6,4,2
1528875853629810,-2,-5,-2,20,18,-12,-3,1
1528875853629810,4,-4,-22,-24,-3,-16,-5,1
1528875853636816,2,3,2,-1,-5,0,2,0
1528875853636816,-5,-12,-31,6,10,-17,-8,-7
1528875853659737,5,-3,-6,1,-13,-15,-5,-2
1528875853659737,6,8,5,-8,10,6,8,7
1528875853666698,-10,-3,-7,-22,-13,-10,-6,-10
1528875853666698,2,-5,1,15,6,15,7,3
1528875853681710,13,7,-13,-19,-11,-48,-17,-1
1528875853681710,1,-1,-3,21,13,4,0,0
1528875853696618,0,2,3,-19,-13,-3,-1,2
1528875853696618,1,-1,10,10,2,13,8,-1
1528875853712613,15,11,1,-1,33,15,8,8
1528875853712613,-14,-15,-11,-39,-54,-9,-11,-10
1528875853719560,6,8,11,25,9,-13,7,6
1528875853719560,4,6,6,34,13,17,4,3
1528875853734765,0,2,3,5,8,30,7,1
1528875853734765,0,-10,-16,-12,7,19,5,1
1528875853750006,6,7,3,10,10,-10,3,4
1528875853750006,-4,-8,-25,-7,4,9,3,1
1528875853756985,-6,-2,2,-15,-11,5,5,-2
1528875853756985,-2,1,6,14,26,3,-3,-1
1528875853771846,-16,-13,-14,-34,-27,-10,-6,-9
1528875853771846,-2,-6,-8,13,13,-12,-6,-1
1528875853779696,0,2,11,8,-22,10,2,-1
1528875853779696,-4,-7,-17,-25,7,19,7,0
1528875853794785,1,6,22,31,22,-1,-3,-1
1528875853794785,3,-4,-3,-10,13,12,0,1
1528875853801979,-5,-6,-11,-12,-38,-40,-11,-8
1528875853801979,-12,-19,-24,-7,-15,15,3,-7
1528875853809964,7,19,61,36,-4,1,1,3
1528875853809964,-3,-10,-16,-1,-1,31,4,-3
1528875853817210,-2,2,-7,-12,6,32,12,1
1528875853817210,-5,-8,-15,-20,-2,-22,-8,-5
1528875853832475,1,0,-15,-25,-7,-10,-10,-2
1528875853832475,-1,-8,-24,-4,21,15,4,0
1528875853839222,4,5,18,-6,-48,9,1,1
1528875853839222,2,3,-1,24,30,-20,-5,1
1528875853855209,-2,-3,-13,-18,-28,4,-1,-1
1528875853855209,-8,-6,1,15,29,21,6,1
1528875853862150,10,5,-1,0,7,-21,-5,-7
1528875853862150,0,-6,8,-23,-22,-25,-1,3
1528875853870180,-4,11,9,10,-20,6,-19,-4
1528875853870180,-17,-25,-8,19,42,5,24,4
1528875853877352,16,26,14,-4,-11,-2,-9,-2
1528875853877352,43,20,17,26,3,24,15,13
1528875853891806,-27,-10,-10,-42,-37,-10,-4,2
1528875853891806,38,2,4,16,5,7,-16,-1
1528875853899546,-41,-27,-9,19,38,7,-4,-12
1528875853899546,-12,-18,-8,-12,-30,-7,-3,-7
1528875853914505,7,42,20,8,3,-9,-3,-3
1528875853914505,20,25,10,-6,-27,12,6,14
1528875853921487,25,-5,9,-11,26,26,15,13
1528875853921487,-6,-3,-8,24,-3,-17,-17,-5
1528875853929494,-20,-57,-34,-37,-29,2,9,-1
1528875853929494,3,39,3,-11,-29,-22,-11,-9
1528875853936478,-6,-3,-17,-2,9,1,-3,0
1528875853936478,11,28,43,19,31,4,4,2
1528875853951432,0,-27,-3,22,14,3,2,-1
1528875853951432,-10,-7,-15,-19,-5,-29,-2,-5
1528875853959439,-7,11,6,24,30,-22,-2,12
1528875853959439,11,-22,-23,0,10,15,0,-2
1528875853974397,-58,-8,3,1,0,8,15,-52
1528875853974397,6,-9,-7,-22,-36,-9,-29,-6
1528875853981380,45,19,0,4,-3,23,27,12
1528875853981380,-25,-4,7,1,17,-13,-7,-1
1528875853997346,18,8,8,12,12,-1,0,14
1528875853997346,-13,-18,-13,-2,11,23,5,-2
1528875854004321,-50,-15,-7,-9,-3,-15,-10,-16
1528875854004321,39,14,5,-2,-29,-6,-1,7
1528875854019285,3,0,-15,-12,10,21,4,13
1528875854019285,-20,-10,10,1,6,-31,-5,-8
1528875854027259,19,11,19,51,22,0,-1,7
1528875854027259,-20,4,-6,-30,-5,6,3,-3
1528875854034239,26,12,1,4,13,-11,-6,4
1528875854034239,5,1,5,40,31,11,7,5
1528875854042210,-4,-9,17,-6,12,6,0,-5
1528875854042210,-22,-10,3,-19,-33,-6,-2,-6
1528875854049198,16,22,1,30,31,16,7,10
1528875854049198,-8,-20,-25,-28,-22,-3,2,-1
1528875854057173,-10,-17,-14,3,7,-9,-12,-2
1528875854057173,-8,4,-3,-14,-22,-7,-5,-8
1528875854073082,22,3,10,5,-10,-17,-6,4
1528875854073082,2,8,8,0,8,35,14,8
1528875854079066,-15,-8,-9,18,43,-10,-6,-7
1528875854079066,7,5,-6,-5,-5,7,7,9
1528875854087044,-3,-11,-6,-15,-31,-14,-6,-12
1528875854087044,-43,2,-3,-5,13,13,14,-4
1528875854094026,56,9,-2,-2,-6,-18,-26,-2
1528875854094026,-25,-20,-9,-1,-16,5,2,4
1528875854108986,13,11,7,-10,7,1,2,3
1528875854108986,-3,-3,-4,15,5,-9,-4,0
1528875854116964,-18,-4,-3,-27,-50,-15,-2,-5
1528875854116964,-1,-7,-7,1,48,9,1,-3
1528875854131924,4,2,-8,23,20,-6,-2,6
1528875854131924,4,11,29,-40,-35,-7,1,-3
1528875854138906,-8,-7,-16,-2,-15,-9,3,1
1528875854138906,6,-3,11,4,0,5,-1,-1
1528875854146885,-11,-5,-9,20,7,-3,2,2
1528875854146885,13,12,8,21,20,-7,-4,3
1528875854154863,1,4,0,-18,-13,-8,0,1
1528875854154863,-2,-1,-6,-10,-19,-9,-2,-1
1528875854169822,5,-3,1,7,11,9,1,1
1528875854169822,-9,-12,-4,-2,3,-8,0,2
1528875854176803,24,8,2,-6,1,14,1,-3
1528875854176803,-6,6,0,9,5,-3,1,8
1528875854191765,-6,2,0,-11,-6,5,-1,-17
1528875854191765,2,-10,-16,-14,-20,-11,-7,-4
1528875854199743,-23,-7,0,-6,-14,8,8,-1
1528875854199743,4,6,0,11,14,0,-1,-1
1528875854206724,11,9,8,-4,-13,13,3,12
1528875854206724,-2,-4,4,2,16,1,-2,-4
1528875854214702,-5,-1,-2,-8,-8,3,2,2
1528875854214702,-2,-2,7,28,-5,-8,-3,-5
1528875854229663,1,-1,0,-34,20,7,2,4
1528875854229663,2,1,-8,24,-16,-5,-3,-4
1528875854236644,-2,0,1,-7,-2,0,3,3
1528875854236644,4,3,2,4,5,6,0,-2
1528875854251839,-8,-4,-5,-4,-2,-2,-1,0
1528875854251839,9,-3,-4,-17,-4,0,-1,3
1528875854259586,-7,-2,3,-4,-11,4,-2,-2
1528875854259586,-1,5,8,3,7,5,2,1
1528875854266567,-7,-10,-8,4,-8,-4,-4,-3
1528875854266567,11,3,4,-2,6,5,3,5
1528875854274805,-5,-2,-1,-2,-11,5,0,-2
1528875854274805,-6,-4,-7,-15,-13,6,-2,-7
1528875854289504,0,-2,2,1,-8,-10,-2,2
1528875854289504,2,1,-5,-2,-1,7,-1,-2
1528875854297485,-3,-2,1,0,12,-1,1,0
1528875854297485,3,2,1,-5,-1,-1,0,-1
1528875854311447,-1,-4,0,0,-12,11,2,0
1528875854311447,-2,1,-1,-2,-11,-12,-5,-1
1528875854320143,-3,-3,-3,-5,-7,1,4,2
1528875854320143,2,5,4,-3,3,-8,-3,-3
1528875854326848,-3,-3,-3,1,2,-3,-2,0
1528875854326848,3,-2,1,3,0,0,-1,0
1528875854335157,1,2,0,-8,7,0,0,2
1528875854335157,-5,0,-1,12,3,-1,0,-3
1528875854350171,-1,0,0,-1,4,-8,0,-1
1528875854350171,4,0,0,1,1,-2,-10,0
1528875854357054,0,1,4,-3,-2,6,0,0
1528875854357054,-3,-1,0,1,9,5,3,-1
1528875854373011,3,-1,0,0,-2,2,-3,-1
1528875854373011,-1,-1,-5,-1,1,-3,3,0
1528875854378998,0,-1,1,1,-2,-1,-2,-2
1528875854378998,-2,-4,-4,-6,-1,-3,-6,-3
1528875854386974,-2,-3,0,-1,-5,-3,2,0
1528875854386974,2,1,5,6,4,0,0,-2
1528875854393958,3,15,5,1,3,4,-1,-3
1528875854393958,-2,-3,-5,-5,-5,-4,4,0
1528875854417150,-4,-8,-3,2,-3,3,1,2
1528875854417150,-1,-1,-1,-3,2,1,-1,1
1528875854425051,0,1,1,3,3,-1,1,0
1528875854425051,0,-1,-6,-4,-1,1,-1,-2
1528875854440087,-1,-1,0,1,-5,-2,-3,0
1528875854440087,-1,0,-3,-2,-4,-2,0,-1
1528875854447080,-3,-5,3,1,2,-3,0,-1
1528875854447080,7,24,10,2,2,0,0,0
1528875854455027,-3,-16,-7,-4,-5,3,-1,-1
1528875854455027,1,-2,-8,4,0,2,1,0
1528875854462015,-2,-13,-4,-2,-1,-3,-2,1
1528875854462015,-5,-2,1,-4,-2,1,-1,-2
1528875854470186,2,10,7,0,-4,-2,-4,1
1528875854470186,-2,0,-2,-1,0,-1,-1,0
1528875854476743,-2,-8,-7,2,1,0,-1,1
1528875854476743,-6,-8,-7,-6,-3,-1,-2,-3
1528875854491694,3,6,6,2,0,-3,0,1
1528875854491694,3,0,-13,-2,-2,1,2,1
1528875854499474,-4,-12,1,1,1,0,0,1
1528875854499474,4,13,2,0,-2,0,0,1
1528875854507434,5,25,22,3,-1,-1,0,-1
1528875854507434,1,-1,1,-2,-1,1,0,-1
1528875854514435,-5,-19,-26,-5,-2,-7,-2,-1
1528875854514435,-6,-23,0,2,6,1,1,-2
1528875854529367,-4,10,9,6,1,5,2,-1
1528875854529367,0,-9,-7,-21,-13,-1,-2,-1
1528875854537150,0,8,7,6,0,4,1,-1
1528875854537150,1,-3,-10,1,1,-2,-4,0
1528875854552073,-4,-30,-25,-10,-6,-1,-1,-2
1528875854552073,-1,33,38,8,9,1,-1,-1
1528875854560111,10,21,3,4,3,1,4,3
1528875854560111,1,-6,9,-3,-3,3,2,2
1528875854567033,-3,-9,4,1,-1,-1,-1,-1
1528875854567033,-8,-9,-8,-8,-7,1,-1,-3
1528875854574015,5,6,3,1,-1,-4,-4,0
1528875854574015,2,9,5,18,8,1,0,1
1528875854588972,2,0,-5,-23,-7,-3,-2,0
1528875854588972,-5,-13,-9,3,2,0,0,-1
1528875854603974,-5,2,-11,-1,1,0,-1,-5
1528875854603974,-2,-17,5,-7,-11,4,0,0
1528875854618937,2,25,-1,6,3,-1,-1,-2
1528875854618937,2,-7,-3,0,-2,-4,-2,-1
1528875854635078,1,2,12,8,2,-3,-1,-3
1528875854635078,-3,-12,-16,-7,-6,-1,-3,-2
1528875854642076,-2,-20,-18,4,0,0,-2,-1
1528875854642076,4,36,41,9,7,-5,0,1
1528875854657293,2,4,-6,4,1,-3,0,2
1528875854657293,-2,-19,-30,-20,-8,0,2,0
1528875854672242,5,21,13,7,2,4,2,2
1528875854672242,6,13,5,7,0,2,1,1
1528875854694487,0,4,20,8,1,0,1,1
1528875854694487,0,-2,-24,-10,-2,-2,-1,0
1528875854702191,-6,-24,-15,-4,-3,-3,-4,-5
1528875854702191,-7,-21,-12,1,-1,0,-1,-3
1528875854716892,-2,-11,-3,3,4,1,-1,0
1528875854716892,0,-4,-5,0,1,4,3,1
1528875854731678,-4,-12,-9,3,2,-5,-4,-3
1528875854731678,-3,-1,-6,-6,0,3,1,0
1528875854747273,0,-2,5,-21,-10,-1,-1,0
1528875854747273,-2,3,-5,6,5,-2,-1,-2
1528875854754241,0,3,1,-1,-5,-6,-14,0
1528875854754241,0,-3,4,7,3,5,3,0
1528875854770118,-2,-1,1,0,2,2,5,1
1528875854770118,-1,-3,0,-2,0,-1,-3,-1
1528875854784462,-3,-2,-4,-1,-3,-3,-15,-8
1528875854784462,1,-5,-3,1,3,1,11,7
1528875854799415,-3,1,5,5,2,3,2,-6
1528875854799415,1,2,-2,-7,-7,-6,-13,-1
1528875854814176,3,-1,-2,1,0,0,-9,6
1528875854814176,0,1,2,5,5,0,-7,-2
1528875854829106,-3,0,-1,-6,-6,-1,5,1
1528875854829106,-2,-2,-4,-4,-3,-4,-5,2
1528875854852045,3,0,0,-2,0,2,6,3
1528875854852045,-9,-7,-1,-3,-4,-5,1,-7
1528875854867227,7,5,2,-1,1,2,0,12
1528875854867227,-2,-6,-2,-3,-5,-3,-1,5
1528875854881964,-4,-3,-1,-1,0,0,-2,-3
1528875854881964,1,4,2,2,4,2,0,-6
1528875854897154,1,-4,1,2,2,3,5,-4
1528875854897154,6,1,-1,-1,-1,3,6,6
1528875854919479,2,0,0,-1,0,-1,-3,-3
1528875854919479,0,0,0,1,1,2,-3,-1
1528875854942510,-4,0,0,-2,-3,-3,-3,2
1528875854942510,-5,-2,-2,0,0,1,3,-3
1528875854950067,-3,-1,-2,0,-2,-1,-4,-2
1528875854950067,-4,0,-1,1,-1,-2,3,-2
1528875854964233,-5,-1,-4,-1,-1,1,3,-2
1528875854964233,0,2,-1,-1,-2,-2,-2,-3
1528875854979459,-4,-2,-1,-3,-1,-4,-4,-2
1528875854979459,1,2,-1,-1,1,0,0,-1
1528875854987706,2,1,-1,-2,-1,2,1,4
1528875854987706,-4,-1,0,0,-1,-1,1,-2
1528875854994708,0,0,-1,-1,-3,0,-3,-2
1528875854994708,1,-1,1,0,-1,1,0,2
1528875855010194,0,1,1,-1,0,-1,-1,-1
1528875855010194,-1,-1,-3,1,-1,0,-1,1
1528875855024015,-2,-2,-2,-1,-1,-1,-1,0
1528875855024015,0,-2,0,-1,-1,0,1,-1
1528875855032207,-1,-1,-1,1,0,-2,0,1
1528875855032207,-2,2,1,1,1,0,2,-2
1528875855047181,1,-1,1,-1,0,0,-2,-1
1528875855047181,2,0,0,1,0,-1,0,-1
1528875855054945,0,0,-1,-1,0,-2,-1,-3
1528875855054945,-4,-3,-1,-2,1,-2,0,-1
1528875855069392,-2,-1,-1,-1,-2,-1,-1,1
1528875855069392,3,0,0,1,-1,0,-2,0
1528875855084650,1,-1,0,0,2,0,0,0
1528875855084650,0,1,0,-1,-1,-1,0,-1
1528875855092660,-1,1,-2,0,0,-3,-1,-1
1528875855092660,0,1,-1,-1,0,0,-1,0
1528875855106928,-1,-2,-1,1,-2,1,0,1
1528875855106928,1,-1,-1,0,0,-2,-1,0
1528875855115190,1,-2,0,0,0,0,-1,-1
1528875855115190,0,-2,1,-1,-1,0,-1,-2
1528875855130136,-2,-1,0,-1,-2,0,-2,-1
1528875855130136,1,1,-1,0,-1,0,-1,0
1528875855144844,-1,0,0,1,0,0,-1,0
1528875855144844,1,-1,0,-1,-3,-1,-1,-1
1528875855152073,-1,-1,0,0,0,-1,-2,-2
1528875855152073,0,1,-3,1,-1,-2,1,-1
1528875855167332,-2,0,-1,-1,-1,-1,-1,0
1528875855167332,-2,-1,-1,-1,-1,1,0,-2
1528875855175079,1,1,1,0,-1,1,-1,0
1528875855175079,2,-2,-2,-1,0,1,0,-1
1528875855189812,0,-1,-1,-2,0,0,0,-1
1528875855189812,-1,1,0,-2,0,-2,-1,-1
1528875855204767,-1,-1,-1,0,0,1,-1,-1
1528875855204767,0,-1,0,0,-1,-1,-2,1
1528875855211486,-1,-2,0,-1,-2,-1,0,-1
1528875855211486,-2,-1,-2,0,-1,-1,-2,0
1528875855226818,-1,-1,-1,0,1,-1,1,0
1528875855226818,-2,0,-1,-1,-1,0,-2,-1
1528875855235037,0,-1,-1,-2,0,0,-1,-1
1528875855235037,-1,-1,0,-1,-1,0,0,0
1528875855257083,-4,-1,0,-1,-1,-2,1,1
1528875855257083,-1,-1,1,-1,-2,-1,-1,-1
1528875855271823,-1,-1,-2,0,-1,1,-1,0
1528875855271823,-1,0,-1,-1,-2,-2,-2,0
