timestamp,emg1,emg2,emg3,emg4,emg5,emg6,emg7,emg8
1528187838805351,-4,0,-10,14,10,4,3,4
1528187838805351,0,-2,-5,-3,2,-2,-2,1
1528187838805351,1,0,-4,-6,4,0,1,1
1528187838805351,-4,-1,3,-7,-11,-4,-1,-4
1528187838810339,0,0,28,-16,-8,-5,-2,-5
1528187838810339,3,-2,-7,5,-4,-3,-1,3
1528187838811336,1,-3,-23,-6,-1,-3,-3,-2
1528187838811336,2,-2,0,1,5,2,-1,1
1528187838847241,-2,1,7,9,4,-2,-3,6
1528187838847241,-4,2,8,-6,4,1,-1,-6
1528187838848237,-1,-1,-11,1,-6,3,1,0
1528187838848237,0,-1,-3,-22,-7,-3,-4,-2
1528187838850232,5,0,3,-3,-3,-1,1,1
1528187838850232,0,2,8,30,4,3,4,0
1528187838871180,-2,0,4,0,9,-1,0,-1
1528187838871180,-5,-6,-11,-7,-10,-3,-1,-5
1528187838877160,-1,-6,-23,-30,-9,-3,-6,-5
1528187838877160,2,0,5,13,-9,-2,2,2
1528187838878156,3,2,8,0,1,-2,-2,1
1528187838878156,-2,0,5,6,-6,-2,1,3
1528187838880151,-5,-2,-6,-7,13,2,-1,-3
1528187838880151,-1,2,11,-11,2,2,-5,-7
1528187838892233,3,-2,14,56,9,1,-1,1
1528187838892233,0,1,-10,-24,-5,-5,-2,-1
1528187838893234,-2,-2,-15,7,-10,-2,-3,-5
1528187838893234,-4,-6,-11,-9,8,-2,0,-2
1528187838915171,-1,-5,-9,-74,-26,-6,-5,2
1528187838915171,1,2,3,44,4,-4,5,2
1528187838918165,-3,3,15,21,9,4,3,2
1528187838918165,3,-1,7,20,13,3,0,1
1528187838928142,-5,-3,-20,-45,-40,-7,-5,-1
1528187838928142,0,-1,5,-11,15,1,-4,-11
1528187838938112,3,-3,-6,26,10,-1,-2,1
1528187838938112,-5,-2,11,-7,4,2,-1,-2
1528187838977011,5,0,-7,-1,-22,-8,-2,5
1528187838977011,-2,-2,-10,-42,-15,-10,-3,-2
1528187838978004,-8,-8,-6,-2,-4,5,-1,-2
1528187838978004,0,1,2,2,4,2,0,-3
1528187838980995,1,3,4,-9,10,3,5,2
1528187838980995,-2,2,7,20,0,-3,-6,-5
1528187838981993,4,3,-3,8,10,1,2,1
1528187838981993,-1,-4,-19,14,-22,-8,-3,1
1528187838989013,-2,-6,-6,-79,4,-1,-1,-4
1528187838989013,3,2,-1,27,-4,3,0,0
1528187838994958,0,4,17,67,29,4,0,-2
1528187838994958,6,2,10,-43,-36,4,1,1
1528187839002958,-1,0,8,20,20,-3,8,2
1528187839002958,3,-3,-11,33,-6,11,2,3
1528187839018948,2,0,-11,-50,1,-6,-3,-2
1528187839018948,-7,-5,-7,2,2,-4,1,-4
1528187839026872,0,-2,5,-8,-13,-11,-7,-3
1528187839026872,-1,0,-12,-63,-17,3,6,0
1528187839048872,6,3,21,77,12,20,18,9
1528187839048872,-7,-6,5,54,23,-23,-32,-8
1528187839050808,-3,-2,-9,-65,1,2,8,-5
1528187839050808,0,-2,11,20,-6,16,29,6
1528187839062783,-1,-1,-18,-48,-30,-31,-34,-4
1528187839062783,0,-2,-10,-41,-2,-17,-27,-9
1528187839071753,-4,-6,1,37,6,22,-6,-5
1528187839071753,1,8,16,50,24,6,1,1
1528187839101726,-2,-9,-6,-37,-10,8,28,2
1528187839101726,1,-6,-1,-22,-9,-1,10,3
1528187839103705,-7,7,-14,10,-22,-27,-25,-4
1528187839103705,-1,-10,-9,-4,8,34,6,-3
1528187839109651,3,-7,3,-5,11,-2,58,12
1528187839109651,-2,19,4,19,4,-14,28,8
1528187839110650,0,-3,3,3,-7,-10,-87,-15
1528187839110650,-6,1,-3,-28,-7,-32,-71,-14
1528187839122647,-4,3,3,2,-13,-9,-4,-12
1528187839122647,5,-10,-16,-37,3,30,124,23
1528187839131593,-1,2,21,35,2,-19,-25,15
1528187839131593,-11,6,-3,4,7,-12,-67,-40
1528187839145592,-2,-10,-18,-15,-11,-84,2,-16
1528187839145592,1,-16,10,18,6,71,16,5
1528187839154536,3,28,11,-8,-6,27,58,19
1528187839154536,-7,-22,-15,-11,-2,12,1,10
1528187839168494,-4,-5,-2,-61,-26,-3,-14,-16
1528187839168494,-4,-14,-5,46,23,-27,-4,-14
1528187839185486,3,-5,16,47,13,18,-10,-6
1528187839185486,7,35,16,-16,-1,17,36,20
1528187839185486,-1,-8,-20,-22,-15,-5,-15,10
1528187839185486,-4,5,1,-31,-14,-20,-37,-5
1528187839191432,-1,-17,10,14,-4,-30,55,2
1528187839191432,0,0,4,13,5,22,9,7
1528187839206392,-4,0,-14,-7,6,12,-63,-14
1528187839206392,0,-8,-34,-7,-12,-6,-12,-3
1528187839208387,-5,-7,-10,-13,-5,3,-11,-8
1528187839208387,4,-17,18,14,0,-33,63,9
1528187839236313,6,9,22,29,19,36,11,14
1528187839236313,-1,27,1,-19,-1,-15,-82,-11
1528187839238308,-9,-2,-34,-27,-18,30,12,-16
1528187839238308,-5,-4,17,13,-2,-54,4,2
1528187839244292,0,1,20,15,6,36,74,9
1528187839244292,5,16,-4,-12,7,10,-41,1
1528187839267266,1,5,-9,-17,-6,-16,4,-10
1528187839267266,0,-9,-30,-10,1,16,-11,-8
1528187839268228,8,43,31,0,-4,4,-21,22
1528187839268228,4,-10,-15,-1,-5,-11,56,5
1528187839270259,-15,-32,13,32,14,-1,-48,6
1528187839270259,-9,37,9,-10,-5,-15,-72,-30
1528187839289171,8,2,-17,-3,-1,-7,32,-2
1528187839289171,0,-1,6,0,1,15,0,3
1528187839291203,13,-35,-6,22,9,15,25,6
1528187839291203,8,-61,-17,-6,3,-11,18,7
1528187839303134,-22,61,15,-11,-7,3,-12,-12
1528187839303134,-3,24,33,6,5,18,82,24
1528187839319096,1,-3,-29,-4,4,-23,-87,-24
1528187839319096,15,-5,3,-12,-7,-20,45,-1
1528187839326094,-19,-21,-11,9,1,-1,-20,-11
1528187839326094,-13,-71,6,17,10,8,29,-9
1528187839334052,-14,1,4,-12,-2,6,13,6
1528187839334052,1,41,13,-9,6,14,-1,2
1528187839349048,59,-33,-11,10,7,12,40,16
1528187839349048,-21,-33,-17,-2,-4,-4,-61,-10
1528187839351043,22,56,16,-17,-7,-5,6,-19
1528187839351043,-33,-4,-4,-2,4,-23,-14,1
1528187839371951,40,2,2,4,-1,-4,14,28
1528187839371951,-56,-5,3,-1,2,2,-4,-2
1528187839372970,-3,-53,-22,-9,-6,4,16,4
1528187839372970,16,3,-4,3,-11,-1,-46,2
1528187839401870,-37,-14,-4,-6,-11,-31,-5,-12
1528187839401870,10,12,5,16,9,-15,24,11
1528187839402868,-3,19,7,5,5,42,103,-2
1528187839402868,-1,2,1,-10,-5,5,-63,-9
1528187839408852,-6,-19,-6,5,-1,0,-18,-34
1528187839408852,16,7,-4,-13,0,-13,14,-15
1528187839410846,-8,-15,-11,-13,-18,-19,19,1
1528187839410846,-6,17,-4,1,-14,-12,51,8
1528187839438775,3,5,4,9,-15,17,6,11
1528187839438775,-1,17,7,9,1,-7,-81,-9
1528187839440769,18,12,1,-20,3,-11,-7,5
1528187839440769,-28,-20,-12,13,5,-13,-4,-12
1528187839453896,-34,-7,-9,-23,-9,-15,46,18
1528187839453896,17,20,15,23,7,57,-68,-37
1528187839455727,17,-17,1,-2,5,-24,7,42
1528187839455727,-25,-7,-21,-12,-23,9,0,-17
1528187839469689,15,6,-2,0,20,-11,108,12
1528187839469689,4,12,8,10,2,17,-40,12
1528187839470690,-9,24,17,-2,-4,-1,-73,-27
1528187839470690,24,9,32,30,4,26,74,13
1528187839482655,-40,-12,-25,7,-3,20,-58,-1
1528187839482655,-5,-21,-23,-30,-21,-26,99,13
1528187839491631,-13,7,-3,-7,3,-20,-78,-18
1528187839491631,2,-5,1,-18,5,-24,21,-9
1528187839514579,14,-1,14,31,11,19,11,-6
1528187839514579,9,7,30,-8,2,13,24,4
1528187839515603,-14,-2,-23,2,-10,-23,2,-12
1528187839515603,1,-22,6,-18,6,13,27,5
1528187839529530,-10,-4,-13,-12,-3,-7,-64,-10
1528187839529530,5,-2,-4,-3,-7,-7,2,0
1528187839530566,10,-3,1,17,9,23,88,22
1528187839530566,1,3,6,2,11,38,-59,-7
1528187839542495,22,0,-7,-19,-7,-29,-31,-11
1528187839542495,-3,6,4,-9,-16,-24,45,9
1528187839566487,3,-2,-26,19,5,13,-38,-4
1528187839566487,7,5,-6,8,9,-1,-16,-1
1528187839567441,-6,0,-5,-12,0,3,-23,-3
1528187839567441,7,-4,-4,-8,-5,-15,18,0
1528187839572467,-7,-7,13,-11,-6,-20,42,5
1528187839572467,13,16,57,-10,-13,26,44,23
1528187839597347,-14,-10,-34,-3,6,-19,-96,-35
1528187839597347,2,-7,-39,17,4,-3,-22,-6
1528187839603384,-5,2,36,5,-3,5,6,1
1528187839603384,3,0,-6,-15,-7,-8,28,6
1528187839604329,-15,-24,-27,-9,-10,3,20,0
1528187839604329,7,14,-17,10,11,-4,-30,1
1528187839612360,-9,-5,-9,8,4,2,7,-6
1528187839612360,-2,-27,2,-8,-5,-7,16,7
1528187839634289,-1,13,27,-2,-3,8,-5,-1
1528187839634289,-9,-4,-17,-11,-5,-9,26,-1
1528187839651206,32,9,-1,10,1,1,-38,7
1528187839651206,-18,-9,10,4,9,-3,-8,-5
1528187839652201,-2,13,-12,5,2,5,3,-2
1528187839652201,6,-30,3,0,1,7,34,5
1528187839655251,-4,-12,-17,-15,-7,1,-4,1
1528187839655251,-5,36,-23,-10,-8,-22,-33,-13
1528187839663229,-2,-9,41,21,2,1,0,0
1528187839663229,12,4,29,18,7,3,-1,4
1528187839679129,-7,-4,-1,-6,1,9,15,-1
1528187839679129,11,-18,-17,-13,-3,-3,-9,6
1528187839686111,-23,-17,-5,-16,-9,-3,6,-8
1528187839686111,2,67,-9,-14,-8,-8,-25,-11
1528187839710102,9,-38,8,4,2,2,9,1
1528187839710102,-36,-2,-44,6,5,7,6,-2
1528187839711102,8,10,37,-3,0,3,6,6
1528187839711102,-7,-19,2,4,-2,-4,-22,-7
1528187839712091,3,16,3,-7,-1,0,14,4
1528187839712091,1,13,13,3,1,2,25,8
1528187839731048,7,-41,-11,9,4,0,-16,-5
1528187839731048,-13,10,-17,3,0,-3,-17,-4
1528187839738996,-6,33,12,-7,-4,-3,0,-6
1528187839738996,23,-11,-11,-5,-2,-7,-6,5
1528187839761966,-12,3,4,4,3,11,16,3
1528187839761966,0,-7,-10,-4,0,-5,-16,-1
1528187839762962,-13,-29,-6,-2,-3,-3,18,-1
1528187839762962,-14,-7,-17,3,-2,-4,-26,-9
1528187839768942,0,-17,3,5,0,0,0,1
1528187839768942,-4,38,41,-2,1,3,8,1
1528187839770885,-27,7,-15,1,1,3,0,-6
1528187839770885,-12,-30,-10,-4,-3,-3,-1,-4
1528187839791829,5,8,-12,-5,-4,-2,6,4
1528187839791829,10,-32,15,0,2,10,28,1
1528187839793858,10,23,-8,0,0,14,-52,-9
1528187839793858,-1,9,16,9,2,-30,2,11
1528187839805980,-1,12,-18,2,-2,9,57,14
1528187839805980,20,5,16,-13,-12,-32,-56,-1
1528187839812975,-38,-13,-8,-8,1,7,44,-18
1528187839812975,19,1,0,7,-5,0,-9,8
1528187839837053,9,-13,-7,2,-4,-43,-77,-8
1528187839837053,-9,7,5,8,-1,23,34,1
1528187839844167,22,16,11,13,19,25,0,10
1528187839844167,17,-15,-10,-3,1,7,1,-11
1528187839852289,-14,-18,-6,-3,-4,5,38,6
1528187839852289,18,0,-12,-19,-6,-20,-63,-1
1528187839853106,-21,35,9,-10,-16,-20,11,-7
1528187839853106,0,-9,6,28,2,-2,-30,-13
1528187839874270,24,20,6,-8,20,14,-1,8
1528187839874270,2,-34,-13,-14,-23,-4,9,2
1528187839876253,-32,-42,-2,14,6,17,60,13
1528187839876253,9,13,-18,-10,8,-11,-26,0
1528187839889217,3,20,23,-16,-5,20,47,-3
1528187839889217,-11,12,5,44,7,-2,-74,-4
1528187839891214,71,21,10,8,10,-16,38,0
1528187839891214,-72,-56,-21,-25,-26,-18,-35,-34
1528187839912290,-7,18,3,8,5,-4,-17,4
1528187839912290,3,-13,-1,-8,0,-37,-4,-15
1528187839913154,-14,-2,-2,1,3,52,-10,7
1528187839913154,19,18,-3,4,-9,33,50,13
1528187839926320,16,8,9,-26,2,-6,-5,9
1528187839926320,-16,-6,-13,8,-6,-19,-37,4
1528187839935294,12,-4,-7,-11,-5,-43,-53,-23
1528187839935294,74,21,12,15,13,11,44,-4
1528187839948420,-82,-30,-5,31,7,19,33,-12
1528187839948420,-3,0,2,-7,10,4,1,-9
1528187839964218,0,-40,-13,-19,-14,-6,41,6
1528187839964218,-2,26,-5,-19,-3,-3,-53,-1
1528187839972298,17,7,-25,20,-10,-19,-9,-9
1528187839972298,-8,-19,-41,9,13,14,19,1
1528187839973194,-2,11,4,-13,-3,-4,0,2
1528187839973194,5,-3,22,-28,-15,7,86,22
1528187840002119,1,-15,1,26,1,-7,-67,-3
1528187840002119,-13,28,37,-12,-1,10,-9,-12
1528187840003114,10,14,0,-2,-2,-5,-10,6
1528187840003114,2,5,1,4,7,-11,-18,2
1528187840008104,12,1,-3,-13,-7,2,-1,-7
1528187840008104,22,-3,3,-18,-7,10,49,12
1528187840017077,-36,-4,1,10,1,0,12,4
1528187840017077,-4,16,22,18,4,-8,-43,-5
1528187840039174,-8,-14,-24,-15,-8,-8,-1,-13
1528187840039174,1,-23,-41,-7,-1,1,17,1
1528187840041012,10,-9,-19,18,1,-11,-21,4
1528187840041012,-9,5,-1,-5,2,8,13,2
1528187840061381,15,0,10,-19,-12,-2,-3,2
1528187840061381,15,-11,33,2,-1,-1,2,3
1528187840078406,21,10,2,-9,-7,1,35,11
1528187840078406,-27,7,18,7,4,-1,-49,-11
1528187840079247,27,-7,-23,8,0,-9,-5,-3
1528187840079247,-21,8,-3,-11,-5,1,7,-2
1528187840083242,5,1,-7,3,-1,-1,-10,-2
1528187840083242,-11,-6,-14,-1,-2,-5,16,1
1528187840121279,-4,5,4,-10,-5,-2,-7,-1
1528187840121279,-3,0,-3,12,9,-3,17,0
1528187840131188,-3,-8,0,6,-1,16,-5,5
1528187840131188,5,-4,1,-3,4,12,4,5
1528187840132106,0,-3,4,0,-4,2,25,0
1528187840132106,-6,0,-2,-6,-6,-5,-47,-5
1528187840153191,-4,6,12,-1,2,-15,-20,-14
1528187840153191,6,-5,-9,0,0,-22,33,6
1528187840154048,-1,-2,-5,2,0,27,-9,3
1528187840154048,-8,-11,-2,2,0,5,-3,-5
1528187840155181,-11,22,2,-13,-8,-2,16,-4
1528187840155181,-4,-12,-6,-5,-6,-6,-44,-5
1528187840159034,-5,2,1,1,-3,-19,14,-5
1528187840159034,0,-4,-8,2,3,3,11,2
1528187840161032,1,-6,1,-1,-5,-6,-19,-2
1528187840161032,5,8,0,-1,3,5,17,2
1528187840181984,2,11,1,-4,6,4,-8,0
1528187840181984,-1,-9,-4,-9,-4,3,8,0
1528187840182973,-4,-8,-3,4,-2,-8,-10,0
1528187840182973,-1,-5,1,-2,-5,4,5,3
1528187840187959,-4,7,-2,1,-3,-5,-4,2
1528187840187959,-9,-3,11,1,4,13,30,-6
1528187840213001,1,-1,-4,-2,-3,-12,-37,-2
1528187840213001,-3,-3,-6,1,-3,-9,-24,-9
1528187840213887,6,5,9,1,8,2,-8,-1
1528187840213887,-9,5,-2,-1,0,2,23,-3
1528187840218033,-3,-5,0,2,2,4,1,2
1528187840218033,2,-11,-10,2,-2,1,6,5
1528187840234988,0,3,3,-4,-1,-1,14,3
1528187840234988,-2,6,4,1,-4,2,-13,6
1528187840236982,-1,-7,2,1,-1,-2,-10,-7
1528187840236982,32,-4,-19,-2,1,1,8,-3
1528187840255918,-12,-1,9,-1,2,3,9,13
1528187840255918,-22,-4,-3,-2,-7,-8,-12,-9
1528187840264752,-20,-3,-4,-6,-2,-7,-23,-14
1528187840264752,7,2,0,4,0,4,13,23
1528187840271733,15,-3,4,2,9,-2,-9,-34
1528187840271733,5,-8,-2,-3,-16,-4,6,23
1528187840296666,-9,1,0,1,-4,-2,-4,-16
1528187840296666,-8,2,-3,-3,-1,-5,8,-2
1528187840297820,13,-2,-4,1,1,1,-9,8
1528187840297820,-6,6,5,4,3,-7,-2,-9
1528187840300812,9,-9,-3,-8,-7,-10,7,1
1528187840300812,-10,-10,-2,-6,-7,9,4,-13
1528187840316613,-4,9,6,0,-2,-3,-8,35
1528187840316613,-8,-4,-7,-6,4,0,9,1
1528187840318635,4,0,-2,3,-2,3,-8,7
1528187840318635,-1,-1,-1,2,0,-8,-5,-9
1528187840330751,-4,-1,-2,-2,-5,-6,-7,4
1528187840330751,4,2,-5,-9,-21,-7,5,-5
1528187840338170,1,-10,3,-7,8,-1,3,5
1528187840338170,-18,-3,-11,7,4,6,0,-4
1528187840354128,-2,4,3,-5,-11,5,-2,16
1528187840354128,4,-2,-6,2,15,0,-3,-14
1528187840355981,11,-11,-4,7,8,-3,-4,-2
1528187840355981,-17,9,2,0,1,3,-1,-5
1528187840376924,-1,-1,-1,-3,3,-7,-6,-1
1528187840376924,14,-1,1,6,-10,2,1,4
1528187840377926,-24,11,-3,-4,-6,0,2,-3
1528187840377926,-1,-8,0,0,0,-1,0,6
1528187840399871,-4,4,4,0,-8,-2,-2,-17
1528187840399871,-2,1,-10,2,4,-2,-4,-11
1528187840400861,11,5,6,-3,-2,3,4,10
1528187840400861,2,-6,-4,-1,12,-5,-2,10
1528187840414855,-12,-4,-6,-1,-2,3,-1,-12
1528187840414855,23,0,5,5,1,-3,-14,-3
1528187840415835,-20,-6,7,7,2,12,21,-2
1528187840415835,-3,-7,-8,-7,-1,-12,-3,11
1528187840435927,1,2,0,-7,-10,-3,-4,-15
1528187840435927,-1,3,2,1,17,10,13,30
1528187840444743,9,5,3,7,0,2,-7,-29
1528187840444743,4,-5,4,-2,-10,1,-3,-11
1528187840450885,-5,-4,-4,-2,6,-1,0,-5
1528187840450885,-6,3,-4,-4,-4,-2,-3,-4
1528187840459710,3,-1,-15,-9,-14,-6,-4,11
1528187840459710,6,-1,-2,-5,9,-1,4,-7
1528187840474821,-3,-1,18,14,-17,1,-3,-2
1528187840474821,2,-2,4,-2,2,-6,0,12
1528187840476691,5,0,-5,7,7,2,4,15
1528187840476691,4,-5,-14,-9,-1,-3,-3,0
1528187840504718,-7,-3,-2,-12,-6,0,-1,-8
1528187840504718,-12,0,-3,-1,5,-2,-3,-12
1528187840505617,5,-6,2,2,-5,-4,-5,-1
1528187840505617,3,7,8,-13,-9,2,-1,6
1528187840510704,-7,-2,1,25,9,0,0,-5
1528187840510704,7,-5,1,-19,-1,3,5,1
1528187840519544,-4,-1,-4,7,10,0,-5,-1
1528187840519544,-6,2,6,12,1,2,3,-9
1528187840534504,3,-3,-5,-7,7,-5,-4,4
1528187840534504,-7,-3,-4,-5,-21,-5,-3,-14
1528187840535623,1,1,-4,-12,-9,-5,-3,12
1528187840535623,-4,3,3,-5,-3,1,3,-5
1528187840556590,-2,-6,-8,-3,1,-4,-7,-1
1528187840556590,2,0,-4,4,1,4,3,-5
1528187840558450,9,-2,3,-3,7,1,-2,-2
1528187840558450,-5,0,-3,4,-9,-1,-4,-3
1528187840570549,3,1,-3,-4,1,-1,1,-3
1528187840570549,4,-7,-1,-3,2,-1,-5,-2
1528187840585731,1,-2,-2,1,-3,-4,-3,3
1528187840585731,-1,-3,0,5,4,0,-2,-3
1528187840594594,-1,-1,-2,-6,-2,0,2,3
1528187840594594,1,2,6,1,2,-1,4,0
1528187840600691,-5,-1,-1,1,0,-2,-2,-6
1528187840600691,0,-1,-3,-2,-3,-1,0,0
1528187840616855,8,-2,0,-2,3,0,1,1
1528187840616855,-6,5,1,7,2,1,0,6
1528187840618687,-3,-5,-5,-3,-2,0,-4,1
1528187840618687,-7,2,2,-1,2,3,5,-2
1528187840630793,2,-3,-4,-5,-7,-1,1,1
1528187840630793,-2,1,0,-1,-1,-2,-4,-6
1528187840646649,1,2,-3,-1,1,1,-1,2
1528187840646649,2,-3,-1,-2,-3,-2,-2,-3
1528187840661735,2,3,0,0,0,0,2,8
1528187840661735,-4,0,0,-1,-2,-2,-3,8
1528187840663567,-1,-4,-2,-6,-4,-5,-5,-8
1528187840663567,-8,6,3,2,0,2,-1,2
1528187840676533,0,-7,-4,-2,-4,-2,-1,-4
1528187840676533,-6,-3,0,-3,1,-2,-2,-8
1528187840678528,-8,2,4,2,0,3,9,2
1528187840678528,2,-3,-5,-2,-1,-3,-1,2
1528187840690637,4,-1,-4,-3,1,-1,-3,-2
1528187840690637,-11,5,0,0,-1,-3,0,-2
1528187840707450,-2,-2,0,-1,-1,-2,-1,-4
1528187840707450,1,1,1,-1,-2,-2,-1,-3
1528187840713434,-5,1,3,-4,0,-1,0,-3
1528187840713434,-6,-1,-5,5,0,-1,0,1
1528187840722435,-3,0,-3,0,-1,-1,-4,-6
1528187840722435,-5,-2,-2,0,1,-2,-2,-6
1528187840736373,5,0,-1,-3,-3,-2,-5,2
1528187840736373,2,-1,1,-4,-2,0,1,-4
1528187840738373,-2,-1,0,-2,0,-2,0,5
1528187840738373,3,0,2,-3,0,1,0,-3
1528187840759311,-6,-3,-6,-3,-2,-3,-3,4
1528187840759311,3,-4,-3,0,-3,-2,1,-2
1528187840761306,-5,-1,-2,-2,-2,1,0,-14
1528187840761306,-1,-4,-4,-2,-3,-2,-2,-1
1528187840774428,-4,2,-5,-2,-2,0,2,4
1528187840774428,-14,6,4,3,1,2,1,-3
1528187840776285,-2,0,1,-1,-1,-1,-3,1
1528187840776285,5,-2,1,-2,-1,-1,-2,-2
1528187840797278,-4,-4,-1,0,-1,-2,-5,-5
1528187840797278,8,-3,-3,-2,-2,-1,-1,4
1528187840798208,-5,1,-1,-1,-1,-1,0,-1
1528187840798208,-3,2,0,1,-1,0,0,0
1528187840819155,-3,-2,-1,-1,-3,-3,0,-7
1528187840819155,4,-4,-1,-5,-3,-3,-4,-2
1528187840821147,4,-2,-1,-1,-1,-1,-2,2
1528187840821147,0,-1,-2,1,-1,0,0,2
1528187840834124,-2,-2,-2,-1,-1,0,2,-2
1528187840834124,2,-2,1,-2,-2,-3,-3,-4
1528187840840124,1,1,-1,-1,-2,-3,-1,3
1528187840840124,1,-2,-3,0,-1,1,1,3
1528187840857102,0,-2,-2,-2,-1,0,-3,-7
1528187840857102,1,-1,0,-1,0,-1,0,-4
1528187840858048,4,0,-4,-2,-3,-3,-5,2
1528187840858048,-3,-3,-2,1,-1,-1,-1,-7
1528187840870070,-5,1,-1,-1,1,0,1,3
1528187840870070,4,-7,-5,-2,-2,-1,-2,-2
1528187840878999,1,-1,-1,-1,1,-1,1,-2
1528187840878999,-2,-1,0,-4,-2,-2,-2,-2
1528187840894005,5,0,1,0,0,-1,0,1
1528187840894005,-5,4,-1,-3,-1,-2,-3,1
1528187840899996,0,-1,1,-1,0,1,0,1
1528187840899996,0,-1,-2,0,-2,-2,-3,-5
1528187840916948,-1,1,1,-1,-2,-1,0,1
1528187840916948,2,-3,-2,-1,-1,0,-1,2
1528187840917897,7,-9,-1,-2,-1,-3,-2,-1
1528187840917897,0,2,-1,0,-1,0,-1,-2
1528187840930852,-4,-3,-1,0,-1,-1,0,-8
1528187840930852,2,-1,-1,-3,-1,-1,0,9
1528187840939829,-1,-2,-3,-3,-2,-2,-1,-2
1528187840939829,1,1,-1,-2,-1,1,2,3
1528187840953793,-2,1,0,-2,0,0,-2,-4
1528187840953793,7,-3,-2,0,1,2,6,1
1528187840955790,-3,1,-1,1,1,-1,3,2
1528187840955790,-5,-3,0,0,-3,-3,-4,-12
1528187840976730,-11,5,-1,0,-2,0,-2,-3
1528187840976730,-3,3,0,-1,-1,0,-1,-4
1528187840984760,2,0,-2,-1,-1,-1,-2,1
1528187840984760,-1,-2,-2,-1,1,-1,-1,1
1528187840990741,8,-6,-1,0,-1,-4,-3,7
1528187840990741,1,-4,-1,0,-2,-1,-2,-4
1528187840999670,-5,1,-1,-2,-1,-2,-2,-5
1528187840999670,-3,0,0,-1,1,-1,0,1
1528187841013673,7,-4,-1,0,0,0,-1,-3
1528187841013673,3,2,-2,-2,-1,-2,-1,1
1528187841020658,-4,0,-1,-2,-1,2,-2,-10
1528187841020658,5,-6,-4,-1,-1,-4,-1,9
1528187841037614,4,0,-3,-1,-2,-2,-1,4
1528187841037614,-1,-3,-3,0,-2,-1,-4,-1
1528187841042598,-3,-1,-1,-1,1,1,3,1
1528187841042598,-11,-3,-2,-2,-1,0,-1,-4
1528187841050581,-3,0,1,1,1,-2,-1,-5
1528187841050581,-4,-3,0,-1,-2,-4,-5,-6
1528187841059509,-4,0,0,-1,-2,-1,-2,-3
1528187841059509,6,-2,0,0,-1,1,-1,4
1528187841073524,-8,7,1,-1,-1,0,2,3
1528187841073524,-7,1,0,-1,1,0,-1,-6
1528187841080508,3,-2,0,-2,0,-2,-4,1
1528187841080508,7,-5,-1,-3,-2,-2,-1,-2
1528187841096445,3,-1,-1,-2,-2,0,-1,0
1528187841096445,4,-3,-2,-1,-2,0,1,1
1528187841098405,-12,9,-2,-2,-3,-1,0,1
1528187841098405,-11,-1,0,-2,-1,-1,-2,-12
1528187841110400,2,-1,1,0,-2,-2,2,-4
1528187841110400,0,-4,-1,-1,-2,-2,-1,1
1528187841119363,4,-5,-1,0,0,-1,0,4
1528187841119363,0,-1,-1,1,-1,-2,-3,0
1528187841133348,1,-1,-1,-3,0,-2,-2,-6
1528187841133348,-7,-2,-1,-3,-1,0,2,3
1528187841148399,2,-2,-1,0,-1,-1,-1,3
1528187841148399,0,-6,-2,-1,0,-1,-2,0
1528187841157252,0,-1,0,0,0,1,2,1
1528187841157252,-2,0,-1,0,-1,-2,-1,-5
1528187841158245,-2,-2,0,0,1,-1,-1,0
1528187841158245,-1,5,-1,1,-1,-1,0,2
1528187841179357,-1,-6,-1,-1,-2,-1,-5,-4
1528187841179357,-4,-1,-1,-2,-1,-1,1,0
1528187841181184,-1,-2,-1,-1,-2,-4,-1,-2
1528187841181184,1,2,-1,-1,0,0,1,-1
1528187841193518,-2,-2,-1,0,-2,-1,-1,0
1528187841193518,0,1,0,0,-1,-2,0,-1
1528187841200494,2,1,-1,0,0,2,2,5
1528187841200494,-7,-1,0,1,-2,-2,2,-2
1528187841216297,-13,11,1,0,1,0,2,-1
1528187841216297,-1,-1,-2,-1,0,1,1,1
1528187841218289,2,-1,-1,-2,-1,-3,-1,-5
1528187841218289,-1,-2,-1,-2,-1,0,-3,1
1528187841230420,3,-4,-3,-2,-2,-1,-2,0
1528187841230420,-2,-1,-1,-1,-3,-3,-5,-2
1528187841239233,-1,-4,-2,-1,-2,-1,-4,-3
1528187841239233,-3,2,-3,-1,-1,0,0,2
1528187841262301,1,-3,-2,-3,-2,-1,1,-2
1528187841262301,0,-1,-2,1,0,-2,-1,0
1528187841263219,0,0,0,1,-3,0,-2,-3
1528187841263219,-1,1,1,-1,0,-1,1,1
1528187841276345,2,-4,-4,-1,0,-2,-2,0
1528187841276345,0,-1,-1,-2,0,-1,-3,-2
1528187841278340,-2,-2,-1,1,-1,-3,-1,-2
1528187841278340,-1,2,2,-2,0,0,-1,0
1528187841299630,-7,-2,0,-1,-1,0,-1,-3
1528187841299630,1,1,-1,-1,-1,0,1,0
1528187841300628,-2,1,-3,-1,0,1,3,-2
1528187841300628,-1,-2,0,1,0,-2,-3,-1
1528187841322421,1,-4,-1,-1,-1,-3,-2,1
1528187841322421,-4,-2,-1,-1,0,1,-1,-2
1528187841323556,-1,-2,-1,-1,-1,2,-6,-3
1528187841323556,-1,1,-2,-1,-2,0,10,0
1528187841336414,2,3,-2,0,1,-1,2,-2
1528187841336414,11,-1,1,0,-1,-3,-30,7
1528187841344362,-9,2,-1,-1,0,-12,-21,-5
1528187841344362,-16,-5,-2,-2,-1,12,2,1
1528187841358325,-1,-5,-1,-2,-2,0,66,5
1528187841358325,1,0,-2,-1,0,11,54,6
1528187841366550,8,-2,1,-1,-2,1,9,5
1528187841366550,3,1,0,-1,-3,-16,-88,-14
1528187841374520,-9,0,1,1,-1,-6,-40,-16
1528187841374520,0,0,-2,-3,-1,-4,7,5
1528187841375543,-1,-1,-3,-2,-3,-7,-10,-6
1528187841375543,2,0,-2,-1,-1,0,-4,-1
1528187841396587,1,1,0,0,0,1,-7,-1
1528187841396587,-4,-1,-1,3,-1,-1,2,-3
1528187841398435,-5,-2,0,-1,2,8,26,9
1528187841398435,6,0,-2,0,-1,2,27,13
1528187841427348,0,-2,-3,-3,-1,-1,-22,-4
1528187841427348,-5,-1,0,0,-2,-3,-5,-9
1528187841428345,-5,-4,-3,-3,-3,1,5,-8
1528187841428345,-1,0,-1,-1,0,-4,-8,4
1528187841432694,0,0,0,0,-1,0,14,3
1528187841432694,-3,-2,-1,-1,0,-1,-23,-7
1528187841441645,1,-1,-2,-1,-2,0,10,1
1528187841441645,0,-3,-2,-1,-1,-5,3,-5
1528187841456472,-4,-4,-2,0,-1,0,13,-1
1528187841456472,-3,0,0,-1,-1,-3,-9,-5
1528187841458463,0,-1,2,0,-1,0,-13,-4
1528187841458463,-1,1,0,-1,0,2,15,-3
1528187841479606,1,-1,-1,-3,-2,1,-8,10
1528187841479606,1,-3,-3,-1,-1,-4,-13,-3
1528187841480404,1,-2,-2,-1,-1,-2,-6,2
1528187841480404,-2,-2,-2,-2,-1,-1,19,-2
1528187841492612,0,-1,2,1,-1,-2,-13,-6
1528187841492612,0,-1,-1,-1,-2,1,6,7
1528187841509754,-1,-1,-1,-2,-1,-1,0,5
1528187841509754,1,-2,-2,0,-1,-1,-1,-5
1528187841516734,-1,1,-2,-1,-1,-1,-6,-2
1528187841516734,-1,0,1,1,0,-1,3,-1
1528187841518884,-3,0,-1,0,-1,-4,-6,-2
1528187841518884,-5,-1,-1,-1,-4,-3,7,0
1528187841539816,-1,-1,-1,-1,0,2,2,2
1528187841539816,0,-2,-3,-2,-2,-3,-1,-5
1528187841540676,-2,-2,-3,0,-2,-2,-6,-4
1528187841540676,3,0,-1,0,0,2,2,3
1528187841552841,0,-1,-2,-2,-3,-2,-5,-4
1528187841552841,-3,0,0,0,-1,-1,-3,1
1528187841561690,2,0,1,1,0,3,7,1
1528187841561690,0,-2,-1,-2,-1,0,0,-3
1528187841576654,-1,2,0,-1,0,1,1,2
1528187841576654,0,-3,-4,-1,-4,1,-5,-2
1528187841578644,-1,-1,0,-1,-3,0,-2,-3
1528187841578644,0,-1,0,-1,0,-1,3,-1
1528187841599726,3,0,-1,-1,-2,-2,-2,2
1528187841599726,-7,1,-3,0,-1,0,1,-1
1528187841600658,-2,-1,-2,-1,1,1,0,-2
1528187841600658,-2,-1,-2,0,-2,0,0,-2
1528187841621616,-2,-2,-2,-1,-2,-6,-8,-4
1528187841621616,3,0,1,0,-1,-2,-1,2
1528187841621616,-1,0,0,-1,-1,-1,0,-1
1528187841621616,-5,-1,-2,-1,-2,-3,-6,-4
1528187841636633,-2,-2,-3,-1,0,1,6,1
1528187841636633,1,0,-2,-1,-2,1,1,0
1528187841636633,2,0,0,-1,-3,-6,6,-1
1528187841636633,-4,-1,1,-1,-2,1,-4,-8
1528187841658585,-2,-1,-1,1,-1,0,0,4
1528187841658585,1,1,-2,-3,-2,0,-4,-2
1528187841659429,-3,-2,0,-1,0,0,-5,-2
1528187841659429,0,-1,-1,0,-2,-1,2,2
1528187841682406,-3,-4,-1,-2,-2,-2,-5,-3
1528187841682406,0,-2,-2,-3,-1,-1,0,-4
1528187841682406,2,1,-3,-1,-1,0,-4,1
1528187841682406,-5,-1,2,1,2,0,0,0
1528187841696468,2,0,-1,-3,-1,-1,-5,4
1528187841696468,-9,0,-1,0,-2,-3,-2,-6
1528187841697417,-1,-1,-1,0,-3,-3,2,-4
1528187841697417,-3,-1,0,-1,-1,-2,-2,-2
1528187841718555,2,0,0,1,-3,0,1,0
1528187841718555,0,-3,-2,-1,0,0,-2,-1
1528187841719410,-6,-2,0,-1,-1,0,-5,-3
1528187841719410,4,-1,0,1,-1,-1,2,4
1528187841734362,1,0,-1,-2,0,1,0,-2
1528187841734362,1,-1,0,-1,-1,-2,-2,-2
1528187841741471,-5,-2,-2,1,-1,-2,-2,-7
1528187841741471,1,-2,-1,0,-2,-1,0,8
1528187841756629,4,-2,-1,0,-2,-3,-9,3
1528187841756629,2,-2,0,1,1,2,11,0
1528187841756629,0,-2,-2,-3,1,-4,-1,0
1528187841756629,-4,-1,0,-4,1,4,5,-10
