timestamp,emg1,emg2,emg3,emg4,emg5,emg6,emg7,emg8
1528879261748991,1,-1,0,-1,-1,-2,0,-1
1528879261748991,-2,0,0,-2,-4,-1,-1,-1
1528879261749987,-1,-2,0,-1,1,-3,-1,-2
1528879261749987,0,-1,-2,0,0,-1,0,0
1528879261750985,-1,-1,-2,0,-4,2,-1,1
1528879261750985,0,-1,-1,0,1,-3,-1,0
1528879261751982,0,-1,1,-1,-2,-1,-1,-1
1528879261751982,-1,-1,0,-1,-3,-1,-2,-1
1528879261763950,-1,0,-2,-1,0,-2,0,-3
1528879261763950,0,-1,-2,0,2,-2,-1,-1
1528879261770932,0,1,-2,-2,-1,0,0,0
1528879261770932,-1,-2,-1,-2,-1,0,-3,-2
1528879261778910,-2,0,-2,-1,0,-2,-2,0
1528879261778910,-2,-2,0,-1,-1,1,-2,0
1528879261791876,-4,-2,-1,-1,-2,-1,0,-2
1528879261791876,-1,0,-1,1,0,-2,-1,0
1528879261804841,0,-1,-1,0,-1,-2,-2,-3
1528879261804841,-1,0,-1,-1,-4,0,-1,-1
1528879261817806,-2,-2,-3,-1,0,0,-2,0
1528879261817806,-1,-2,-3,-2,0,-1,0,-1
1528879261823791,-1,0,0,-1,-1,-1,1,0
1528879261823791,-1,-2,-2,0,-1,-1,-1,1
1528879261836757,-1,-1,0,0,-1,-1,-3,-1
1528879261836757,-2,-1,-1,-2,-2,-1,0,-1
1528879261877646,-1,-1,-1,1,1,-2,-1,-1
1528879261877646,0,-1,0,-1,-2,1,-1,0
1528879261878643,-3,-1,0,-1,-3,1,-1,-1
1528879261878643,-1,-1,-1,0,1,-3,0,-1
1528879261880638,-2,0,-2,-2,-1,-3,-1,-1
1528879261880638,-2,0,-2,-1,-3,-1,0,-1
1528879261884627,1,-1,1,0,3,-4,0,-2
1528879261884627,-1,-2,-1,-2,-3,-3,-1,-2
1528879261889615,-1,-1,0,0,-2,0,0,0
1528879261889615,-1,-1,-2,0,-1,0,-1,-1
1528879261897592,0,-2,-3,-1,0,-2,-1,-1
1528879261897592,0,-2,-2,-2,-1,1,0,0
1528879261904574,0,-2,-1,-1,-3,0,-1,-1
1528879261904574,1,-2,-1,-3,1,-2,-1,-2
1528879261921530,-2,-2,-2,-1,-1,0,0,-1
1528879261921530,-2,-2,-2,-2,-2,1,-2,-1
1528879261927514,-3,-2,-1,-2,-1,-1,0,-1
1528879261927514,0,-1,0,0,-1,0,0,-1
1528879261950452,-2,-1,-1,-1,-2,-3,-1,-2
1528879261950452,-1,-2,-1,-1,-2,-2,-2,-2
1528879261951449,0,1,-2,0,1,-2,0,-2
1528879261951449,-1,-1,0,0,0,0,-1,-1
1528879261964415,-1,-1,1,-3,-1,0,-2,-1
1528879261964415,-1,-2,-1,0,-1,-1,-2,-1
1528879261972393,0,0,-1,-2,-2,0,-3,0
1528879261972393,-2,-2,-2,-3,-1,-3,-2,0
1528879261988350,-1,-1,-2,-1,-3,0,-3,-1
1528879261988350,0,-1,-1,1,-1,-3,-1,-2
1528879261989348,-1,-1,-1,-1,-1,0,0,-1
1528879261989348,-1,-2,-1,0,-2,0,-1,-1
1528879262010310,-1,-3,-1,0,-2,-1,-1,-2
1528879262010310,-1,0,-1,-3,-1,0,-1,-1
1528879262011336,0,-1,-2,0,-2,0,-3,-1
1528879262011336,-2,0,0,0,-1,-3,-1,-1
1528879262024254,0,-1,-3,0,-2,-1,-1,-1
1528879262024254,-2,-2,-2,0,-2,-2,-2,-1
1528879262032233,0,-1,-3,-1,1,-3,0,0
1528879262032233,-1,-2,-1,-1,-2,-2,0,-1
1528879262048191,-2,-1,-1,0,-2,0,1,-1
1528879262048191,0,-1,0,-1,1,-2,1,0
1528879262048191,-1,-2,0,-3,1,-2,0,0
1528879262048191,-1,-1,-2,0,0,-1,0,-1
1528879262072126,-1,0,-2,0,-1,-2,-1,-1
1528879262072126,-2,-1,0,0,-1,0,-2,-2
1528879262072126,-1,-1,-1,-1,-1,0,-1,-2
1528879262072126,0,0,-2,-2,0,0,0,-1
1528879262085091,-1,-2,-2,-2,0,-1,-1,0
1528879262085091,-1,0,-1,-2,-2,1,-1,0
1528879262086089,-2,-1,-1,0,-1,0,-2,-2
1528879262086089,-1,0,0,1,-1,-2,-1,-2
1528879262108030,-3,-3,0,-1,0,-2,-1,-1
1528879262108030,-1,-1,-2,-1,0,0,0,-1
1528879262109028,-2,-2,0,-2,-1,-2,-2,-2
1528879262109028,-1,0,-2,-2,-1,1,-1,-1
1528879262129971,0,1,0,-2,-2,-1,-1,-1
1528879262129971,-1,-1,-2,-1,0,-1,2,0
1528879262130969,-2,-1,-1,-1,-2,0,0,-1
1528879262130969,-2,-1,-1,-2,-2,-1,-1,1
1528879262144931,-2,-2,-1,-1,-2,-1,-2,-1
1528879262144931,0,0,-2,-1,0,-1,-1,-1
1528879262145930,-2,-2,-1,0,-2,-3,0,0
1528879262145930,0,-3,-1,0,0,-1,-1,-3
1528879262167870,-1,0,0,-1,0,-1,-1,-1
1528879262167870,-1,0,-1,-2,-1,-2,-2,-2
1528879262168868,0,-1,-1,-2,0,1,-1,0
1528879262168868,-2,-1,-1,-2,-3,0,0,-2
1528879262189812,0,-1,0,1,1,0,-3,-2
1528879262189812,-2,0,0,0,-1,0,-1,-1
1528879262190809,1,1,0,0,0,0,-2,-2
1528879262190809,-1,-2,-1,-1,-3,-2,-2,0
1528879262205769,0,-3,-2,-1,-3,0,0,-1
1528879262205769,0,-2,1,0,-1,-1,0,-2
1528879262205769,-1,0,-1,1,0,0,1,-1
1528879262205769,0,-2,-1,-2,0,1,-2,0
1528879262227711,-1,1,-1,-1,0,-3,0,-2
1528879262227711,-1,-1,0,0,-2,-1,-2,-3
1528879262228716,-1,0,1,-3,0,-1,1,0
1528879262228716,1,-1,0,0,0,-1,-1,-2
1528879262250649,-1,-1,-1,-2,0,-1,0,-1
1528879262250649,-1,-1,1,-1,-2,0,-2,-2
1528879262250649,-2,-3,-1,-1,-2,-1,-2,-2
1528879262250649,-1,-1,-2,-2,-1,-1,-1,-2
1528879262264612,0,0,-2,-2,0,-2,0,0
1528879262264612,-2,-4,-1,-1,-1,0,1,-1
1528879262272591,0,1,0,0,-1,0,0,-1
1528879262272591,0,-1,1,2,-1,-1,0,-1
1528879262287551,0,0,0,-1,-1,0,-3,-2
1528879262287551,-1,-1,0,-2,-2,-1,-2,0
1528879262288548,0,-2,-2,-2,-1,-1,-1,-1
1528879262288548,-1,0,-1,-1,-1,-1,0,-1
1528879262310490,-2,-2,-2,1,-1,-1,0,-1
1528879262310490,0,-1,-1,-1,-1,-1,-1,1
1528879262311486,-2,-1,-1,-2,-1,-1,-1,0
1528879262311486,-1,0,-1,-1,1,-1,-3,-1
1528879262324452,-1,-3,-2,0,-1,-2,-2,-1
1528879262324452,0,-1,0,-3,-1,-2,-1,-2
1528879262332448,-1,-1,-1,-1,-2,-2,-1,-1
1528879262332448,-1,-1,-1,-1,-1,0,1,-1
1528879262347391,-1,1,0,-1,0,1,1,0
1528879262347391,-1,-1,0,-1,-1,-1,0,0
1528879262348401,-1,-1,-1,-1,-3,-1,-2,0
1528879262348401,-1,-1,-2,-1,-1,-2,1,0
1528879262370330,-1,-1,-1,-1,1,-1,-2,-3
1528879262370330,-1,-1,-2,-1,0,0,0,-2
1528879262371327,-1,-2,-1,-1,-1,1,0,-2
1528879262371327,-1,-1,-2,-1,-2,-2,-1,-1
1528879262384292,0,-1,-1,-1,-2,1,0,2
1528879262384292,-2,0,-2,-1,-1,-3,-2,-2
1528879262392271,0,-1,-1,-1,-1,0,-1,-2
1528879262392271,1,-1,-1,-1,0,-1,0,-2
1528879262407323,-1,1,1,-2,-1,-1,-2,-1
1528879262407323,-1,0,1,0,-3,-2,-2,0
1528879262408486,-1,-1,0,-2,-2,-2,-1,1
1528879262408486,-2,0,0,1,-2,-1,0,-2
1528879262430264,-1,0,-2,-3,-4,-1,-2,-1
1528879262430264,-2,-2,-3,-2,-1,0,-1,-1
1528879262431214,0,-1,-1,2,2,-1,1,-2
1528879262431214,-1,-1,0,0,-1,0,-2,-1
1528879262445109,0,0,0,-1,1,0,-1,-1
1528879262445109,-2,-1,-2,-2,0,-2,0,-1
1528879262452141,-2,-1,0,-3,-2,-1,-1,0
1528879262452141,0,-1,2,0,-3,-1,-3,0
1528879262468507,-2,-1,1,0,-2,1,0,0
1528879262468507,1,-1,0,-1,-1,0,-1,0
1528879262468507,0,0,-2,4,0,-1,-3,-1
1528879262468507,-1,1,-2,1,1,1,-1,-1
1528879262490552,-2,-1,0,0,1,0,0,-3
1528879262490552,-1,1,-2,-1,-2,1,-1,-2
1528879262491767,-1,-1,-1,-6,-6,-2,-1,-1
1528879262491767,-2,-1,-2,1,0,0,-1,0
1528879262513535,-1,-2,0,2,0,-3,-2,-1
1528879262513535,0,-2,-3,-2,-1,-1,-3,-2
1528879262513535,-2,-2,-3,-7,-4,-1,-1,-1
1528879262513535,-2,-1,1,-5,-4,-1,-2,0
1528879262527968,0,2,0,6,5,2,3,-1
1528879262527968,-1,2,2,10,4,-1,0,1
1528879262528992,-1,-4,-4,0,-1,-2,-1,-1
1528879262528992,-2,-3,-1,-6,-2,-2,-2,-2
1528879262550960,0,2,4,-4,-9,-3,-1,-1
1528879262550960,1,4,-8,-5,0,1,0,-2
1528879262550960,-3,-4,0,-2,-2,0,-3,-2
1528879262550960,0,-1,0,-4,-5,-2,0,1
1528879262564964,0,-2,0,0,2,-1,1,-1
1528879262564964,1,-3,5,8,1,-1,-2,-1
1528879262571908,-4,3,1,3,1,-1,1,-4
1528879262571908,-2,6,1,1,4,1,-2,-2
1528879262587912,-3,-3,-11,-8,-8,-7,-3,-2
1528879262587912,-2,-1,-1,-7,-3,5,0,-1
1528879262588864,2,-6,0,3,2,2,0,0
1528879262588864,-1,2,3,0,0,0,1,-2
1528879262610924,-1,0,1,-1,0,-1,-1,-2
1528879262610924,-2,-6,-5,-6,-4,-6,-2,-3
1528879262610924,3,2,0,-2,-4,0,-1,0
1528879262610924,0,-1,-3,-1,-2,-6,-1,-1
1528879262625764,2,-4,-1,4,4,4,-1,1
1528879262625764,-5,1,0,-6,-5,-3,0,1
1528879262632831,-5,2,-1,-7,3,3,-2,-4
1528879262632831,-1,-3,-2,9,3,0,2,1
1528879262647790,0,-1,1,4,2,2,0,-1
1528879262647790,4,0,0,3,-7,2,-1,0
1528879262648787,1,1,0,-3,-3,-5,-2,2
1528879262648787,-8,-4,-8,-24,-14,-4,-5,-5
1528879262670740,0,0,0,5,6,1,0,0
1528879262670740,-4,-1,3,11,9,2,0,-2
1528879262670740,-5,-4,-10,-6,-1,-3,-2,-4
1528879262670740,3,-7,-2,0,-4,0,-2,-3
1528879262693043,1,-2,-5,-16,-16,-7,-2,1
1528879262693043,2,1,2,-10,-3,-3,-2,-1
1528879262693775,4,1,-1,11,8,1,2,2
1528879262693775,-3,0,-3,10,7,2,-2,0
1528879262708002,-6,0,0,-19,-19,-2,-2,-1
1528879262708002,3,-5,-2,5,-7,-7,-1,-1
1528879262708754,0,0,2,9,20,0,1,-1
1528879262708754,1,-1,3,-1,9,6,1,2
1528879262731029,-6,0,1,5,6,4,0,-7
1528879262731029,-4,0,1,-3,-21,-4,0,0
1528879262731029,6,-4,4,8,-5,-3,-1,1
1528879262731029,4,-2,-3,-4,5,-1,-1,1
1528879262753183,-11,-7,-8,-4,10,1,-5,-7
1528879262753183,-2,3,8,-1,-1,-5,3,-1
1528879262753938,-10,-8,-15,-19,-14,-1,-5,-7
1528879262753938,1,0,2,7,-10,-5,-5,-2
1528879262767887,9,1,-5,-6,10,1,4,6
1528879262767887,2,-7,-8,4,8,1,-4,-5
1528879262768883,-3,0,4,-3,-16,-3,0,-2
1528879262768883,-8,-3,9,-8,3,5,1,-4
1528879262790367,7,1,4,11,9,-2,-3,-2
1528879262790367,-8,-3,-2,12,8,1,2,5
1528879262791109,-3,4,0,-8,-5,-3,-6,-6
1528879262791109,3,-3,-10,-24,-24,-12,-8,-5
1528879262813315,-20,-2,5,-16,0,2,1,-5
1528879262813315,0,2,7,7,-4,18,2,3
1528879262814297,5,1,2,20,36,-2,-3,1
1528879262814297,3,-1,-6,6,2,4,0,2
1528879262828255,19,8,4,1,-9,-8,19,9
1528879262828255,12,0,-4,-9,-23,-14,-14,16
1528879262829243,-24,-8,-13,-1,18,9,-27,-28
1528879262829243,-2,0,3,-6,6,4,-1,-5
1528879262850374,1,-1,0,3,-9,-13,-7,1
1528879262850374,0,-1,-4,-10,-3,-1,-1,-5
1528879262858280,6,2,7,-13,-6,-2,18,14
1528879262858280,-17,-3,-1,29,13,14,-10,-5
1528879262873230,-12,-1,4,5,2,2,0,-3
1528879262873230,5,1,-10,-18,-14,-10,-1,-1
1528879262873970,9,-4,-4,-11,-15,10,-3,6
1528879262873970,2,1,3,-16,-11,-10,8,-2
1528879262896023,10,3,3,9,2,1,-4,1
1528879262896023,-5,-3,-2,2,23,-2,-3,-10
1528879262896023,0,1,-6,12,1,3,4,0
1528879262896023,4,5,1,1,3,3,2,1
1528879262909914,5,-13,-7,-15,-8,-9,-7,4
1528879262909914,-20,-3,3,8,13,9,8,-13
1528879262918119,3,3,-1,1,-7,-10,-6,7
1528879262918119,-7,-6,0,12,3,-1,4,3
1528879262933074,-8,5,4,12,3,6,-5,-8
1528879262933074,-9,0,-7,-33,-10,-4,-2,-10
1528879262934099,-5,-1,1,-9,-20,-6,4,1
1528879262934099,8,-2,-10,-3,4,3,1,5
1528879262956769,2,-2,-3,-1,-2,-1,-4,3
1528879262956769,8,5,6,5,3,3,1,-1
1528879262956769,1,2,8,3,-11,-7,0,4
1528879262956769,8,3,-4,-10,-1,-2,0,4
1528879262969952,3,-10,-1,1,0,2,-1,1
1528879262969952,-13,1,-4,3,2,-1,-6,-6
1528879262977706,0,1,-6,-16,-11,-7,-2,0
1528879262977706,-1,4,2,-4,-8,-9,-1,-3
1528879262992690,2,7,9,20,20,13,2,0
1528879262992690,-5,-16,-1,15,4,-3,-2,-3
1528879262993651,12,-3,-2,-4,1,3,-2,0
1528879262993651,-11,-5,-1,-5,-4,-4,-3,1
1528879263016727,-9,4,-5,-10,-15,-7,-3,-9
1528879263016727,4,0,-3,-9,0,-3,2,9
1528879263016727,9,2,9,3,-1,1,-3,-11
1528879263016727,3,-7,-9,-2,-2,0,3,-4
1528879263029819,-11,-9,-11,-7,-6,-4,-5,-8
1528879263029819,8,2,2,0,3,2,1,6
1528879263038532,1,-2,0,4,-1,0,5,8
1528879263038532,1,4,7,4,-2,-2,-2,1
1528879263053343,-6,-12,-3,-3,-2,0,-2,-7
1528879263053343,-4,12,-7,-1,4,-2,1,-4
1528879263053343,-10,-5,10,4,0,0,0,-1
1528879263053343,6,-2,-2,7,0,-1,-1,2
1528879263076096,-2,5,-16,-8,-2,1,1,2
1528879263076096,2,1,8,-2,-4,-3,-2,0
1528879263077122,-1,1,-7,-1,1,-4,-1,2
1528879263077122,-8,-9,6,-3,-5,-4,-3,-4
1528879263090058,1,-7,-3,4,-2,-1,-1,-1
1528879263090058,5,-8,-10,-4,-2,0,-1,1
1528879263098038,5,1,4,8,6,4,2,5
1528879263098038,-5,2,-6,-2,-4,-3,-4,-5
1528879263113035,12,-6,3,1,-5,-3,-1,3
1528879263113035,-4,4,3,-4,-3,-3,0,-5
1528879263114033,3,-17,-12,-3,-1,-4,-2,-2
1528879263114033,-6,1,0,0,2,3,2,-1
1528879263135989,7,12,-2,-5,-6,-6,-4,6
1528879263135989,-4,-7,1,3,-2,0,-5,-8
1528879263136937,-10,5,-4,-3,0,-2,-2,-5
1528879263136937,-7,-3,5,-1,1,3,1,-4
1528879263158928,-9,-2,-7,-4,-2,-6,-2,-6
1528879263158928,13,-6,-9,-3,0,1,0,8
1528879263158928,-6,2,1,-3,2,4,4,-3
1528879263158928,-4,6,-5,-3,-3,-7,-5,0
1528879263172891,2,3,0,-3,2,22,4,3
1528879263172891,8,1,3,-4,-14,-44,-2,2
1528879263173889,0,-2,4,7,10,7,19,20
1528879263173889,-12,-13,-7,4,4,-7,-33,-51
1528879263195795,-8,10,2,-3,-3,5,2,5
1528879263195795,0,2,3,-5,-5,9,-7,0
1528879263196774,1,0,-1,-2,-5,-1,-1,-3
1528879263196774,16,-3,-13,-9,1,8,6,18
1528879263218714,-7,2,0,2,-1,-7,-3,-5
1528879263218714,-22,-11,0,0,3,1,-4,-15
1528879263219711,-13,15,6,-2,-6,-5,-2,3
1528879263219711,16,11,12,7,2,6,3,5
1528879263232676,7,-30,-21,-4,6,3,6,-1
1528879263232676,-10,-5,-7,-6,-1,7,-1,1
1528879263233673,-11,-3,-7,-8,-4,-3,-18,-9
1528879263233673,-3,-5,2,-4,-8,-1,7,6
1528879263255615,14,12,14,9,1,-26,-3,8
1528879263255615,-2,2,1,9,7,2,5,-14
1528879263256612,12,-16,-1,5,2,-2,-1,7
1528879263256612,-5,-4,-10,-8,-6,2,4,4
1528879263278553,-10,-2,2,-13,-12,2,2,-3
1528879263278553,25,-8,-1,8,4,5,2,18
1528879263279551,-25,7,-1,5,8,2,-4,-12
1528879263279551,0,-6,-4,0,3,-5,3,3
1528879263292516,-11,-8,-7,-10,-4,4,-3,-8
1528879263292516,16,-4,3,-5,-9,-1,-4,5
1528879263293514,20,-20,14,5,-4,-1,0,-8
1528879263293514,-11,46,1,3,8,-1,4,-1
1528879263316452,-3,-18,-3,4,4,-2,-2,3
1528879263316452,-5,7,0,-6,-3,3,-2,0
1528879263316452,7,17,2,-4,-6,-6,0,-3
1528879263316452,12,-9,9,7,2,0,-1,-3
1528879263339405,11,22,10,4,1,2,0,11
1528879263339405,-19,-20,-8,2,2,0,-1,-10
1528879263339405,14,-23,-13,-9,-8,-2,-2,-5
1528879263339405,14,-21,-15,-9,-5,-6,-1,9
1528879263352356,-1,44,17,15,5,5,9,11
1528879263352356,23,-25,15,11,2,-1,-9,-1
1528879263353368,-18,23,-29,-13,1,4,1,-8
1528879263353368,-30,-26,7,-1,-6,-4,-5,-11
1528879263376292,6,-6,-5,-7,-5,-3,3,-2
1528879263376292,-9,21,17,15,5,2,1,-2
1528879263377290,-1,27,7,-7,-2,-5,-7,-5
1528879263377290,-9,-15,-20,-10,-7,-4,1,1
1528879263399273,2,-37,-10,5,-3,-3,-7,-2
1528879263399273,7,-44,-26,-5,-2,-1,0,10
1528879263399273,-11,0,10,4,2,1,-2,-12
1528879263399273,22,-39,1,-2,-2,-1,0,6
1528879263413194,-10,21,15,8,-3,-3,-7,-9
1528879263413194,-6,33,-19,-17,-3,2,2,-2
1528879263413194,-23,-27,-8,-1,-4,-4,1,6
1528879263413194,-5,24,12,8,4,1,3,-7
1528879263436393,-20,-20,1,-3,-1,-3,-5,-12
1528879263436393,9,6,-15,-12,-4,2,4,6
1528879263437130,15,-16,-2,-8,-5,-3,-5,-5
1528879263437130,-1,25,6,0,-3,-4,-4,6
1528879263459228,-3,-3,6,5,-4,-4,-10,-8
1528879263459228,-15,38,5,-2,1,2,6,-4
1528879263459228,2,-9,-16,-8,-2,4,0,6
1528879263459228,-9,5,11,9,-1,-4,-3,-8
1528879263472843,-7,28,-18,-9,6,20,10,4
1528879263472843,-8,-15,3,-1,-6,-12,-6,-2
1528879263473581,-3,0,1,2,-1,-8,1,-3
1528879263473581,-9,28,10,7,1,-2,-2,0
1528879263496522,4,-26,-3,-8,1,1,-3,0
1528879263496522,-20,-1,-16,-13,1,8,0,-10
1528879263496522,-26,38,14,8,-5,-11,-3,-6
1528879263496522,4,9,-1,-1,-1,-16,-7,8
1528879263518868,-6,-16,-3,-2,-2,-13,12,-1
1528879263518868,-17,6,5,2,-2,7,-8,-8
1528879263519458,20,-14,-6,-3,0,6,6,11
1528879263519458,12,3,-3,2,3,3,-1,-3
1528879263533643,4,11,2,-1,-3,1,-11,0
1528879263533643,20,-13,9,6,0,-5,7,12
1528879263533643,-2,-4,-12,-16,-8,2,-2,1
1528879263533643,8,-13,3,3,0,2,4,0
1528879263556775,10,6,-10,-3,6,1,4,2
1528879263556775,7,2,9,10,6,41,4,4
1528879263556775,-8,-9,-1,-2,-9,-43,-16,-9
1528879263556775,0,0,-8,-9,-5,5,2,4
1528879263578786,0,-14,-6,-7,-10,-10,-2,-3
1528879263578786,-4,1,4,0,4,-5,-7,-24
1528879263579403,7,-4,5,6,3,17,-9,12
1528879263579403,7,3,-5,-1,6,10,16,18
1528879263592897,-8,-4,1,1,-2,-9,-21,-18
1528879263592897,-5,-7,-11,-17,-14,5,6,-3
1528879263601034,2,2,5,1,5,-23,-13,-5
1528879263601034,-5,-6,-2,11,9,-7,8,-8
1528879263616101,7,1,3,10,3,-25,0,1
1528879263616101,4,0,7,7,8,5,-1,6
1528879263617833,-2,0,-10,-2,0,9,6,0
1528879263617833,-9,-7,-8,-21,-13,9,-3,2
1528879263638073,3,-7,-10,-23,-21,10,3,-3
1528879263638073,-3,2,19,4,-3,-17,-3,-3
1528879263640080,5,0,-21,12,23,22,7,2
1528879263640080,-3,-7,-5,6,11,12,-5,-5
1528879263652460,0,-5,-2,4,2,3,7,-3
1528879263652460,1,3,-1,-11,-14,-29,-14,2
1528879263661724,2,-5,15,0,-8,3,4,5
1528879263661724,-15,13,-4,-3,-2,4,-4,-8
1528879263676725,2,12,0,-2,1,1,7,3
1528879263676725,-2,-19,-11,-5,-3,-2,-19,-13
1528879263677683,4,0,2,1,-4,5,4,-2
1528879263677683,25,-37,-15,-5,-8,-8,-8,2
1528879263698869,2,8,3,2,1,5,1,3
1528879263698869,-4,-5,-3,6,3,-4,6,2
1528879263700789,5,3,2,-1,1,1,2,1
1528879263700789,-8,-18,-13,-13,-11,-10,-7,-7
1528879263712847,1,6,6,5,1,1,-4,1
1528879263712847,2,23,-3,-3,5,3,5,7
1528879263721857,-2,-8,5,-1,-2,-2,-4,-9
1528879263721857,-12,-9,-12,-6,-7,-3,2,0
1528879263736566,6,-5,-16,-6,2,0,-3,1
1528879263736566,-19,17,8,7,2,-2,0,-7
1528879263737523,-6,-3,5,3,0,0,-1,-4
1528879263737523,6,7,-7,-12,-2,26,5,2
1528879263758730,-3,-14,0,0,-6,-34,-13,-2
1528879263758730,12,0,2,2,-4,-15,0,5
1528879263760721,-2,1,4,3,0,0,0,-2
1528879263760721,-3,10,24,11,0,-3,-1,0
1528879263772990,7,-29,-20,-11,-4,11,-2,-2
1528879263772990,5,7,7,7,7,7,8,8
1528879263781063,-4,20,19,11,4,2,0,-5
1528879263781063,-1,11,4,-9,0,-2,-3,-2
1528879263796705,-3,-20,-18,-5,-3,4,3,0
1528879263796705,-5,-15,-14,-5,-8,-13,-10,-19
1528879263797670,7,-8,-10,-8,-5,2,3,9
1528879263797670,-3,22,18,12,0,-7,-2,-5
1528879263818669,-12,14,11,6,5,2,0,-3
1528879263818669,9,-2,-15,-11,-2,0,4,10
1528879263819647,-3,-4,-4,1,-3,4,-2,-3
1528879263819647,45,-71,-2,-1,-4,-7,-4,5
1528879263832603,5,-14,27,16,3,1,-4,-1
1528879263832603,-15,-11,-26,-15,-1,4,0,-4
1528879263841693,-1,-6,-11,-17,-4,-5,0,-2
1528879263841693,-3,-2,-41,-21,-8,-11,-3,-4
1528879263855779,6,-3,-2,0,-3,7,1,4
1528879263855779,-15,1,17,6,1,1,-1,0
1528879263862764,-38,49,12,10,2,-1,2,-9
1528879263862764,-3,27,6,3,3,0,2,3
1528879263878287,-6,2,-16,-18,-5,-2,-3,1
1528879263878287,-13,24,5,4,-1,0,3,-1
1528879263880228,14,-18,-2,-3,-3,-3,-3,-1
1528879263880228,-3,8,13,11,2,-2,-2,0
1528879263892629,-6,16,4,1,-1,2,-1,0
1528879263892629,7,-25,12,5,2,-1,-2,1
1528879263901646,27,-32,-33,-21,-6,-2,0,4
1528879263901646,-38,48,11,2,5,-1,4,2
1528879263915854,-1,-7,-4,-3,-3,-4,-8,-9
1528879263915854,3,-21,0,1,-1,1,-1,1
1528879263922791,9,27,10,7,3,2,1,4
1528879263922791,-11,-5,6,3,-2,-3,-2,-9
1528879263938956,-16,0,-3,-3,3,8,5,0
1528879263938956,0,-1,-6,-1,-2,-12,-4,2
1528879263939937,5,-9,0,-1,-4,-3,-1,-2
1528879263939937,9,1,2,2,1,-2,0,2
1528879263953000,-12,22,0,1,2,0,0,-7
1528879263953000,20,-17,-12,-9,-6,2,0,2
1528879263961343,14,-8,2,-1,1,1,1,3
1528879263961343,-59,-2,1,6,-2,-5,-4,-20
1528879263975566,-4,-10,2,-1,-1,0,8,-4
1528879263975566,1,3,-6,-8,-4,-4,-18,-11
1528879263982579,-1,-6,-26,-11,-3,-2,1,-4
1528879263982579,20,0,12,4,2,3,0,6
1528879263998587,0,16,-6,-1,-4,-4,-3,0
1528879263998587,-6,2,8,7,-3,2,8,4
1528879264000547,-7,-10,5,-1,-1,-2,-4,-2
1528879264000547,0,-19,-14,-7,-3,-2,-4,-5
1528879264012753,3,-3,6,1,-1,13,6,2
1528879264012753,7,9,-3,-3,2,4,1,3
1528879264021492,-10,-2,8,5,-1,-13,-9,0
1528879264021492,12,-1,-2,0,-1,-11,3,6
1528879264036199,2,-1,0,-3,-6,-5,-8,-3
1528879264036199,-4,0,-2,-2,2,-5,4,2
1528879264042357,-4,-3,3,0,-6,-10,-6,-3
1528879264042357,1,-2,-5,-1,5,16,0,-6
1528879264058605,0,-8,2,2,3,-4,0,0
1528879264058605,-4,-3,-7,-2,0,15,3,1
1528879264060260,-2,4,-2,-2,-2,0,4,1
1528879264060260,6,-3,-4,-8,-6,-7,-6,2
1528879264072476,2,1,8,5,2,-3,-1,0
1528879264072476,4,4,-1,1,-3,-1,2,1
1528879264081193,-13,3,5,3,3,-5,-1,-6
1528879264081193,3,-4,-2,1,-3,-8,-4,3
1528879264095417,2,-3,3,3,1,2,0,3
1528879264095417,1,-2,-12,-7,-2,4,-1,-2
1528879264102405,3,-4,-3,4,5,-7,0,0
1528879264102405,-7,3,0,-1,2,9,3,1
1528879264119097,-4,13,1,-3,-3,-2,-3,-3
1528879264119097,0,4,5,3,4,-6,1,-2
1528879264120090,1,0,0,-1,-3,8,0,1
1528879264120090,5,1,2,0,-2,-2,0,0
1528879264141337,-1,-16,-8,-6,-1,-5,-3,-3
1528879264141337,-3,-10,-4,-7,-5,-1,-2,-1
1528879264143029,2,-2,2,-4,-2,8,1,2
1528879264143029,14,-10,2,5,0,-5,-2,2
1528879264155677,8,12,0,5,5,2,2,-5
1528879264155677,1,-14,1,2,1,0,0,3
1528879264162567,-8,5,0,-2,-4,0,0,-5
1528879264162567,-1,-1,-3,-4,-5,-4,-2,0
1528879264179345,1,-7,-4,-3,-2,0,-2,1
1528879264179345,-19,30,3,1,1,-6,0,-6
1528879264180218,1,0,4,3,-1,1,0,0
1528879264180218,-3,1,5,3,-1,1,-2,-4
1528879264201426,-6,3,-19,-11,-2,-1,-4,-1
1528879264201426,4,6,-2,-2,-2,-3,-1,-2
1528879264202416,-5,-8,-3,0,-2,4,0,-1
1528879264202416,-6,7,1,-1,0,-1,-1,-4
1528879264215140,0,-11,5,6,-3,-3,-1,-2
1528879264215140,1,-3,0,-1,-3,-2,-1,1
1528879264224366,-1,-1,-2,-3,-2,0,0,0
1528879264224366,3,-12,-4,0,1,0,0,0
1528879264239091,0,-1,5,-3,-3,-2,-2,1
1528879264239091,3,1,1,0,-1,0,0,-1
1528879264240057,-3,-4,-3,-3,-1,-2,-2,-1
1528879264240057,-2,0,-2,-3,-1,-3,0,-1
1528879264261599,3,-3,0,-1,-1,-4,-2,-1
1528879264261599,-3,-12,-3,0,-1,1,-1,-2
1528879264263391,6,0,1,0,3,1,-5,-3
1528879264263391,-3,-3,-1,0,-1,-5,-3,1
1528879264275294,-3,-6,-6,-4,-3,1,-2,-3
1528879264275294,3,-3,0,-1,-2,-2,2,3
1528879264284243,1,-1,0,-1,-4,-3,-4,-6
1528879264284243,-2,-6,-7,-1,0,4,1,0
1528879264299201,-2,1,-2,0,0,-1,0,2
1528879264299201,-2,-2,0,-2,0,-3,0,-4
1528879264300165,-1,0,1,0,1,1,2,4
1528879264300165,-2,14,2,-3,0,-1,1,-1
1528879264321549,-1,-3,3,2,1,-1,7,3
1528879264321549,-2,-3,-1,-3,-4,-6,-23,-19
1528879264322519,-6,1,-7,-4,-4,1,0,-2
1528879264322519,0,-4,-2,-2,-2,0,-1,-4
1528879264334960,-2,2,-2,1,2,2,1,-1
1528879264334960,-1,4,4,1,-1,6,5,7
1528879264343735,-1,-5,0,-1,-4,-9,-4,-6
1528879264343735,-2,-11,-6,-2,-1,-2,-2,3
1528879264358810,-2,-2,-1,2,0,-1,-1,-1
1528879264358810,2,7,0,-4,0,11,4,7
1528879264360758,1,8,2,2,1,-5,0,-1
1528879264360758,3,-18,-5,-1,-2,-3,-8,-8
1528879264381802,-9,4,-2,-2,-2,-5,-8,-16
1528879264381802,1,-2,-7,-3,-3,-3,2,13
1528879264382703,4,0,4,-2,-1,3,4,4
1528879264382703,1,3,11,-2,-3,-1,0,-1
1528879264395001,4,-1,-3,0,-1,2,1,1
1528879264395001,-4,3,4,1,0,-3,-2,-8
1528879264403660,-1,1,-4,1,2,3,8,10
1528879264403660,-5,9,3,-2,-2,-3,-24,-21
1528879264418606,-1,-11,-6,-4,-1,-4,-2,-2
1528879264418606,3,-11,-7,-3,-3,-4,3,4
1528879264419604,-2,-5,21,1,-1,-2,0,-2
1528879264419604,-2,3,-19,-1,0,2,7,9
1528879264440547,1,6,6,-3,-3,-2,-8,-11
1528879264440547,5,6,-2,1,0,-1,1,-1
1528879264442542,0,1,4,1,1,-6,-4,-1
1528879264442542,-5,-5,-4,1,0,-2,3,1
1528879264454548,-2,-11,-11,-4,-4,1,-1,7
1528879264454548,-3,-2,-19,-4,-3,-4,1,-1
1528879264463496,-3,-4,-6,-4,-5,-1,-3,-2
1528879264463496,0,7,5,-1,-1,1,4,6
1528879264478458,-1,9,7,3,2,-1,-1,-2
1528879264478458,-2,-7,5,2,1,2,0,-4
1528879264480440,0,-3,-3,0,2,5,7,7
1528879264480440,0,-3,-15,-1,-3,-5,-9,-10
1528879264501385,-1,-3,34,-5,-2,5,4,7
1528879264501385,0,6,-8,-3,-1,0,0,-8
1528879264502382,1,-2,1,3,5,-9,-4,-5
1528879264502382,-1,-2,-5,-2,-3,-3,7,4
1528879264514405,-2,-2,-5,-3,-3,-3,-6,-4
1528879264514405,-1,4,19,0,0,4,2,2
1528879264523681,-1,-3,-22,0,0,4,1,7
1528879264523681,-6,-9,-1,0,1,0,-10,-16
1528879264538749,2,6,-3,1,1,-4,1,4
1528879264538749,-2,-6,10,0,-2,-3,-4,0
1528879264540875,0,2,1,-4,-2,0,-2,-1
1528879264540875,2,-4,3,-3,-1,5,4,4
1528879264561673,1,2,-4,-2,-4,-8,2,6
1528879264561673,-1,-5,-12,1,3,1,-1,-5
1528879264562682,-3,-9,-4,0,0,-3,-2,-5
1528879264562682,-1,6,10,-2,-2,-2,3,8
1528879264574868,-2,3,-9,-1,-5,-8,1,-3
1528879264574868,3,8,20,1,1,-1,2,5
1528879264583898,0,-2,5,3,2,4,3,3
1528879264583898,4,5,-4,2,4,6,18,7
1528879264599202,-12,-30,-19,-10,-8,-6,-37,-31
1528879264599202,-2,10,-12,-3,-9,-7,-3,8
1528879264600162,-4,-12,-2,-3,-4,3,1,-3
1528879264600162,-4,-1,-7,-3,-4,-2,-4,-2
1528879264621144,5,9,12,8,7,4,6,4
1528879264621144,-1,-4,-5,1,1,-2,1,0
1528879264623353,1,2,17,-4,-5,-3,0,7
1528879264623353,-5,-1,-33,-12,-6,-4,-15,-20
1528879264635076,2,2,-2,4,3,2,5,5
1528879264635076,-3,-11,-7,5,4,0,-4,-4
1528879264644074,-1,3,-1,1,-3,3,5,4
1528879264644074,1,-3,18,3,-2,-3,5,12
1528879264659161,2,11,1,-1,1,3,7,1
1528879264659161,-4,-14,10,-4,-4,-5,-5,-7
1528879264660047,-1,9,-8,-2,-4,-1,-8,-8
1528879264660047,3,7,14,0,-1,0,6,8
1528879264681190,-7,-10,-13,-3,-2,-2,-2,-5
1528879264681190,2,8,14,3,1,1,5,4
1528879264683201,-1,-1,-12,-2,0,-1,-5,-8
1528879264683201,-2,5,19,2,1,-1,3,7
1528879264695199,1,5,-6,2,1,1,1,1
1528879264695199,-5,-7,-15,-4,-4,-4,-3,-6
1528879264703180,-1,0,0,-3,-3,-1,-2,-1
1528879264703180,0,-5,-7,0,-2,-1,0,2
1528879264718736,-1,-8,1,0,0,2,1,2
1528879264718736,-2,-2,-3,-3,-1,-2,0,-1
1528879264720430,1,2,-3,0,0,-1,0,-3
1528879264720430,3,4,19,3,1,3,7,13
1528879264741748,-4,-9,-3,-1,-1,-1,-4,-10
1528879264741748,-1,-1,-26,-7,-5,-2,-1,3
1528879264742706,0,2,2,3,1,0,-3,-13
1528879264742706,-1,-2,3,0,-3,-4,2,16
1528879264754943,-1,2,2,-2,-4,-2,-5,-9
1528879264754943,-1,1,-2,-1,-1,-1,-2,-3
1528879264764377,-2,-1,3,-1,1,0,-1,-4
1528879264764377,-3,-6,-1,0,0,-1,-2,-4
1528879264779230,0,2,-20,-3,0,1,7,1
1528879264779230,-3,-6,0,-2,-3,-3,-11,-13
1528879264780184,-2,-5,-7,-4,-1,0,0,6
1528879264780184,1,2,2,0,0,-1,-7,-17
1528879264801391,0,0,12,-1,-2,0,12,17
1528879264801391,0,0,2,0,0,0,-7,-9
1528879264802383,1,-3,0,-2,-1,-1,10,16
1528879264802383,-7,-8,-11,-3,-1,-1,-13,-9
1528879264814414,-3,-4,-6,-2,-1,0,3,-8
1528879264814414,-1,-3,0,0,-1,0,-3,7
1528879264823393,-1,-3,2,-3,-4,-9,-9,0
1528879264823393,-2,-4,-12,-2,-2,2,7,0
1528879264837380,1,6,7,2,-2,-2,-6,0
1528879264837380,1,0,3,1,2,-1,3,9
1528879264852617,-1,4,2,0,-2,2,4,-4
1528879264852617,-4,-2,-6,-3,-2,-8,-17,-17
1528879264861075,2,0,8,-2,1,2,4,3
1528879264861075,-1,-4,-3,-1,0,2,2,2
1528879264863307,-1,-3,-6,-1,-2,-4,-3,-4
1528879264863307,-2,0,0,0,1,3,0,-9
1528879264875300,4,6,7,0,-2,-4,-1,18
1528879264875300,-3,-1,3,-1,-3,0,-2,-2
1528879264884273,-11,-21,-19,-6,-1,1,-2,-5
1528879264884273,-1,-3,-3,-2,0,0,2,3
1528879264898237,-7,-2,-3,0,0,-3,-11,-26
1528879264898237,2,4,3,2,-1,3,7,4
1528879264905213,3,11,7,2,-1,-5,-8,-2
1528879264905213,2,4,-4,-2,0,-1,2,5
1528879264920914,-2,0,-3,-2,0,3,1,5
1528879264920914,-1,-1,0,-3,-1,-4,1,-3
1528879264922920,1,-1,-2,-3,0,3,-3,-6
1528879264922920,-2,-5,-1,0,-1,1,0,-2
1528879264935141,2,3,-1,-1,-2,-3,-2,3
1528879264935141,-1,3,1,1,2,-1,-5,-8
1528879264943859,0,0,-1,2,-1,2,2,3
1528879264943859,-1,-1,-2,-3,-2,-3,0,-2
1528879264958554,0,0,1,0,-1,3,4,8
1528879264958554,-2,1,0,-2,-4,-10,-7,-9
1528879264965386,-4,-6,-4,-2,-2,-2,0,0
1528879264965386,-1,0,-1,-2,-2,-2,-4,-4
1528879264981650,2,0,0,0,0,1,1,2
1528879264981650,0,2,0,1,0,3,3,4
1528879264982619,-1,1,-2,-3,-1,-2,-1,-2
1528879264982619,0,-3,-2,-2,-1,-2,-3,-3
1528879264994607,0,-2,-2,-2,1,1,-2,0
1528879264994607,-2,-2,-1,-2,-1,-3,0,0
1528879265004549,-1,-1,-1,-2,-2,1,-3,-2
1528879265004549,0,1,1,1,0,0,1,0
1528879265018674,-5,-7,-3,-3,-1,-5,-1,-5
1528879265018674,-2,-2,-1,-2,-3,-1,-5,-2
1528879265024495,0,1,-1,-1,-1,-1,0,-2
1528879265024495,-1,1,1,0,-2,1,1,1
1528879265041485,0,0,-3,-2,-2,-3,1,6
1528879265041485,1,-2,1,1,-1,1,0,-4
1528879265042469,0,-1,-1,0,1,2,-1,-1
1528879265042469,0,-1,-3,-3,-1,-3,-3,-2
1528879265063450,-3,-4,-3,-2,-1,-1,-2,0
1528879265063450,-2,-3,-2,-2,1,-1,1,2
1528879265065386,-2,1,-1,0,1,0,-2,-2
1528879265065386,-1,-1,0,-1,-1,1,-2,0
1528879265078511,0,1,0,2,-2,1,-3,-3
1528879265078511,0,-2,0,-2,-2,-3,8,6
1528879265084882,-1,-1,-3,-1,-1,-3,-8,7
1528879265084882,-1,-3,-2,-1,-1,0,-1,-5
1528879265101726,-1,-1,-2,-1,-3,-2,1,0
1528879265101726,0,1,-4,-2,-1,0,-4,-5
1528879265102613,2,3,1,0,-2,2,5,6
1528879265102613,-2,-1,-1,-1,0,0,0,-1
1528879265123804,-2,-1,-2,0,-2,-3,-8,-7
1528879265123804,1,-1,-1,0,0,0,4,7
1528879265125800,-3,-3,0,-2,-3,-1,0,-6
1528879265125800,-1,0,-2,-1,-1,0,-1,-2
1528879265137509,-1,-1,-2,-2,-2,1,0,-3
1528879265137509,-1,-2,-2,-1,-1,-1,-3,-2
1528879265146059,-1,-1,-2,-1,-3,-1,-1,-5
1528879265146059,0,0,-2,1,0,-3,-3,-2
1528879265161256,-2,-2,-1,-3,-2,-3,1,2
1528879265161256,-1,2,1,-1,-2,0,-2,-2
1528879265167815,-5,-3,-4,-3,2,-1,-3,-4
1528879265167815,0,0,0,-1,-2,-1,2,5
1528879265184033,0,0,0,0,-1,-1,0,0
1528879265184033,-2,-3,-3,-1,-2,-2,-4,-1
1528879265184992,-1,-3,2,0,-3,-2,-1,-3
1528879265184992,-1,-2,0,-2,-1,-2,0,6
1528879265197855,-4,-1,0,-2,-1,-1,-5,-17
1528879265197855,1,-1,-1,-1,-2,-2,0,-1
1528879265206063,1,-1,-1,0,0,-2,1,1
1528879265206063,-3,-1,-2,0,-1,-2,-1,-1
1528879265221547,-1,-2,1,1,1,1,1,4
1528879265221547,-1,-3,-3,-1,0,-1,-2,-5
1528879265222498,-3,-2,-1,-3,-1,1,6,1
1528879265222498,-3,-3,-1,-2,-3,-4,-24,-23
1528879265243464,-2,-1,-1,-1,-2,-1,2,2
1528879265243464,0,-1,-1,-2,-1,0,0,-1
1528879265245218,0,-1,0,-1,-1,0,0,-2
1528879265245218,0,-2,-1,0,-1,0,2,2
1528879265257186,0,-1,-3,-1,-2,0,1,3
1528879265257186,-1,-2,1,-2,-1,-2,-3,-3
1528879265266161,2,-2,0,0,1,-1,-1,1
1528879265266161,1,-2,-1,-1,0,-1,3,1
1528879265281439,0,-2,-1,1,-1,-1,-3,0
1528879265281439,0,1,1,1,-1,-1,2,2
1528879265287106,-1,1,-3,-1,-1,-1,-1,2
1528879265287106,-2,-3,-1,-2,-1,0,-2,-2
