timestamp,emg1,emg2,emg3,emg4,emg5,emg6,emg7,emg8
1528873190156953,0,0,-2,-1,0,-1,0,-1
1528873190156953,-1,-1,-2,0,-1,-1,-2,-1
1528873190157950,-1,-1,-1,-1,0,-2,-1,-2
1528873190157950,0,-1,-1,-1,-2,-1,-1,-2
1528873190159945,-1,-1,-3,0,-1,-2,1,1
1528873190159945,0,0,-2,-1,-2,-1,0,-1
1528873190159945,-1,-2,-1,0,0,-1,-2,-3
1528873190159945,0,-2,-1,-1,0,-1,-2,-1
1528873190160943,-1,0,0,-1,-1,-2,-2,-1
1528873190160943,-2,-2,-1,-2,0,-1,1,-1
1528873190173908,-2,-1,-2,0,-1,-1,0,0
1528873190173908,-2,-1,-1,0,-2,0,-2,-1
1528873190184880,-2,-2,0,-3,-2,1,-1,-1
1528873190184880,0,1,1,-1,-1,-2,-2,0
1528873190190863,-1,-2,-2,-1,-2,0,-2,0
1528873190190863,-1,-2,-5,-3,0,-2,1,-1
1528873190204826,-1,-1,1,-1,1,-2,-1,-2
1528873190204826,-1,-2,-1,-1,-2,0,-2,-1
1528873190219785,-3,1,0,-1,0,0,-1,-1
1528873190219785,-1,-1,0,0,-1,-2,-3,-3
1528873190220782,-1,-1,-1,-2,-1,0,-2,-2
1528873190220782,-1,0,1,0,-1,-3,-2,-1
1528873190266660,-2,-2,0,-1,-2,0,0,-1
1528873190266660,-1,0,-1,-1,-1,0,0,-2
1528873190267658,0,-1,-2,0,-3,-1,-1,-2
1528873190267658,0,-2,0,-2,-1,0,-1,-2
1528873190269652,-1,-1,-2,-1,0,-1,-1,0
1528873190269652,0,-2,-1,-1,-1,-1,0,0
1528873190271647,0,-1,-2,-2,0,-1,0,-1
1528873190271647,-2,0,0,-1,-2,0,0,-1
1528873190278629,-1,-2,-2,0,-2,-1,-2,-1
1528873190278629,0,0,1,-1,-1,-1,-1,-1
1528873190288601,-2,-3,-1,1,-1,-1,-2,-1
1528873190288601,-1,1,0,0,0,-2,0,-2
1528873190293589,0,-3,-3,-1,0,1,-2,-2
1528873190293589,0,2,1,-1,-1,-1,-2,0
1528873190308547,0,1,1,-1,-2,0,-1,-1
1528873190308547,1,-2,-2,0,-1,-2,-1,0
1528873190316528,-1,-1,-1,-3,-2,1,-1,-2
1528873190316528,-2,-2,-1,-1,-1,-3,-1,0
1528873190339466,0,-1,-1,0,-1,0,-1,0
1528873190339466,1,-1,0,0,0,-2,-1,0
1528873190340468,0,1,3,-1,-1,-3,1,-1
1528873190340468,0,-3,-3,1,-2,-1,-3,0
1528873190354426,-3,0,-1,-1,-1,0,1,-2
1528873190354426,-2,-3,-1,-1,-1,-1,-2,-1
1528873190355423,0,0,-1,-1,-2,-1,-2,-1
1528873190355423,-2,0,-1,0,0,0,-2,-1
1528873190377379,1,-2,-1,-2,-2,0,-1,-1
1528873190377379,-1,-1,0,-1,-1,-1,-2,0
1528873190378362,-1,-1,-1,1,-1,-3,0,-1
1528873190378362,-1,0,3,0,0,-1,1,-3
1528873190400318,0,-1,1,-1,-1,-2,-1,-1
1528873190400318,0,1,2,-1,-2,0,-2,-1
1528873190401301,-2,-4,-5,0,-1,-1,-2,0
1528873190401301,-1,-2,-1,-1,-1,2,0,0
1528873190414266,-2,0,0,-2,-1,-2,-1,1
1528873190414266,0,-3,-5,-3,-3,-1,-2,-1
1528873190415263,-1,0,4,-1,1,-2,-1,0
1528873190415263,-2,-2,-2,-1,-1,-1,-2,-1
1528873190437204,-2,-3,-3,0,0,-1,-1,-1
1528873190437204,-2,0,-1,0,-2,-1,-1,-2
1528873190438202,2,1,-2,-1,-1,-1,0,-1
1528873190438202,0,-4,-2,-1,-2,-2,-1,-1
1528873190459145,-1,-3,-3,-1,0,-2,-2,0
1528873190459145,-3,-1,-3,0,0,-1,-1,-1
1528873190460144,-2,0,-2,-1,-1,-1,-1,0
1528873190460144,-2,-1,0,0,-2,-2,0,0
1528873190474106,-2,2,2,-2,-1,0,0,-2
1528873190474106,-2,-2,-1,-1,1,-1,0,-2
1528873190475103,-2,0,1,1,-2,-1,-1,-2
1528873190475103,1,-1,0,-2,-1,0,-2,-1
1528873190497300,-2,1,0,0,-1,-3,-1,0
1528873190497300,1,-2,-2,-2,0,-1,-2,-2
1528873190498297,0,-1,-1,0,1,1,0,2
1528873190498297,-1,0,1,-2,-1,0,0,-2
1528873190519242,1,0,2,0,0,0,-2,-1
1528873190519242,-3,-6,-5,-3,-2,-1,0,-2
1528873190520239,-1,0,-2,-1,-2,-1,0,-2
1528873190520239,-2,2,0,-2,0,-1,-2,-1
1528873190534256,-1,-1,-2,-2,1,-1,0,-1
1528873190534256,1,0,2,0,-2,-1,0,0
1528873190535199,-2,-2,-5,1,-4,-3,-3,-3
1528873190535199,1,-2,-2,-3,-7,-9,-1,-1
1528873190557178,-2,-1,3,3,4,4,-2,-2
1528873190557178,-1,0,0,2,-6,-20,-6,-1
1528873190558163,-2,-1,4,-8,-2,13,1,-1
1528873190558163,-1,-2,-16,-8,-1,16,7,1
1528873190579118,-1,0,7,1,11,1,1,-1
1528873190579118,2,3,1,-5,-1,3,-1,3
1528873190580091,2,0,-2,0,-9,-16,-5,-3
1528873190580091,-4,-4,3,10,2,-13,-5,-3
1528873190594042,-4,-1,-7,-6,-3,7,1,-2
1528873190594042,1,0,0,3,2,6,2,-1
1528873190595038,-2,-4,-1,-4,-2,-5,-1,0
1528873190595038,1,0,0,1,-2,0,-2,0
1528873190617014,-1,-4,-3,-1,-13,-11,-4,-2
1528873190617014,-3,0,0,3,-1,-4,-2,-3
1528873190617977,-3,2,1,13,20,12,5,1
1528873190617977,1,-10,-3,-8,-6,3,3,1
1528873190639919,6,6,-3,-14,9,-1,-1,2
1528873190639919,1,-1,-3,-14,-10,2,-1,-1
1528873190639919,1,7,1,0,-4,-4,-2,1
1528873190639919,-5,-5,-2,4,-1,-9,-3,-2
1528873190653883,-9,-11,-2,1,3,4,3,-3
1528873190653883,8,6,-3,2,-2,-2,2,1
1528873190661868,-5,-9,-5,-3,-4,-11,-1,-5
1528873190661868,3,4,3,-2,3,7,-1,0
1528873190676822,1,-4,-1,-4,-10,9,2,2
1528873190676822,-10,-2,1,3,9,-1,0,-5
1528873190677820,15,2,-1,-6,-7,-2,-2,10
1528873190677820,-7,8,2,1,-11,-8,0,1
1528873190699758,6,1,-7,2,13,-5,-5,-2
1528873190699758,-9,-1,2,9,6,6,-1,-5
1528873190700756,-8,-9,-3,-13,-10,-3,-4,-6
1528873190700756,-10,-4,-4,-9,-1,-1,-2,-1
1528873190713844,0,3,-3,-3,-10,-2,-2,1
1528873190713844,-7,1,-2,-7,4,0,0,-6
1528873190721806,14,4,-1,-1,-6,-15,-6,0
1528873190721806,-6,-7,0,2,-2,-13,2,1
1528873190736938,4,-1,-2,1,7,36,4,-2
1528873190736938,-10,-11,-2,-1,10,23,2,-2
1528873190737745,-7,2,1,2,0,-5,1,-3
1528873190737745,4,3,1,-2,-3,-11,-6,-10
1528873190759695,-2,-8,-3,-5,-15,-20,-4,5
1528873190759695,9,10,1,-3,-6,-7,-1,8
1528873190760673,-6,-1,-4,2,14,21,1,1
1528873190760673,1,-5,3,-2,-7,-10,-6,-4
1528873190773674,-13,-3,1,0,-11,-13,-3,-9
1528873190773674,13,5,-8,-7,0,2,0,4
1528873190781643,-4,-4,-1,5,2,2,2,0
1528873190781643,3,-1,-3,-1,9,13,0,-2
1528873190796577,-5,2,-2,-2,-8,-19,-5,-6
1528873190796577,-4,2,-4,-8,-13,-13,-6,1
1528873190797574,-5,-12,-1,-1,-6,13,0,-8
1528873190797574,3,-1,0,7,19,25,7,7
1528873190819516,7,1,4,10,18,2,5,4
1528873190819516,-1,-7,-1,-7,-15,-7,-1,-1
1528873190820513,-3,1,-4,-4,-4,-15,-4,-6
1528873190820513,-9,-5,-2,-6,-23,-11,-7,-6
1528873190833479,3,1,4,7,31,19,6,2
1528873190833479,-2,-2,0,4,-1,3,1,-2
1528873190842454,0,1,-1,-6,1,-2,0,2
1528873190842454,5,1,-2,-2,-12,-7,-5,1
1528873190857454,-4,0,-3,-5,-13,-17,-5,-3
1528873190857454,-3,-6,-2,-1,-13,-17,-3,-3
1528873190857454,-8,-6,-3,-3,7,7,-4,-3
1528873190857454,5,8,1,0,8,4,3,-2
1528873190879378,7,4,-2,2,-16,-8,1,5
1528873190879378,1,-4,2,7,36,41,3,0
1528873190880355,3,5,1,4,-9,-1,5,3
1528873190880355,2,1,-1,-4,3,-17,-4,-1
1528873190894333,-12,-7,-3,-4,-5,12,-7,-7
1528873190894333,-4,-2,0,1,-14,-16,-2,-4
1528873190902294,4,3,2,1,1,-19,1,7
1528873190902294,-2,1,-4,-2,5,9,-1,-4
1528873190917254,1,-1,-2,-4,-13,-3,3,9
1528873190917254,-2,-6,-1,0,-8,-11,-6,-3
1528873190918263,-5,0,1,4,17,13,1,-2
1528873190918263,1,1,0,0,0,6,2,2
1528873190939236,1,-2,-2,-1,-7,-12,-4,-4
1528873190939236,-3,2,-1,-6,0,0,-2,-4
1528873190940225,-2,-6,-2,-1,-4,7,-2,-2
1528873190940225,2,4,1,0,1,-3,2,1
1528873190954190,-3,4,2,-1,-6,3,-2,-4
1528873190954190,-2,-5,-2,-3,2,0,-1,0
1528873190962136,6,8,0,0,1,-5,2,2
1528873190962136,-1,-6,-1,0,-2,0,2,1
1528873190977106,-4,-3,-1,1,3,-3,-3,-5
1528873190977106,-2,1,3,-1,-12,-12,-2,-2
1528873190978093,-7,-9,-7,-10,2,5,-4,-6
1528873190978093,0,4,1,-1,-3,3,-4,0
1528873190999092,-4,0,-1,-3,-3,-2,2,0
1528873190999092,5,3,5,5,-5,-4,3,2
1528873191000078,0,-3,-5,-6,-8,0,-3,-3
1528873191000078,-1,-1,-6,16,17,0,-1,0
1528873191014050,-1,2,0,-8,-2,-1,-2,-1
1528873191014050,2,1,1,1,-11,-4,-1,0
1528873191022027,-1,0,6,19,8,1,0,-3
1528873191022027,-3,-6,-10,-33,-3,1,-1,0
1528873191036999,2,0,-1,2,0,1,-2,-3
1528873191036999,-2,-2,-4,-7,3,1,0,1
1528873191037933,0,-1,0,-5,-23,-13,-3,-1
1528873191037933,-6,-8,1,2,-7,-7,-4,-6
1528873191059874,-1,-2,-6,9,23,13,2,1
1528873191059874,1,2,1,5,1,2,2,0
1528873191059874,-2,1,8,-28,-29,-10,-4,1
1528873191059874,-4,-8,4,22,36,7,0,-2
1528873191082813,-5,-10,-5,19,-10,-7,-4,-2
1528873191082813,-2,-8,-18,19,13,1,-1,-2
1528873191083810,-2,8,-2,-35,3,3,-1,-6
1528873191083810,6,13,24,32,-15,-1,1,20
1528873191096782,2,1,1,-43,-10,-6,2,3
1528873191096782,-6,-20,-40,-52,-5,-2,-3,-8
1528873191097772,-1,2,9,72,13,1,5,15
1528873191097772,0,3,-6,-95,-27,-3,-1,-20
1528873191119771,-5,9,19,65,16,3,-10,-8
1528873191119771,10,9,15,-2,-2,1,4,9
1528873191120764,-2,-6,-13,-25,6,3,2,-7
1528873191120764,-1,-7,-1,30,0,1,0,-1
1528873191142707,0,5,9,89,21,0,4,-1
1528873191142707,-12,-6,-16,-101,-22,-3,-8,-20
1528873191143650,7,-10,-11,55,14,1,4,18
1528873191143650,0,-8,-6,-19,-10,-2,-2,2
1528873191156668,3,-6,-15,-72,-14,-6,-6,-3
1528873191156668,-5,1,24,70,5,-1,-4,-4
1528873191157650,-14,2,-6,49,17,2,2,-22
1528873191157650,4,-12,2,-28,-8,-1,-2,18
1528873191179608,-1,-2,1,-43,-13,-2,-7,1
1528873191179608,-2,-1,-4,-3,-3,-11,-4,3
1528873191180608,1,-6,2,7,-5,-4,-12,-3
1528873191180608,1,8,-8,22,7,4,14,-2
1528873191202547,-2,-2,-5,0,-4,7,-1,1
1528873191202547,0,3,5,5,12,14,-13,-2
1528873191203491,7,-2,-2,-35,-14,-32,-50,-13
1528873191203491,-22,1,-5,24,9,39,48,-8
1528873191217517,17,12,3,-31,5,2,-21,23
1528873191217517,-9,-14,2,17,-8,-13,28,2
1528873191217517,-3,-6,-4,3,15,2,24,8
1528873191217517,-1,-6,-5,2,-10,-10,-41,-14
1528873191238627,3,1,-4,9,-13,-13,15,1
1528873191238627,-1,4,1,4,-22,-34,-41,-7
1528873191247886,-1,-4,-3,-24,-6,-4,-13,-2
1528873191247886,-1,2,-3,17,29,40,11,-2
1528873191263404,-7,-7,-2,-2,-4,-3,4,-8
1528873191263404,8,2,-4,23,16,9,-1,8
1528873191265139,-1,2,-1,-32,-28,-9,12,0
1528873191265139,-1,2,1,-3,-12,-44,-14,-5
1528873191285073,-3,-10,9,1,-5,11,0,-4
1528873191285073,-7,8,-11,8,28,42,20,5
1528873191287068,-3,-2,10,-5,12,7,6,-2
1528873191287068,20,21,13,3,0,-2,-8,6
1528873191299071,3,-2,-1,-9,-20,-27,-7,1
1528873191299071,-1,-17,-12,-9,-2,-15,-3,-5
1528873191308012,-7,-1,3,2,15,30,12,3
1528873191308012,-11,-16,-15,0,-5,-21,-16,-7
1528873191323011,3,5,-5,0,-5,-9,7,-5
1528873191323011,2,2,7,-5,-5,8,4,1
1528873191324007,-8,-2,-6,-9,-6,4,-7,-5
1528873191324007,-7,-8,-4,-4,-4,-18,-9,-7
1528873191344913,-1,1,2,-11,-10,8,8,1
1528873191344913,2,4,5,-1,-3,-4,2,2
1528873191346908,5,3,-5,-3,17,14,0,4
1528873191346908,1,-5,-4,-15,-33,-10,3,3
1528873191358877,-12,-2,7,47,36,-8,-4,-10
1528873191358877,1,-2,1,-14,12,22,4,4
1528873191367852,8,9,0,-8,-19,-4,5,4
1528873191367852,2,6,-1,2,14,8,2,1
1528873191383083,-5,-9,-12,-18,-13,0,-3,-1
1528873191383083,-3,-3,11,21,-8,-23,-8,-4
1528873191385064,1,5,-1,-2,0,1,0,-1
1528873191385064,-2,-5,-3,-6,-13,1,-1,-5
1528873191405472,0,-2,-9,-7,0,-6,-3,8
1528873191405472,-1,-2,-1,4,7,1,0,-3
1528873191407462,2,1,-3,-8,-11,1,0,0
1528873191407462,-1,4,-6,6,3,-5,-3,-3
1528873191419671,0,2,1,1,7,4,0,-4
1528873191419671,1,2,1,-9,-1,7,2,2
1528873191428536,-1,-3,-1,-2,-9,-9,-3,-2
1528873191428536,-2,1,0,-1,4,-4,-3,1
1528873191442679,-2,-5,-2,-1,5,10,2,-2
1528873191442679,1,1,3,15,-11,-3,-1,1
1528873191444337,-2,-2,-4,-31,-11,-9,-4,-6
1528873191444337,2,-1,7,36,24,5,1,2
1528873191465572,-4,0,-9,-15,-7,4,0,-3
1528873191465572,0,1,-1,-20,-8,-5,-1,-1
1528873191466570,-2,-5,2,9,-1,-6,-1,-2
1528873191466570,0,2,7,-13,-2,2,0,1
1528873191479661,-1,-7,-10,45,7,5,2,1
1528873191479661,-3,-6,-12,-26,-3,-7,-9,-12
1528873191487786,0,1,3,-22,-4,-2,6,10
1528873191487786,1,-5,2,59,9,1,-3,-5
1528873191502699,-7,3,-5,-84,-17,-3,1,0
1528873191502699,-1,-3,-1,28,8,6,7,7
1528873191508505,-11,-4,-10,29,11,-1,-7,-9
1528873191508505,14,20,11,10,-1,-2,-13,12
1528873191525852,-2,-13,-7,-44,-15,-2,4,0
1528873191525852,7,9,15,36,7,1,9,-5
1528873191526699,1,-5,1,-5,-5,-2,-4,-2
1528873191526699,-4,3,-4,81,20,3,10,-1
1528873191548231,-2,1,3,-78,-24,-6,-14,-3
1528873191548231,-5,1,1,24,1,0,-1,0
1528873191550082,-1,-3,-12,-36,1,-4,-6,-7
1528873191550082,-3,-10,0,3,-13,-4,2,6
1528873191562299,0,4,3,37,9,2,-5,-7
1528873191562299,3,0,-4,-16,-4,-1,6,1
1528873191569256,3,2,5,22,2,1,3,6
1528873191569256,-3,-10,-15,-76,-15,-6,-4,-4
1528873191585697,-1,2,5,19,2,-2,-1,-6
1528873191585697,-3,-3,-8,-19,-7,-6,-6,-7
1528873191587287,-1,4,4,32,9,9,-27,-7
1528873191587287,2,-3,0,-36,-13,-8,26,11
1528873191608435,-3,-7,-3,31,10,0,-7,0
1528873191608435,1,3,6,4,12,16,-2,-18
1528873191609343,0,9,-2,16,-3,16,40,19
1528873191609343,-1,-15,1,-36,-2,-5,-8,-6
1528873191622460,7,10,0,28,0,-11,-5,3
1528873191622460,-11,-14,-9,-27,-14,-18,-14,0
1528873191629598,-3,-1,-2,-20,-2,4,-4,-1
1528873191629598,-2,1,-2,10,7,3,-11,-8
1528873191645987,1,1,-4,14,5,8,12,1
1528873191645987,0,5,5,-3,-15,-8,-5,2
1528873191647688,3,-3,1,19,16,-5,-5,-3
1528873191647688,-1,2,-5,3,4,16,4,-1
1528873191668525,-4,-7,3,1,-2,0,-1,-3
1528873191668525,-2,-10,-12,-10,-4,-2,1,2
1528873191669448,1,11,7,4,-17,-18,-5,-1
1528873191669448,-5,1,-5,-9,-2,-12,-7,-5
1528873191682867,-2,-6,1,-11,15,25,2,-1
1528873191682867,-2,-6,-8,13,0,2,3,2
1528873191689134,-2,-8,1,-3,-2,-10,1,3
1528873191689134,3,5,2,-8,-1,1,-6,4
1528873191705534,-5,-1,-1,4,-7,-6,3,-8
1528873191705534,-1,2,7,-2,1,0,-1,4
1528873191707120,-1,-5,-3,7,4,2,-2,-7
1528873191707120,1,8,5,-38,-16,0,1,7
1528873191727385,1,-1,-1,9,-1,-6,0,6
1528873191727385,3,3,1,1,4,1,-4,-3
1528873191729371,-4,1,-5,-1,-4,-2,0,-4
1528873191729371,-2,-7,-6,0,-5,-3,-2,-3
1528873191742338,0,-2,-2,-6,5,-2,0,-1
1528873191742338,3,9,7,17,7,3,0,1
1528873191748586,2,0,-3,-34,-10,-2,-2,0
1528873191748586,-5,-11,-5,1,-4,-3,-2,-3
1528873191765665,-1,1,-1,14,-1,-1,2,-2
1528873191765665,0,4,-2,-26,-9,-3,-1,0
1528873191767251,1,-3,3,15,7,2,1,0
1528873191767251,-5,1,1,-8,-2,-1,-11,-10
1528873191788080,-4,0,-3,4,1,0,6,9
1528873191788080,0,-4,-1,9,0,-1,-1,-7
1528873191789374,-2,-6,-3,-7,-2,0,-1,5
1528873191789374,1,0,-3,2,0,-1,-2,-2
1528873191802675,1,3,-2,-6,-2,-4,0,-3
1528873191802675,-1,0,1,0,-1,0,-2,2
1528873191809359,1,-3,-3,-3,-7,-3,-2,-5
1528873191809359,-3,-2,-2,7,2,3,-2,-5
1528873191825345,2,-2,-5,-2,-2,-3,-3,4
1528873191825345,2,1,2,0,-1,-2,3,6
1528873191827309,-1,2,-1,-13,0,-3,-5,-7
1528873191827309,-3,-3,-3,5,0,0,-2,0
1528873191848508,-1,-1,-4,-21,-3,1,0,-4
1528873191848508,-2,-2,-6,-2,-1,-4,-4,1
1528873191850246,-2,-9,1,6,-2,-3,-1,-1
1528873191850246,-1,2,2,1,-4,-3,2,-1
1528873191862474,-2,0,-4,-3,-3,-4,-4,0
1528873191862474,-2,-3,2,6,4,0,0,2
1528873191869458,2,0,-5,-4,-6,2,-2,-1
1528873191869458,-1,-2,-1,-2,3,2,5,-3
1528873191885415,-1,-4,2,7,0,1,-6,-1
1528873191885415,-1,-1,-2,-4,-2,0,2,-2
1528873191887452,-2,-1,0,4,-1,-5,0,-1
1528873191887452,-1,-4,-2,-7,0,1,-1,3
1528873191908361,-1,1,0,3,-1,-3,-5,-6
1528873191908361,-1,-2,-3,-5,-2,1,4,1
1528873191909312,-1,-1,1,0,-1,1,-4,-3
1528873191909312,0,0,-4,3,3,0,4,0
1528873191922310,-2,-3,-2,13,-1,-3,-3,-2
1528873191922310,-1,-2,-1,-25,-9,-2,-3,-1
1528873191929038,0,-2,-1,8,17,5,0,-1
1528873191929038,-2,0,-2,-1,-4,-2,-1,-1
1528873191944992,-1,0,-1,4,1,-2,-1,-3
1528873191944992,-2,-2,-3,-3,-4,-1,-2,-2
1528873191946987,-2,-1,-2,-2,-4,-2,1,-1
1528873191946987,0,0,1,-4,-2,-2,-2,-1
1528873191967935,-2,-2,-1,8,1,0,0,-1
1528873191967935,0,1,2,-21,-2,-1,-1,0
1528873191970073,-2,0,0,-3,-2,-2,0,-1
1528873191970073,-2,-1,0,4,4,1,0,-1
1528873191982089,0,0,1,-3,-5,-2,-2,-1
1528873191982089,-2,-1,-2,8,1,-1,-2,-2
1528873191991113,-1,-4,-2,1,-4,-2,-1,-1
1528873191991113,1,5,7,-6,-1,1,-1,1
1528873192006025,-1,2,0,-2,-2,-3,-5,-2
1528873192006025,0,-2,-1,4,1,0,-2,0
1528873192006831,-2,1,1,-5,-3,-1,3,-1
1528873192006831,0,-5,-4,2,-3,-1,-4,-3
1528873192028334,-2,1,1,-1,1,1,0,-1
1528873192028334,-1,-3,-1,6,1,0,-2,1
1528873192029076,-1,0,-3,-2,-3,-3,-1,-2
1528873192029076,-3,-2,-4,-2,-2,-3,-2,-2
1528873192041761,-1,-1,0,-5,-3,0,-1,-2
1528873192041761,-1,-2,-6,1,1,0,-1,-1
1528873192050359,-2,-2,5,5,1,0,3,-2
1528873192050359,-1,-1,-6,-3,0,-1,-2,-3
1528873192065560,0,0,3,-1,1,0,1,0
1528873192065560,-4,-1,-5,3,-4,-2,-9,-5
1528873192067294,0,-2,-3,-5,-5,-2,3,3
1528873192067294,-3,2,6,10,4,0,2,0
1528873192088436,-1,-3,-7,-3,-1,0,1,-1
1528873192088436,-1,0,6,3,-3,-1,-1,-1
1528873192089343,-2,-2,-13,-4,4,3,-4,-1
1528873192089343,-1,-2,0,-8,-7,-3,-6,-1
1528873192101204,-1,-1,0,4,-1,1,3,1
1528873192101204,1,-2,5,4,1,-2,-6,0
1528873192110180,-2,-2,-15,-14,-7,-3,-2,-1
1528873192110180,-1,1,11,11,1,0,-2,0
1528873192125405,-3,0,-5,-7,-1,-2,-1,-1
1528873192125405,-1,0,2,1,3,1,0,-2
1528873192127149,-1,1,13,4,-5,-3,-4,-2
1528873192127149,-1,-3,-7,-8,0,-1,-3,-1
1528873192149650,-1,-2,3,3,0,-4,-2,-2
1528873192149650,-1,0,-5,-2,-2,4,3,-1
1528873192152635,-1,-2,-1,-11,-9,-3,-4,-1
1528873192152635,-2,-1,-2,3,5,1,2,0
1528873192154616,1,-2,-1,2,6,4,-1,1
1528873192154616,-1,0,-1,-3,-2,-5,1,-1
1528873192164609,0,-1,2,-2,-2,-1,-2,-2
1528873192164609,0,0,2,-5,-6,-6,-2,-1
1528873192176610,-2,-1,-2,-4,-5,-6,-2,-1
1528873192176610,-1,1,0,1,1,-1,-1,-1
1528873192185375,-2,-1,4,2,0,0,1,0
1528873192185375,1,-1,-9,-10,1,4,4,0
1528873192199896,1,0,-2,-3,2,4,-1,0
1528873192199896,1,-1,2,-1,-2,-4,-2,-2
1528873192201868,0,0,2,3,3,0,8,1
1528873192201868,-1,-1,8,9,-1,-1,-1,1
1528873192214200,1,2,-2,-6,-2,1,-4,-1
1528873192214200,0,-1,-2,0,-3,-5,1,3
1528873192222905,1,0,1,1,-8,-8,-7,-1
1528873192222905,1,-1,-8,-3,6,-5,1,-1
1528873192236220,-1,-4,3,1,2,14,1,-2
1528873192236220,-1,1,0,1,4,14,6,-1
1528873192247192,0,1,-2,-3,-1,-3,-2,0
1528873192247192,-1,-1,-6,0,-1,-4,-1,-1
1528873192260158,-1,-1,0,-1,-6,-14,-4,-3
1528873192260158,0,-1,-5,-3,-4,-7,-2,-3
1528873192262152,0,-3,-2,0,4,3,-1,-2
1528873192262152,-1,0,5,0,-5,-2,-2,-2
1528873192274156,-1,0,0,0,0,-2,0,-1
1528873192274156,1,0,-1,1,2,8,2,-1
1528873192283095,0,1,-3,-6,-2,2,0,-1
1528873192283095,0,-1,-4,-2,0,1,0,0
1528873192296112,-1,0,-2,-4,-2,-3,-1,1
1528873192296112,-2,1,7,6,-6,-8,-2,-1
1528873192305036,0,-1,-3,-3,4,-3,-2,-2
1528873192305036,-1,-2,-5,-4,-1,13,1,-2
1528873192320049,0,-1,1,4,1,2,2,-1
1528873192320049,0,-1,-4,-4,-3,-6,-2,0
1528873192321991,0,-1,4,4,-3,-7,-2,1
1528873192321991,-2,0,-4,-7,0,7,-2,-1
1528873192334023,-2,-2,2,4,-3,-11,-1,2
1528873192334023,0,-1,-4,-3,3,9,-1,-2
1528873192342935,0,0,-1,2,1,8,2,-1
1528873192342935,-2,-1,2,-1,1,-7,-1,1
1528873192355901,-1,0,0,-1,3,-1,-2,-1
1528873192355901,-1,-1,-3,-4,-1,-5,-3,-2
1528873192364911,-1,-3,-1,0,1,-6,-3,1
1528873192364911,-1,0,2,0,-3,6,1,-1
1528873192379836,-1,0,-4,-4,-4,-1,-1,-2
1528873192379836,0,0,-2,-2,-3,-6,-2,0
1528873192381832,-1,-1,-2,-2,-1,3,1,-1
1528873192381832,0,-1,0,1,-2,-5,-2,-2
1528873192393816,-2,-2,-1,-5,-6,-1,-2,-3
1528873192393816,-3,-2,1,4,3,-6,-1,-2
1528873192402776,1,-1,-2,-1,1,6,0,-2
1528873192402776,-1,0,-4,-2,-5,-2,-1,-1
1528873192416744,-3,-4,-5,-3,-4,-1,0,-2
1528873192416744,-2,-2,-2,-1,0,2,0,1
1528873192425765,-1,-1,-3,3,2,-4,-1,1
1528873192425765,0,0,0,-3,1,-3,-1,-1
1528873192439713,-1,0,0,-1,-2,-4,-2,-1
1528873192439713,0,-3,-4,-4,0,4,-1,-1
1528873192441690,-2,-3,1,3,0,1,1,-4
1528873192441690,0,0,0,-1,-1,0,-1,0
1528873192453697,0,2,0,1,-3,-2,0,1
1528873192453697,-1,0,-1,-2,3,-4,-1,-2
1528873192462618,-1,-3,1,0,-5,1,-1,-2
1528873192462618,-2,-3,-1,1,-2,-3,-2,-1
1528873192476578,-2,-3,-4,-2,-1,0,-2,-3
1528873192476578,-2,-1,0,-3,-1,-1,0,0
1528873192485600,-4,-1,-1,-2,-1,0,0,-3
1528873192485600,-1,-2,0,-3,-2,-3,-1,-2
1528873192498573,-1,0,0,-1,1,-1,-1,0
1528873192498573,-2,-1,-1,-3,-1,0,-1,0
1528873192507516,-2,-2,-1,0,0,-2,-2,-1
1528873192507516,-2,1,2,1,-3,-3,-1,-1
1528873192513495,0,-1,0,0,0,0,1,-3
1528873192513495,0,-2,-2,-2,-2,0,0,-3
1528873192522502,0,0,1,-3,-1,-1,-2,-2
1528873192522502,-3,-1,-3,-1,-2,-1,0,0
1528873192537416,-1,-1,-3,-1,2,1,-2,0
1528873192537416,-2,-1,-2,0,-2,-2,1,0
1528873192545406,-1,-1,-4,-2,-2,-3,-1,2
1528873192545406,-2,-3,0,1,-1,-2,-3,-2
1528873192559544,-1,-1,-1,-2,1,0,0,-1
1528873192559544,1,1,0,2,0,-1,-3,0
1528873192566338,-2,-2,-2,-2,-2,-2,2,-1
1528873192566338,1,-1,-2,-2,-2,-4,0,-2
1528873192574324,-1,-2,0,-1,-2,0,-2,-1
1528873192574324,-1,-3,0,0,-1,-1,-2,-1
1528873192583294,0,0,-2,-2,-1,-1,-3,0
1528873192583294,-2,-1,-1,0,-2,-2,-1,-2
1528873192596555,-1,-2,0,0,-2,0,0,-2
1528873192596555,-1,-2,0,-2,-3,0,-2,-2
1528873192605533,0,-3,-1,-1,0,-1,0,0
1528873192605533,-1,-3,-1,-2,-3,-2,-2,-1
1528873192619497,0,0,1,0,0,0,-1,0
1528873192619497,-1,-1,-1,0,2,0,0,-1
1528873192626780,0,1,-2,0,-1,0,0,-1
1528873192626780,-3,-6,-5,0,-1,-1,-3,0
1528873192634332,-2,-1,-1,-1,0,0,-1,-2
1528873192634332,-1,-1,-3,-1,-2,0,1,1
1528873192642634,-1,0,1,0,0,-2,-1,-1
1528873192642634,0,0,0,-3,-2,-2,-1,-2
1528873192656763,-3,-2,-1,-2,-1,-1,0,0
1528873192656763,-2,-3,0,-1,-1,-2,1,-1
1528873192664910,-4,-1,-4,-2,-1,-1,-2,-1
1528873192664910,-4,-2,-3,-1,0,0,-1,0
1528873192680294,-1,-4,-2,-1,0,0,-1,-2
1528873192680294,-1,-1,0,-2,-2,-1,-1,-1
1528873192686347,-1,-1,-1,-1,-1,-1,-2,-2
1528873192686347,-1,-1,-1,-2,1,0,-1,0
1528873192694129,1,1,-1,-1,-2,-2,-1,0
1528873192694129,-2,-2,0,-1,-1,-1,1,-1
1528873192703051,-2,-1,0,-2,-1,-2,-2,1
1528873192703051,0,-1,-2,0,-1,2,1,2
1528873192716270,-2,-2,-1,-1,1,2,2,0
1528873192716270,-2,1,3,0,1,1,0,1
1528873192726245,4,2,3,1,1,0,1,-1
1528873192726245,1,2,2,0,0,-1,0,0
1528873192739796,1,0,-2,-2,0,0,1,1
1528873192739796,-2,0,-1,-2,0,0,-1,-2
1528873192746500,-1,-2,-2,-1,0,1,0,0
1528873192746500,0,1,-1,-1,-1,0,0,-1
1528873192762665,0,-1,-3,-2,-2,2,-2,1
1528873192762665,1,-2,0,-3,-2,-1,-3,0
1528873192764677,0,0,-1,0,1,0,0,0
1528873192764677,2,1,1,-1,0,2,-1,-1
1528873192776632,-1,1,0,0,0,-1,-2,-2
1528873192776632,-1,-1,-4,-2,-1,-3,0,-1
1528873192785792,1,1,2,-2,-5,-1,-2,-1
1528873192785792,1,-3,-3,-1,-2,-3,-3,-1
1528873192800020,-3,-2,-5,-2,-3,-2,-1,-2
1528873192800020,0,0,-1,0,-4,-1,-3,-2
1528873192805890,-3,0,-5,-2,-2,0,-1,-2
1528873192805890,-2,-2,0,-1,0,-1,0,0
1528873192822848,1,-1,0,-2,0,-2,0,0
1528873192822848,-1,-3,-4,-1,0,-1,-1,0
1528873192823847,-2,-1,-1,0,0,0,-2,0
1528873192823847,-1,0,0,-1,0,-3,0,-3
1528873192836643,-2,-2,-2,0,-4,-3,-1,0
1528873192836643,-1,0,-1,-1,-1,-1,0,-1
1528873192845583,-1,-2,-2,-3,-1,-2,-2,-2
1528873192845583,-3,-1,-1,-1,-1,-1,0,-1
1528873192859554,1,-1,3,-1,1,0,-2,-1
1528873192859554,-1,-1,-3,-1,-1,0,-2,1
1528873192866755,-2,-1,-2,-2,-3,0,-1,0
1528873192866755,0,1,-1,-2,-1,-2,-1,0
1528873192882541,-2,0,-1,0,1,-2,-1,-3
1528873192882541,0,-1,-1,1,0,-1,-1,-1
1528873192884533,0,-2,1,0,1,-1,0,-2
1528873192884533,-1,-1,-2,-1,-1,2,-2,0
1528873192896775,-1,1,3,0,0,0,0,0
1528873192896775,-1,-2,-3,-3,-2,0,0,-1
1528873192905535,-2,0,1,0,-1,0,-1,-1
1528873192905535,0,-1,-2,-1,0,-1,-2,-2
1528873192919733,-2,1,1,-2,-2,-2,-1,-1
1528873192919733,-2,0,0,1,0,0,1,-1
1528873192926564,-1,-2,-1,-2,-2,-1,0,-1
1528873192926564,-1,1,-2,-2,0,-1,0,-3
1528873192942867,0,-3,0,-1,0,1,-1,0
1528873192942867,-1,1,1,-2,1,-2,-1,-1
1528873192944520,-2,0,-2,-1,-1,-2,-1,-2
1528873192944520,-1,-2,0,-1,-2,-1,-2,-1
1528873192956714,0,0,-3,-1,-2,-3,-2,0
1528873192956714,-1,1,2,-1,-2,-1,-1,-1
1528873192965460,-3,-4,-6,-2,0,-2,0,-1
1528873192965460,-1,0,-1,-1,0,0,-1,-1
1528873192979423,-1,0,-1,0,0,-2,-2,-1
1528873192979423,-2,0,-1,-2,-1,-2,-2,-3
1528873192986646,0,1,-1,-1,-1,-1,-2,-1
1528873192986646,-1,-1,0,-3,-1,-1,2,1
1528873193003155,0,-1,0,-1,-2,-1,0,0
1528873193003155,2,-3,-1,-3,1,0,-2,-1
1528873193005048,-2,-2,-1,1,0,0,1,-1
1528873193005048,0,0,-1,1,0,0,0,-1
1528873193016870,-1,-1,-2,0,-2,1,-1,-2
1528873193016870,-3,-2,0,-1,-1,-1,-1,-1
1528873193023855,1,0,0,-2,-2,-2,-2,0
1528873193023855,0,-2,-2,-1,-3,-2,-3,0
1528873193048547,-2,-1,-4,-2,-1,1,-1,-1
1528873193048547,0,-3,-2,-2,-2,0,-1,0
1528873193049465,-1,-3,-3,-2,0,-2,0,-2
1528873193049465,-2,-1,0,-2,0,-1,-2,-1
1528873193070687,-2,0,-2,0,-3,0,-2,-1
1528873193070687,-3,0,-2,0,0,0,1,-1
1528873193071395,1,0,1,0,-2,-1,-1,-1
1528873193071395,-3,-3,-6,1,0,-2,-1,-1
1528873193084450,0,-2,-1,0,0,-1,0,-1
1528873193084450,0,1,-1,0,-1,-1,0,0
1528873193092776,-2,-1,0,-2,-1,0,0,-1
1528873193092776,-2,-1,0,-1,-1,-2,-2,0
1528873193108557,0,0,0,-1,0,-1,-2,-1
1528873193108557,0,0,-2,0,0,-1,-1,-1
1528873193109398,-1,-1,-2,1,0,0,-2,-1
1528873193109398,0,0,1,-1,-1,-1,-2,0
1528873193130747,-1,-2,-1,-2,-2,-2,0,-2
1528873193130747,1,-1,0,-1,-1,0,-2,-1
1528873193131735,-1,-2,-1,-1,1,-1,-2,-1
1528873193131735,-1,-1,-2,-1,0,0,-2,-2
1528873193143959,0,-1,-1,-1,-1,0,1,-1
1528873193143959,-2,-4,-5,-3,-3,-2,0,-1
1528873193152935,0,0,1,0,-2,-1,-1,-1
1528873193152935,-2,-1,0,-1,-1,-2,-3,-1
1528873193168243,0,0,1,-2,0,-1,-2,-2
1528873193168243,-2,0,0,-1,-1,-1,-1,-3
1528873193170079,0,-2,-1,-1,-1,-1,-1,2
1528873193170079,1,-1,-1,-3,-2,-1,-1,-1
1528873193190323,-2,0,0,-1,-2,0,0,-1
1528873193190323,1,-1,0,-2,-1,-1,-2,-1
1528873193192529,-3,-2,-3,-1,-1,-2,-2,-2
1528873193192529,-2,-2,-1,-2,1,0,-2,-2
1528873193203579,-2,-3,-1,-4,-2,-2,-1,-1
1528873193203579,-3,-2,-2,0,1,-1,1,0
1528873193212703,-1,-1,0,-2,-2,-1,-1,-2
1528873193212703,0,-1,0,0,0,-1,0,0
1528873193228549,-2,-3,-2,-1,0,1,0,1
1528873193228549,0,0,-1,0,-2,-1,-2,-1
1528873193229510,-1,0,0,0,1,-3,-1,-1
1528873193229510,-1,-2,-1,-1,-1,-2,-1,-2
1528873193250696,-1,0,-1,-1,0,-2,-1,-3
1528873193250696,-1,0,-3,-1,-2,-1,-1,0
1528873193251732,-1,-2,-2,-1,-1,-2,-2,-1
1528873193251732,0,-1,-1,-1,-3,0,0,-1
1528873193264446,-1,-3,-5,-1,0,-3,0,1
1528873193264446,-1,-2,0,-1,-1,0,-2,-2
1528873193273657,0,-2,-1,-1,-1,-2,0,0
1528873193273657,0,0,-1,0,-3,0,1,0
1528873193288322,-1,0,0,-1,-3,-2,-1,0
1528873193288322,0,-1,2,-1,-1,-1,-1,-3
1528873193290030,-1,-1,-1,-2,-2,1,-1,-1
1528873193290030,0,1,0,-1,-1,-1,-1,-3
1528873193310903,-2,0,0,-1,1,0,-1,-1
1528873193310903,0,1,-1,0,-1,-2,-2,0
1528873193311892,-1,-2,1,-2,-1,-1,0,-1
1528873193311892,-1,-1,0,-2,-2,0,0,-1
1528873193323892,0,1,0,1,-2,-1,0,-1
1528873193323892,-1,-2,-1,-2,2,-1,-1,0
1528873193332835,-2,-1,0,0,-1,-2,-2,-2
1528873193332835,-1,-1,1,0,0,-3,-1,1
1528873193348058,0,-3,-3,-2,1,-1,0,0
1528873193348058,0,-1,0,1,-2,1,0,-2
1528873193349790,-1,-1,-2,0,-3,0,-2,-2
1528873193349790,-2,0,0,0,-2,-1,-2,-3
1528873193371004,-2,-2,-2,-2,0,-2,-2,-1
1528873193371004,-3,-1,0,-1,-2,-1,-1,0
1528873193371816,-2,-2,-1,-1,0,-1,-1,-2
1528873193371816,0,-2,-2,-1,0,-1,-1,0
1528873193383817,0,-1,1,-2,-4,0,0,0
1528873193383817,-2,-3,-2,-3,0,-1,-2,-2
