timestamp,emg1,emg2,emg3,emg4,emg5,emg6,emg7,emg8
1528446526130163,0,-2,-1,1,0,1,-1,-1
1528446526130163,-1,0,-1,-2,-1,-1,0,-1
1528446526140137,0,0,0,-1,-1,-1,-1,0
1528446526140137,0,0,0,0,-1,-1,-1,2
1528446526146120,-2,-1,-1,0,-1,0,1,-2
1528446526146120,0,0,0,1,0,-1,0,-2
1528446526156094,0,-2,-2,1,-2,-2,-2,1
1528446526156094,-1,0,0,-2,0,0,-2,-2
1528446526168061,-1,0,-3,-1,-1,0,-2,0
1528446526168061,0,0,0,-1,0,-2,0,1
1528446526176040,-1,-1,-2,0,-1,1,1,-1
1528446526176040,0,-3,-2,0,0,-3,-1,0
1528446526191001,0,2,-1,-1,-2,0,1,-1
1528446526191001,0,-1,-1,-1,1,0,-1,-1
1528446526197981,-2,0,0,0,0,-1,-1,-2
1528446526197981,-1,-1,0,-1,-2,-1,0,-1
1528446526214937,1,0,0,-1,-1,-2,-1,-1
1528446526214937,0,-1,-1,0,-1,-2,0,-1
1528446526220919,0,0,0,-1,-2,0,-1,-1
1528446526220919,-1,-1,-1,-1,-2,0,-1,-1
1528446526235882,-1,-1,0,0,-1,-1,-2,0
1528446526235882,0,1,0,-3,-1,0,-1,0
1528446526250840,-1,-1,0,-1,0,-1,0,0
1528446526250840,-1,0,0,-1,-1,2,-2,-2
1528446526269790,0,-1,-1,0,3,2,2,1
1528446526269790,-1,0,1,-1,-1,-1,1,0
1528446526280761,-2,0,0,-2,-3,-2,-1,1
1528446526280761,-2,-2,-1,1,-1,-2,-2,0
1528446526287742,1,-1,-1,-2,-4,-3,-2,-3
1528446526287742,0,-1,-1,-1,-1,0,0,-2
1528446526302701,-1,-1,0,1,-2,-4,-4,-3
1528446526302701,-2,-1,-2,-2,-1,-6,-7,-1
1528446526320653,0,0,-4,-3,-1,1,-3,-1
1528446526320653,-1,-1,0,-1,1,3,10,3
1528446526333646,-1,-2,-1,0,2,-1,-9,-6
1528446526333646,-3,-5,-14,-4,-5,-12,-5,-3
1528446526340636,2,3,6,1,12,24,16,7
1528446526340636,1,1,6,1,2,-1,-6,1
1528446526355613,-1,1,10,0,-2,4,3,0
1528446526355613,-2,-2,-1,-2,-3,-5,6,-2
1528446526363539,-1,-3,-17,-4,-3,-7,-13,-2
1528446526363539,0,3,1,-1,1,-2,1,-1
1528446526378551,-4,-4,1,-1,-4,-3,2,-2
1528446526378551,-4,-2,-8,-4,-3,1,-5,-8
1528446526393460,0,-8,-8,-6,-9,-23,-20,-2
1528446526393460,2,3,3,1,-2,-2,-7,-3
1528446526400476,0,0,2,0,7,12,24,4
1528446526400476,3,2,3,3,3,10,7,14
1528446526415399,-4,2,4,2,3,3,7,-19
1528446526415399,2,-4,-4,-4,-2,-4,3,16
1528446526424377,3,-2,-3,-2,-5,-17,-25,3
1528446526424377,-4,-2,-1,-1,1,6,5,-6
1528446526445320,3,-2,-8,-2,-5,-3,-7,4
1528446526445320,-5,-4,-2,-1,-4,-9,-10,-10
1528446526453298,-3,0,3,2,0,-3,-1,-5
1528446526453298,-6,0,3,0,1,2,-2,-11
1528446526460280,3,-1,-2,0,-1,8,14,12
1528446526460280,0,1,-2,-1,-2,-4,-9,-4
1528446526475262,-7,1,2,3,1,2,2,-10
1528446526475262,2,1,-3,0,-1,9,16,-8
1528446526483221,-2,0,-3,1,-3,2,-1,16
1528446526483221,10,5,11,10,8,4,6,14
1528446526498199,10,5,6,-6,-13,-11,-7,7
1528446526498199,-9,4,8,6,-4,-10,-9,-22
1528446526513179,1,-4,-1,-5,-3,-13,-10,13
1528446526513179,-1,3,8,9,10,13,6,-2
1528446526528100,0,-1,-16,0,6,10,13,-3
1528446526528100,3,-11,-8,3,-9,-9,2,9
1528446526543059,-9,0,8,5,-5,-11,-18,-20
1528446526543059,-17,-8,-6,-4,-8,-14,-18,-44
1528446526551074,23,8,8,-4,8,25,24,69
1528446526551074,-2,2,-4,-16,-1,-3,3,-2
1528446526565998,3,-3,-5,-39,-2,0,-2,3
1528446526565998,-1,1,5,-11,-2,-7,-19,4
1528446526580957,4,4,1,-23,-5,-5,3,8
1528446526580957,-4,-1,0,-27,5,-1,-9,-22
1528446526595938,6,-7,-3,-20,2,12,16,20
1528446526595938,-10,11,5,7,6,15,11,-14
1528446526602919,-4,-4,-4,5,-5,-11,-9,-7
1528446526602919,-6,-13,-12,15,-4,-7,-11,-16
1528446526617909,3,7,7,32,2,-7,0,3
1528446526617909,14,5,3,23,5,6,5,28
1528446526632824,4,3,-2,10,-1,1,-7,5
1528446526632824,14,10,14,22,8,4,16,26
1528446526640831,-6,-10,-10,7,-5,1,-3,-10
1528446526640831,-5,2,-1,9,0,-1,0,-22
1528446526655813,5,2,8,1,0,-1,0,13
1528446526655813,-1,0,-4,-5,-5,-13,-26,-15
1528446526662787,-27,-7,-1,16,-4,-10,-14,-60
1528446526662787,16,8,10,16,2,4,16,44
1528446526677702,0,-7,-3,31,6,13,18,6
1528446526677702,-13,-3,-3,18,-6,0,-7,-29
1528446526692719,-2,4,7,33,-12,-17,-5,-6
1528446526692719,13,-1,7,50,-8,-15,0,33
1528446526700692,-4,-3,1,-14,6,9,1,-29
1528446526700692,21,8,4,-52,4,1,20,52
1528446526715599,12,1,3,-61,0,3,17,33
1528446526715599,-16,-4,-2,-34,-3,-9,-23,-29
1528446526722579,-4,-1,3,2,-11,-15,-10,-15
1528446526722579,-15,-2,2,45,14,15,-16,-62
1528446526745518,-10,-2,-6,62,-15,-25,-23,-16
1528446526745518,-17,-2,16,8,0,-8,-28,-73
1528446526760479,10,2,7,23,28,49,45,21
1528446526760479,-12,1,13,-40,-19,-17,-23,-47
1528446526768458,2,-1,13,-23,-7,-19,-12,-13
1528446526768458,-6,4,14,11,-7,-8,-26,-47
1528446526783417,-2,-4,5,-2,3,19,12,-26
1528446526783417,-1,1,15,16,-8,-11,-19,-35
1528446526805413,-13,-4,5,30,46,57,-1,-77
1528446526805413,11,7,19,17,5,-12,-13,-5
1528446526820373,-13,-21,-28,18,11,12,-9,-37
1528446526820373,2,-1,0,4,-11,17,5,7
1528446526828333,-2,1,-37,-53,-16,-9,-17,2
1528446526828333,-1,-9,-58,-31,-11,-7,0,31
1528446526843273,-4,0,-45,-60,-23,-30,-31,15
1528446526843273,-10,-12,-40,-40,-21,-35,-20,27
1528446526850267,13,3,-14,-22,22,18,25,77
1528446526850267,-9,-1,-6,-40,16,4,-5,35
1528446526858236,1,-1,12,-43,-17,-10,29,55
1528446526858236,3,-5,-7,-30,-24,-31,-1,49
1528446526873178,0,4,12,-10,-7,-16,15,29
1528446526873178,10,5,3,-14,-1,-9,7,35
1528446526880204,0,-4,-3,-8,6,12,24,17
1528446526880204,-17,-1,8,-9,-15,-25,-31,-42
1528446526895163,2,-2,0,12,9,18,8,-6
1528446526895163,-4,1,5,8,12,11,2,-22
1528446526903098,-25,-5,3,-11,-41,-59,-67,-62
1528446526903098,16,-6,-14,4,32,54,60,12
1528446526918106,-7,0,7,-1,-5,-5,-26,-10
1528446526918106,-2,-2,0,8,-12,-9,-15,19
1528446526933019,-1,0,12,4,-4,-4,-2,23
1528446526933019,-5,0,24,1,-6,-4,-20,6
1528446526940997,11,4,15,15,12,31,15,25
1528446526940997,4,-2,-1,-1,7,10,12,27
1528446526955956,-3,-2,-21,-17,-28,-26,-26,12
1528446526955956,-4,-4,-20,12,3,-10,-10,3
1528446526962940,10,-2,-12,-7,17,1,18,19
1528446526962940,13,4,-5,14,23,28,45,19
1528446526977897,11,1,-9,11,53,45,51,16
1528446526977897,-2,-3,-8,-19,6,3,22,4
1528446526992858,-1,-2,3,1,4,-13,10,46
1528446526992858,0,-3,-7,-15,-15,-32,-6,58
1528446527000841,2,-2,-9,-14,-49,-29,3,72
1528446527000841,-5,-3,2,8,18,-11,1,69
1528446527015797,-5,-3,-1,-38,-66,-54,-12,47
1528446527015797,3,2,-3,9,40,33,17,56
1528446527022778,-7,-8,-15,0,18,8,4,27
1528446527022778,2,4,6,11,23,15,14,32
1528446527037738,5,4,-48,-23,-39,-29,2,24
1528446527037738,3,1,-32,21,85,62,27,21
1528446527045716,-1,-4,-8,-21,-56,-8,1,13
1528446527045716,-4,-3,11,-7,-34,-46,-27,6
1528446527052698,-4,0,24,-12,-30,-39,-27,-4
1528446527052698,-6,-9,8,23,50,4,-3,-5
1528446527060676,8,4,10,-13,12,15,21,22
1528446527060676,-2,1,11,-6,-21,-4,6,8
1528446527082622,1,-4,9,-7,32,37,18,7
1528446527082622,-6,-4,2,-30,-83,-74,-51,-20
1528446527090597,-3,0,8,10,-20,-29,-18,-12
1528446527090597,2,2,3,-1,-6,-18,4,2
1528446527113535,0,2,6,-2,34,7,-1,-10
1528446527113535,11,6,3,27,63,117,56,17
1528446527120517,-2,-4,-10,-19,5,-13,-20,-13
1528446527120517,-4,-5,-17,-19,-34,-19,-16,-13
1528446527128495,1,2,-23,2,3,11,-4,-11
1528446527128495,-5,-2,-25,-14,-35,-44,-16,-14
1528446527135477,-5,0,-21,1,-14,-22,-21,-25
1528446527135477,-6,-2,-12,9,1,12,-4,-24
1528446527143455,4,3,19,16,34,32,13,-16
1528446527143455,7,7,15,-25,-19,-14,-4,-19
1528446527150437,-9,1,12,2,-10,-25,-23,-40
1528446527150437,-2,-1,9,5,16,25,7,-33
1528446527158416,2,4,14,2,32,30,12,-34
1528446527158416,-4,-6,5,-5,-25,-20,-11,-43
1528446527165395,0,6,9,-2,1,-2,1,-29
1528446527165395,-20,-16,3,19,1,-9,-22,-78
1528446527173375,15,18,13,7,3,8,2,-27
1528446527173375,15,-21,-6,-4,-6,5,13,-13
1528446527180358,-33,16,7,5,14,12,-9,-67
1528446527180358,34,21,0,3,-3,3,8,4
1528446527195318,10,21,18,14,5,5,26,35
1528446527195318,-3,18,15,-11,-18,-22,-18,-40
1528446527203295,18,-8,-6,5,15,14,19,11
1528446527203295,-14,0,-5,-1,-3,2,-11,-38
1528446527218338,-18,-20,-9,1,1,2,-13,-47
1528446527218338,-6,-5,-3,-5,-21,-32,-26,-24
1528446527225306,-2,2,11,22,6,10,9,-11
1528446527225306,7,5,6,-8,16,36,22,9
1528446527233281,0,-13,-20,3,5,5,2,-3
1528446527233281,-5,5,7,2,4,11,6,2
1528446527241279,2,-8,-5,-6,-9,-14,-14,-8
1528446527241279,5,-5,-4,7,0,3,5,15
1528446527256296,-15,-9,4,-1,-1,-4,-15,-20
1528446527256296,-3,5,-7,5,-9,-10,-2,8
1528446527263446,4,-12,3,2,-6,-8,-6,10
1528446527263446,-9,1,-7,-5,-3,-9,-17,-13
1528446527278403,19,22,9,1,3,3,11,31
1528446527278403,-8,-6,-1,-3,0,6,-2,-7
1528446527286282,15,16,5,-3,-11,-26,-21,15
1528446527286282,-5,-8,-6,10,10,21,19,13
1528446527293364,-14,-16,-6,-8,-3,5,-6,-21
1528446527293364,-1,5,4,4,2,-8,0,4
1528446527302092,9,-3,-3,11,4,19,12,12
1528446527302092,-4,0,0,-14,-9,-16,-13,-3
1528446527315137,-11,-3,-3,7,-4,-9,-12,-11
1528446527315137,7,-2,3,-3,1,7,4,11
1528446527323026,1,-5,-12,6,-1,-5,0,5
1528446527323026,-2,-2,-4,-8,-4,-9,-5,5
1528446527337981,4,-1,-2,-3,2,2,-1,9
1528446527337981,-6,-9,-7,3,-4,-11,-3,17
1528446527346264,-7,-4,-1,7,10,17,2,-1
1528446527346264,12,9,1,-14,1,6,18,33
1528446527360746,-5,-4,-3,-7,-1,1,-9,3
1528446527360746,-4,-2,-4,5,-11,-19,-6,10
1528446527368461,1,3,1,5,10,11,13,24
1528446527368461,2,-5,0,-5,3,13,5,15
1528446527383422,1,1,-1,-20,-14,-27,-13,8
1528446527383422,-3,0,-1,15,9,3,-7,3
1528446527390625,-2,-3,-2,-11,-14,-9,0,14
1528446527390625,-3,0,5,-2,-1,2,-2,0
1528446527405879,-2,-5,1,14,48,18,9,2
1528446527405879,0,2,0,-31,-41,-14,-7,3
1528446527413099,-1,-3,-3,-11,-12,-15,-1,4
1528446527413099,2,-2,-4,-21,-4,13,3,4
1528446527421078,-2,0,-1,-3,-4,-13,-11,2
1528446527421078,-3,-4,-1,-2,-18,-16,-7,2
1528446527435799,8,5,6,1,-2,8,23,17
1528446527435799,0,3,1,-13,16,30,16,2
1528446527450796,-4,-4,-1,-33,-40,-38,-15,-5
1528446527450796,0,1,1,33,69,84,21,11
1528446527457741,-2,-3,-1,-7,-15,-24,-26,-4
1528446527457741,9,5,0,62,100,116,59,24
1528446527473806,8,6,7,-10,-22,24,25,18
1528446527473806,-6,-5,-4,-41,-52,-75,-32,-2
1528446527488862,-3,-7,-6,30,64,31,2,-2
1528446527488862,3,1,1,-17,-32,-2,11,3
1528446527495878,-6,-6,-6,-11,-37,-50,-23,-11
1528446527495878,-5,0,3,-77,-116,-113,-49,-16
1528446527511053,4,-2,-4,92,93,60,51,8
1528446527511053,2,1,-2,-29,-80,-53,1,3
1528446527518849,8,9,10,-8,15,40,34,12
1528446527518849,0,1,-10,16,2,10,3,-1
1528446527532752,-5,-6,-7,-41,-57,-50,-32,-11
1528446527532752,2,1,1,21,52,36,-3,-5
1528446527548737,0,2,7,-4,15,6,-5,-13
1528446527548737,-9,-5,-4,30,36,14,-2,-22
1528446527555680,-11,1,2,-15,-3,-6,-17,-40
1528446527555680,8,-1,2,12,28,17,13,-9
1528446527570870,-18,-6,-4,-23,-15,-14,-3,-17
1528446527570870,18,7,-2,-14,-10,-8,-7,-16
1528446527577662,0,8,1,6,14,10,16,10
1528446527577662,20,16,2,6,9,-3,-6,-18
1528446527593128,1,-29,-4,2,-21,-9,-17,-28
1528446527593128,0,13,10,-20,-8,-24,-10,-15
1528446527608051,96,95,30,-24,6,23,79,88
1528446527608051,-43,-66,-33,-20,0,-3,-19,-63
1528446527616027,13,26,18,13,-10,-21,-10,-4
1528446527616027,-63,-52,-19,3,-1,-11,-32,-88
1528446527630994,5,8,-13,12,-13,-16,-29,-34
1528446527630994,-10,6,17,15,5,10,-5,-26
1528446527637999,-3,-4,-2,-6,4,16,12,-9
1528446527637999,-10,-11,-5,7,-5,-15,-2,9
1528446527653168,-3,-21,-12,-1,-12,-3,-17,-28
1528446527653168,10,29,8,-6,0,1,18,28
1528446527668126,-9,-13,-7,-5,5,11,8,-6
1528446527668126,-17,2,-1,11,0,7,-6,-6
1528446527676105,1,-9,-17,6,1,6,17,18
1528446527676105,9,11,-4,-7,-1,0,2,7
1528446527691067,-40,-8,0,-3,-19,-44,-51,-54
1528446527691067,2,-12,3,11,9,34,9,-30
1528446527698806,12,3,11,-8,-9,-1,-7,-18
1528446527698806,4,1,5,0,-4,-4,5,-26
1528446527713976,-22,-20,-5,8,-22,-18,-36,-63
1528446527713976,7,16,13,16,-2,5,-1,-39
1528446527728303,-11,0,1,-5,-15,5,-33,-60
1528446527728303,8,2,-3,14,-9,8,17,-30
1528446527736367,-2,6,-2,-4,-29,14,-8,-35
1528446527736367,-2,-2,1,11,-19,-2,-22,17
1528446527751475,-1,-1,0,4,-14,-10,-16,54
1528446527751475,8,1,-11,-8,20,16,-10,73
1528446527758603,4,-1,2,26,21,17,-4,68
1528446527758603,15,5,-1,-13,-39,-9,9,71
1528446527773804,1,-6,1,-12,26,6,6,59
1528446527773804,3,-6,-11,-20,-12,-62,-18,52
1528446527788493,-2,-4,-4,-18,-13,7,36,28
1528446527788493,-3,-6,-2,-57,-53,-119,-25,23
1528446527795735,10,-1,1,57,59,88,74,24
1528446527795735,6,-3,-4,-17,39,3,22,19
1528446527811010,-3,-5,1,-19,-46,-45,13,38
1528446527811010,3,0,2,-29,-35,-43,5,65
1528446527818840,-6,-9,-4,-15,34,-24,-16,77
1528446527818840,0,-4,-3,12,74,46,39,81
1528446527832987,-1,-1,0,-17,10,4,22,72
1528446527832987,-5,-6,-11,-24,-26,-12,-2,53
1528446527848305,-3,-2,-5,-16,-1,-1,6,32
1528446527848305,2,-4,8,39,39,55,26,33
1528446527856248,1,-21,-15,-11,-2,-16,-6,9
1528446527856248,25,15,10,-4,-20,-13,5,58
1528446527871337,1,5,8,7,2,-8,-2,21
1528446527871337,-30,-28,-1,43,31,29,5,-16
1528446527878459,18,0,2,4,-6,-7,-6,9
1528446527878459,-6,19,-5,-20,-27,-25,-13,3
1528446527893413,11,-13,-2,2,6,1,-8,15
1528446527893413,5,-2,-13,19,21,31,31,23
1528446527908374,-1,8,8,12,16,12,-1,-28
1528446527908374,2,19,21,-9,24,29,8,-40
1528446527915472,-5,-15,-28,7,-29,-8,-1,-32
1528446527915472,0,6,8,-10,-24,-15,-16,-51
1528446527931200,-19,-4,-5,13,16,4,-1,-60
1528446527931200,6,7,7,-9,-4,21,3,-45
1528446527938186,8,10,3,-2,17,12,9,-34
1528446527938186,-9,-5,-1,-1,1,16,6,-47
1528446527953483,-8,1,-2,-16,-13,-18,-19,-60
1528446527953483,7,1,-4,10,-4,13,6,-34
1528446527968364,2,1,3,-2,10,12,4,-17
1528446527968364,6,6,0,-11,-4,-1,-12,-19
1528446527976288,-10,1,4,-21,-31,-33,-21,-22
1528446527976288,1,-8,0,5,12,11,6,-2
1528446527991042,3,2,-2,0,4,18,14,3
1528446527991042,-4,0,-6,12,-2,-8,-11,-7
1528446527998272,0,2,8,2,-4,0,-4,2
1528446527998272,2,-5,1,11,2,4,0,2
1528446528013248,4,3,2,-1,2,-2,3,7
1528446528013248,2,-1,-7,-17,14,20,3,9
1528446528021227,3,2,-4,-16,-6,-10,-5,9
1528446528021227,0,1,-4,-12,-3,-9,-8,5
1528446528036191,-6,-2,-2,1,-8,-2,-5,2
1528446528036191,5,2,-1,6,1,-4,-1,10
1528446528051122,1,2,-106,-4,12,22,10,6
1528446528051122,-4,-1,-96,-14,-14,-25,-14,-4
1528446528058102,-1,-3,-26,7,2,-1,-4,4
1528446528058102,-4,-2,16,-17,-18,-21,-15,-5
1528446528072882,1,-1,28,5,3,5,7,5
1528446528072882,5,3,32,-22,7,13,10,8
1528446528081146,-2,-3,8,-13,-1,-1,1,1
1528446528081146,-4,-1,31,-14,-7,-7,-1,-4
1528446528096059,-2,-1,42,-22,-2,-7,-12,-5
1528446528096059,-1,-1,31,-10,-8,-16,-10,1
1528446528110405,5,-1,-2,-32,3,6,9,8
1528446528110405,6,6,-7,-7,-8,-4,-7,1
1528446528118712,-3,-6,6,3,2,-2,0,4
1528446528118712,-2,-1,-1,-10,-12,-7,-12,0
1528446528132687,0,-1,21,-1,1,-2,-2,3
1528446528132687,1,0,23,-9,19,14,8,10
1528446528140907,1,-1,0,23,-6,-4,-1,8
1528446528140907,-3,-1,6,16,-5,-7,-2,3
1528446528155935,-5,-3,15,17,-21,-18,-15,-3
1528446528155935,-2,-1,11,43,13,9,-1,2
1528446528171099,2,0,-1,18,4,4,8,4
1528446528171099,-3,-1,-23,15,-4,-2,0,-2
1528446528178081,-1,2,-16,2,-2,4,-1,-5
1528446528178081,-1,1,-9,-8,-2,-13,-13,-7
1528446528200264,0,-2,0,19,-6,1,-2,-8
1528446528200264,-3,-1,9,21,-3,-4,-3,-7
1528446528208239,3,1,5,16,10,12,12,1
1528446528208239,0,3,-1,0,-5,0,-4,-7
1528446528223199,0,-3,-2,9,6,3,7,-4
1528446528223199,-1,-2,10,7,-4,-3,-3,-9
1528446528238159,-4,-1,-5,-4,-11,-3,-8,-10
1528446528238159,-2,-2,-7,12,7,2,2,-7
1528446528253173,-3,-12,-10,-3,-3,-6,-6,-7
1528446528253173,-4,2,5,-1,3,4,0,-5
1528446528260155,-1,4,6,-6,1,2,4,-4
1528446528260155,-1,1,-3,3,-2,1,-1,-9
1528446528276089,-3,0,1,-10,-1,-8,-7,-9
1528446528276089,3,-2,-1,-14,-6,4,9,-2
1528446528291024,3,2,1,-6,-3,-8,-14,-6
1528446528291024,-6,1,-1,-3,2,-3,4,-9
1528446528298047,1,3,-2,-12,-5,3,5,-5
1528446528298047,-5,-11,-9,-2,3,5,6,-5
1528446528313012,1,8,-4,8,2,0,-2,-7
1528446528313012,11,18,-1,-5,-4,-4,-3,0
1528446528320991,4,13,-1,-15,-7,-6,-3,-4
1528446528320991,8,6,-5,3,-7,-5,-5,-14
1528446528335951,-6,-34,-5,8,15,11,9,0
1528446528335951,-1,14,11,-12,-6,-8,-6,0
1528446528350913,2,23,9,-22,-4,-6,-6,-11
1528446528350913,-2,31,-6,1,-3,1,-3,-19
1528446528357892,-7,-55,-30,0,3,-4,-6,-6
1528446528357892,-13,-5,-20,37,-3,-5,-7,-17
1528446528372799,15,-4,-4,-24,-4,4,8,25
1528446528372799,-21,2,39,9,5,9,10,-8
1528446528380777,9,18,51,22,8,3,10,23
1528446528380777,27,-18,-12,-29,-2,-1,4,31
1528446528395737,-7,-7,-2,-20,-8,-10,-12,-17
1528446528395737,13,48,109,8,1,3,10,49
1528446528410749,-26,9,-36,-62,-2,3,4,-18
1528446528410749,16,-58,-77,19,7,3,-7,18
1528446528417733,-7,18,-114,-18,-8,-5,-15,-19
1528446528417733,15,42,-39,-88,-5,-10,1,47
1528446528432652,-24,-38,-58,5,-15,4,2,-23
1528446528432652,-9,22,-32,36,15,-5,-9,-21
1528446528440671,-8,-19,-51,-29,-17,-12,-9,-12
1528446528440671,7,6,0,29,7,3,6,0
1528446528455631,-3,11,2,10,7,-2,-6,2
1528446528455631,4,-15,-19,-21,2,10,13,18
1528446528470593,19,24,33,48,7,10,13,17
1528446528470593,-9,-23,22,16,-7,-7,-12,-12
1528446528477572,-9,-27,11,10,15,-7,-11,4
1528446528477572,-1,23,39,-13,-18,4,5,-16
1528446528493531,14,7,15,27,9,2,3,23
1528446528493531,-2,-12,-6,-28,-8,-7,-3,-8
1528446528500514,-2,-5,21,64,11,8,2,-8
1528446528500514,2,29,3,-40,7,12,15,2
1528446528515417,8,4,9,58,20,-2,-3,3
1528446528515417,4,-12,-12,-44,4,-8,-7,-1
1528446528531432,-4,-4,5,-24,2,2,0,-2
1528446528531432,-2,-7,3,-2,8,14,11,0
1528446528538371,-3,-1,18,-7,-4,-12,-3,0
1528446528538371,-4,-3,-16,4,0,2,-13,-13
1528446528553581,-4,7,-2,-39,-22,-22,-18,-14
1528446528553581,-3,-11,-3,18,9,6,-1,-10
1528446528561353,0,2,11,2,-6,6,9,5
1528446528561353,9,-2,-5,-4,-9,-12,-5,14
1528446528576308,6,28,23,9,4,5,11,2
1528446528576308,1,-12,0,18,-4,-14,-9,3
1528446528590526,26,25,5,-31,-12,7,10,43
1528446528590526,4,3,-1,2,6,5,8,3
1528446528598635,1,4,2,-1,-3,-5,-8,-7
1528446528598635,-1,2,-2,9,12,8,5,-3
1528446528612810,-11,-16,-4,-3,-11,-11,-14,-20
1528446528612810,-5,2,-15,-22,-21,-9,-10,-9
1528446528620823,3,-5,2,0,9,3,-1,4
1528446528620823,1,5,7,8,-1,1,1,0
1528446528635774,-15,-15,-3,-8,-2,-6,-9,-20
1528446528635774,0,0,-18,-17,-8,-11,-10,-3
1528446528651270,-2,-3,7,111,2,-1,2,-1
1528446528651270,-2,-1,-7,74,-8,-2,-2,-4
1528446528658328,4,-2,-14,2,2,7,9,8
1528446528658328,3,-9,-5,-54,3,2,4,7
1528446528673559,2,13,-3,-81,3,-5,-9,-4
1528446528673559,-8,-20,8,-74,-14,-1,-1,-2
1528446528681216,6,8,6,-28,12,6,2,0
1528446528681216,6,5,10,-22,13,7,7,8
1528446528696165,-6,-2,4,-14,1,3,2,-9
1528446528696165,1,-2,-5,-7,0,-3,-8,0
1528446528711202,6,-5,4,3,2,0,0,6
1528446528711202,-3,6,6,-19,-6,-3,0,-13
1528446528718935,-1,-4,1,-8,-2,-2,1,5
1528446528718935,4,8,0,13,3,0,-4,1
1528446528732762,0,-5,4,4,3,5,7,4
1528446528732762,2,2,1,-4,1,3,3,4
1528446528741111,-3,3,11,24,5,-9,-11,-6
1528446528741111,6,2,-7,-3,-5,7,13,15
1528446528755700,-3,1,6,24,14,-1,0,1
1528446528755700,1,3,1,1,-5,2,3,2
1528446528771335,8,1,-9,-3,-1,3,3,14
1528446528771335,0,-7,-13,5,6,0,-2,1
1528446528778981,-4,3,5,2,-3,-4,-5,-3
1528446528778981,4,4,5,6,-1,-5,-2,6
1528446528792951,-4,-8,-6,0,-2,7,5,-4
1528446528792951,0,5,2,8,3,2,4,1
1528446528800918,-9,-18,-19,-16,-8,-2,-1,-9
1528446528800918,4,2,5,-1,-2,-2,1,3
1528446528815844,-4,-6,0,-6,0,-5,-6,-8
1528446528815844,-4,5,1,-5,-4,-4,-7,-5
1528446528831048,-2,-3,-6,0,-4,-3,-3,-2
1528446528831048,-6,-3,-5,-10,-5,-1,-4,-12
1528446528838044,2,7,5,6,5,1,1,-2
1528446528838044,-1,-3,-1,1,-4,-4,-4,0
1528446528853315,4,3,2,12,1,0,1,7
1528446528853315,-2,-1,-1,2,0,-5,-9,-3
1528446528861345,-1,3,4,2,-1,4,4,-3
1528446528861345,3,1,-4,4,7,7,7,8
1528446528876310,-2,-5,-3,-5,-2,1,-1,0
1528446528876310,0,2,1,-1,-3,1,3,1
1528446528891330,2,-1,0,-4,-1,-2,2,-1
1528446528891330,-4,-2,-3,-1,-4,-4,-7,-11
1528446528898277,8,10,6,3,7,3,6,10
1528446528898277,-4,-4,-3,5,2,2,-1,-4
1528446528913149,-1,-2,-2,-5,-5,1,-1,-1
1528446528913149,1,0,-1,1,4,6,7,3
1528446528928494,0,1,-2,-3,-1,-1,-2,1
1528446528928494,-1,2,1,5,-2,-6,-6,-2
1528446528943148,-5,-5,-5,-3,-3,-6,-7,-9
1528446528943148,3,2,0,-7,-5,-5,-3,3
1528446528958311,-6,-4,-7,-13,-4,0,-7,-4
1528446528958311,-1,0,2,3,0,-3,0,0
1528446528973671,1,-1,0,-3,-8,-12,-2,1
1528446528973671,-2,-1,-4,-4,-5,-9,-12,-4
1528446528980642,-3,-2,-2,-6,1,6,5,-3
1528446528980642,0,0,-2,-1,-4,-7,-6,0
1528446528988680,0,0,1,3,7,6,-1,1
1528446528988680,0,-2,0,0,2,1,1,2
1528446529003749,1,-1,-3,3,-3,-2,0,1
1528446529003749,-1,-2,-3,3,-5,-3,-7,-4
1528446529019242,1,0,-1,1,0,3,3,2
1528446529019242,0,-2,1,-3,-2,-1,4,1
1528446529033008,-3,-1,-5,1,0,-2,-5,-2
1528446529033008,-1,1,-3,3,-2,1,5,2
1528446529047957,0,-1,-4,9,0,0,3,0
1528446529047957,-3,-7,-11,9,-3,-3,-2,-2
1528446529063177,1,1,-1,9,1,5,3,1
1528446529063177,1,2,1,13,1,-5,-3,0
1528446529071156,-4,-2,-3,9,1,2,2,0
1528446529071156,6,7,1,-1,-2,0,2,-3
1528446529086111,3,3,4,-1,1,1,1,-1
1528446529086111,-1,-1,2,0,-1,-1,-3,-2
1528446529101063,-10,-12,-5,0,3,2,2,-1
1528446529101063,3,1,-3,0,2,3,3,1
1528446529115776,-5,-6,-4,-2,-2,-3,0,-5
1528446529115776,6,7,3,4,-2,-1,-1,-1
1528446529122760,3,3,1,6,-2,-6,-4,-3
1528446529122760,-9,-7,0,8,-2,-3,-4,-2
1528446529137972,3,2,1,11,1,1,2,1
1528446529137972,0,-2,0,9,2,1,0,0
1528446529153430,-4,-1,-4,-14,-5,-8,-6,-3
1528446529153430,-2,-8,-13,-20,0,4,3,-1
1528446529160721,1,-2,2,-11,0,-1,0,1
1528446529160721,3,2,0,-15,3,5,2,1
1528446529175976,-2,-1,5,6,-2,-1,0,-3
1528446529175976,-2,-1,3,14,-3,-7,-4,-2
1528446529182984,2,3,-3,7,-1,-2,-2,-1
1528446529182984,-3,-6,1,-3,0,-3,-1,0
1528446529198149,-1,-2,-3,-17,2,5,1,-1
1528446529198149,3,0,0,-22,-1,-1,0,1
1528446529212881,-5,-6,-6,-15,0,-2,-1,0
1528446529212881,0,1,0,-12,2,2,1,-1
1528446529220864,1,1,3,-10,3,9,7,1
1528446529220864,-5,-4,-4,-5,-2,-2,-1,0
1528446529236188,-1,-1,0,-3,-4,-7,-5,-2
1528446529236188,2,3,2,-9,-1,-4,-2,-4
1528446529243170,0,0,-1,-7,-1,-3,-4,-1
1528446529243170,1,2,-2,-1,5,8,5,3
1528446529258112,-3,-3,4,-3,1,-2,-1,-1
1528446529258112,-2,-2,-1,-4,-7,-12,-6,0
1528446529272862,-2,-1,-8,-1,-4,-6,-4,-1
1528446529272862,-3,0,3,2,4,2,-3,-4
1528446529280822,2,0,4,2,-4,-2,-2,3
1528446529280822,0,-2,-5,4,0,0,-1,-1
1528446529296289,3,1,2,5,2,4,6,2
1528446529296289,-1,0,-1,5,0,4,5,-2
1528446529303581,-1,0,-2,1,-1,-2,-3,-1
1528446529303581,-3,-3,1,-2,-4,-5,-4,-3
1528446529318495,-2,-1,2,-2,-4,-7,-5,-3
1528446529318495,-2,0,1,-2,1,4,0,0
1528446529333523,-1,1,0,0,1,7,3,2
1528446529333523,-1,-2,-1,-2,-2,-4,-3,1
1528446529340809,-1,0,2,-2,-4,-8,-7,-5
1528446529340809,-2,-1,-3,2,-1,1,-3,-3
1528446529355515,-2,-1,-1,3,1,3,3,0
1528446529355515,1,0,2,3,-1,-1,-1,1
1528446529363733,-3,0,5,4,0,0,-1,-2
1528446529363733,8,4,-8,4,0,-2,0,3
1528446529370472,-7,-7,-9,-1,-2,-1,-2,-2
1528446529370472,4,3,0,0,0,0,-1,-1
1528446529378944,5,0,0,3,1,1,3,4
1528446529378944,-12,-6,2,1,-1,0,-2,-4
1528446529393659,-1,2,2,1,1,-1,-2,-1
1528446529393659,-1,-1,-3,-1,-4,-4,-5,1
1528446529400925,-3,-6,-1,0,3,10,4,0
1528446529400925,8,4,1,-3,-7,-6,-1,2
1528446529415180,-3,-6,-5,-2,3,9,0,-1
1528446529415180,1,3,2,0,0,1,0,0
1528446529423160,-1,0,-3,-3,-4,-7,-5,-3
1528446529423160,-3,0,-3,1,2,5,2,0
1528446529430667,1,0,0,4,-2,-4,-1,-1
1528446529430667,-1,-2,1,5,0,0,0,-3
1528446529438943,-2,0,-1,5,0,-2,-2,0
1528446529438943,3,0,-3,1,-1,-2,-1,2
1528446529461144,-2,0,-2,0,-2,-3,0,0
1528446529461144,-2,-4,1,-1,2,4,4,4
1528446529468898,-1,0,-1,-3,-2,-1,0,-1
1528446529468898,2,3,-4,-1,-1,0,-3,-17
1528446529483875,6,1,2,-2,1,0,0,18
1528446529483875,-7,0,-3,-2,-3,-2,-1,-8
1528446529490664,8,-2,0,-2,-1,-2,-1,11
1528446529490664,0,-1,4,-2,-2,-1,-1,2
1528446529498526,1,1,-2,-2,0,-1,-2,-5
1528446529498526,0,-2,-2,0,0,0,1,-1
1528446529512914,5,0,2,0,2,5,2,-3
1528446529512914,-2,-3,1,-3,-2,-4,-2,8
1528446529520860,-22,-3,-5,-1,-1,-2,-7,-31
1528446529520860,20,-1,-2,-2,0,-1,3,36
1528446529536283,-6,1,0,1,0,-1,-2,-20
1528446529536283,1,-3,-3,-2,-3,-5,-4,16
1528446529543289,-8,-3,0,-2,-1,-1,2,-11
1528446529543289,-9,-1,1,1,0,0,-4,-14
1528446529550681,5,1,3,0,-1,0,4,14
1528446529550681,-4,-2,-2,-1,-2,-2,-2,-14
1528446529558662,10,3,-10,-1,-2,0,2,8
1528446529558662,-14,-7,2,1,3,0,-2,-6
1528446529573355,1,1,-3,1,-3,0,0,-4
1528446529573355,0,-2,-2,-1,-1,-3,-2,-2
1528446529580338,1,-1,3,-7,1,1,2,5
1528446529580338,6,4,-1,-8,1,2,4,12
1528446529596351,-4,-2,0,-5,1,-2,0,-8
1528446529596351,4,1,-1,1,-1,-1,0,-3
1528446529603533,14,4,1,5,1,1,4,20
1528446529603533,-6,-6,-4,3,-2,-1,-3,-13
1528446529611306,-3,-1,-5,3,-1,-2,0,-4
1528446529611306,4,3,-5,-1,-3,0,1,4
1528446529618493,1,-3,-2,1,-2,-3,-2,3
1528446529618493,-6,-2,1,10,5,1,-1,-4
1528446529632655,4,-1,-9,-10,-11,-5,-4,0
1528446529632655,-2,-1,4,3,1,1,0,4
1528446529640626,-2,-4,-17,-4,-2,-2,-1,-6
1528446529640626,6,-3,-4,2,-1,-2,-1,4
1528446529655592,-11,0,8,8,3,2,2,-1
1528446529655592,14,6,-9,-2,2,0,-2,3
1528446529663607,1,0,29,3,1,1,0,6
1528446529663607,-9,-5,-6,-3,-2,-1,-2,-10
1528446529670549,3,-5,-8,0,1,-2,-1,4
1528446529670549,-3,5,7,2,-1,0,0,-3
1528446529678528,-1,2,-2,3,0,2,-1,-1
1528446529678528,7,2,-2,-2,-1,-2,0,3
1528446529693538,-3,-6,0,-1,-1,0,-2,-2
1528446529693538,-10,-6,1,2,1,2,0,-6
1528446529700778,3,2,2,0,0,0,-1,3
1528446529700778,-7,5,17,1,-2,0,0,-6
1528446529715476,5,3,-2,-3,0,-2,-3,6
1528446529715476,-1,-7,-4,-4,0,0,-1,-4
1528446529723725,-3,-3,-5,0,0,0,-1,-2
1528446529723725,3,2,-4,-1,-2,0,1,0
1528446529731434,-3,-1,4,1,0,0,1,-4
1528446529731434,-2,-1,0,-3,-1,-1,0,-3
1528446529738415,3,3,1,-2,-1,-1,0,5
1528446529738415,-6,1,-3,-2,-1,-1,-2,-7
1528446529753636,3,0,-1,-4,-1,-1,0,3
1528446529753636,-3,0,0,0,0,-2,1,-2
1528446529761384,0,1,-3,-2,-2,-1,0,-1
1528446529761384,-1,-5,-5,-1,-2,1,-3,0
1528446529776357,-1,2,4,2,0,-2,-2,0
1528446529776357,2,-2,-1,1,-2,0,0,0
1528446529783576,-3,-1,1,3,0,-2,-1,-3
1528446529783576,1,0,-3,-2,0,-1,-1,-5
1528446529790581,2,0,0,1,1,-1,-2,5
1528446529790581,-7,-1,-2,1,-1,0,-1,-3
1528446529798608,3,-2,-3,-2,0,-2,-2,0
1528446529798608,-3,2,2,-3,-3,0,-2,-3
1528446529813786,0,-4,-11,-4,0,-1,-1,-1
1528446529813786,-1,-1,-2,-3,0,0,1,1
1528446529820850,-5,-2,-4,0,-1,-1,-1,0
1528446529820850,2,0,-2,-2,0,-1,1,2
1528446529835959,-5,-1,0,-1,0,1,2,-6
1528446529835959,2,1,1,-3,0,-3,-2,1
1528446529842696,-4,-3,-3,-2,0,0,0,-6
1528446529842696,3,1,-1,-1,0,-1,0,1
1528446529850962,2,-1,2,-1,-1,-1,-2,2
1528446529850962,-2,-1,-1,0,0,-1,1,-4
