timestamp,emg1,emg2,emg3,emg4,emg5,emg6,emg7,emg8
1529312275094407,0,0,0,4,5,-1,1,7
1529312275094407,-1,-1,0,-1,-1,2,7,-21
1529312275109368,0,-1,-2,0,0,-1,12,9
1529312275109368,-2,-2,-3,-1,1,-2,-18,-5
1529312275118343,-1,-1,-2,-2,-3,0,9,-2
1529312275118343,-2,0,1,1,2,1,3,1
1529312275124328,1,0,0,1,2,3,9,-6
1529312275124328,-2,-2,-3,2,-3,-7,-35,13
1529312275139286,1,1,-2,-4,-3,-2,-10,-13
1529312275139286,0,-1,-1,-4,-3,0,7,7
1529312275147267,-1,-3,0,-3,-1,-2,-4,-7
1529312275147267,-1,-1,0,0,2,2,8,-5
1529312275162227,-1,0,2,4,8,0,-5,0
1529312275162227,-1,-1,-2,-6,-6,-2,4,0
1529312275172201,0,-1,0,0,-2,-1,-8,7
1529312275172201,1,0,-1,-4,-1,-1,4,-2
1529312275177186,-1,-2,0,0,-2,-1,-9,0
1529312275177186,0,-1,-3,1,2,-1,19,-1
1529312275184166,-2,1,-1,-2,-2,-6,-30,-9
1529312275184166,0,0,0,-1,0,0,8,12
1529312275199127,-1,-1,-1,1,1,-2,-8,-1
1529312275199127,1,-2,0,-2,-2,1,-1,-1
1529312275207106,0,-2,-2,-1,-3,-1,2,-1
1529312275207106,-1,0,-2,0,0,0,7,5
1529312275224062,0,-2,-1,-1,-2,3,16,1
1529312275224062,-1,0,-1,0,0,-2,-10,3
1529312275230045,2,0,0,-1,2,1,8,-4
1529312275230045,0,0,-1,0,0,1,-3,-7
1529312275237025,2,0,-1,-2,-6,0,1,5
1529312275237025,-1,-2,-1,3,0,2,6,1
1529312275244046,-2,0,0,-1,-1,-1,-3,0
1529312275244046,1,-2,1,3,5,1,22,4
1529312275259992,-1,-2,0,-5,-2,-5,-40,-13
1529312275259992,0,1,-1,4,4,4,-1,-6
1529312275266955,0,-1,-1,-4,2,3,5,6
1529312275266955,-2,1,0,0,-4,0,3,-3
1529312275289884,-1,0,0,0,0,-2,-3,-1
1529312275289884,1,-2,1,-1,1,-4,-1,4
1529312275296891,-1,-2,-1,0,-5,-1,1,-4
1529312275296891,0,-1,1,-2,-1,1,7,2
1529312275304845,0,0,-3,1,1,0,-10,-5
1529312275304845,-1,1,-2,0,0,-5,-33,-6
1529312275319804,0,0,-2,-1,-2,1,-4,-6
1529312275319804,-1,-1,0,-2,-1,0,14,13
1529312275334764,-1,-1,-2,0,5,-2,-7,-17
1529312275334764,0,-1,-2,-4,-4,0,-3,-2
1529312275341746,-3,0,1,1,0,0,27,-1
1529312275341746,-2,-2,-1,2,3,-5,-28,-18
1529312275356731,-1,-2,0,-3,0,0,10,7
1529312275356731,1,0,0,1,2,-2,-8,0
1529312275364685,0,-2,0,-1,-6,2,4,-4
1529312275364685,-2,1,-1,0,-3,0,9,4
1529312275386627,0,1,0,-3,-3,-2,-4,8
1529312275386627,0,-1,-3,-3,0,1,7,-9
1529312275401598,2,1,-2,-1,1,5,17,14
1529312275401598,-3,0,-1,0,-1,-2,1,0
1529312275409565,-1,-1,0,-4,0,-1,-12,1
1529312275409565,1,0,1,-1,-2,1,5,-10
1529312275424525,-1,-2,0,-1,3,0,-9,-4
1529312275424525,1,-1,-1,-1,1,-1,6,0
1529312275439484,-2,0,2,0,-3,-2,1,0
1529312275439484,-1,-1,0,-1,-1,0,-1,-3
1529312275454445,1,0,0,-1,0,-2,-12,0
1529312275454445,0,0,-1,-1,0,-2,5,-4
1529312275461426,0,0,-2,-2,-1,1,-1,-7
1529312275461426,0,-1,0,1,-1,4,19,5
1529312275476386,-2,-1,0,-3,1,-8,-60,-14
1529312275476386,0,-1,0,-2,-7,0,2,-3
1529312275484365,-2,0,-2,3,1,2,23,2
1529312275484365,1,2,1,1,1,-2,-11,9
1529312275499325,0,0,-1,5,7,-2,-3,2
1529312275499325,-2,-1,-2,-5,-7,0,9,-2
1529312275514285,-1,1,0,0,-2,0,3,11
1529312275514285,1,0,0,4,3,-1,5,1
1529312275522263,0,-2,-1,-1,0,0,-2,0
1529312275522263,0,-1,1,-1,1,0,-2,-4
1529312275537230,1,-2,0,-2,-2,0,9,4
1529312275537230,-1,-1,-2,-4,-7,-1,-15,-5
1529312275544206,0,-1,1,-2,2,-1,-11,3
1529312275544206,-1,-1,-1,0,-1,1,11,3
1529312275559164,-3,-1,-1,1,-3,-2,-4,-3
1529312275559164,-1,0,-2,1,3,0,7,-2
1529312275574124,1,-2,-2,-4,-4,1,17,10
1529312275574124,-1,-3,-2,1,2,1,1,-3
1529312275582103,0,-2,-1,-3,-4,-2,-4,2
1529312275582103,-1,0,-1,2,2,3,12,6
1529312275597063,-2,-2,-1,2,4,-1,-12,-13
1529312275597063,1,0,-1,3,-1,-3,-3,6
1529312275604045,-1,0,-1,-3,-6,1,10,-2
1529312275604045,0,-1,0,-1,0,-2,-14,1
1529312275619005,-1,-1,0,-1,-2,2,8,1
1529312275619005,-4,0,0,-1,0,0,3,-8
1529312275626984,-1,1,1,1,0,0,-6,-6
1529312275626984,-1,0,-1,0,0,3,4,-9
1529312275641943,2,-1,-2,-2,-3,-2,2,2
1529312275641943,0,-1,0,-2,-2,-3,-11,7
1529312275656903,-1,0,-2,0,1,3,18,6
1529312275656903,-2,-1,1,2,0,3,17,-17
1529312275664883,0,2,-1,-2,2,-2,-9,2
1529312275664883,1,-1,-1,-3,-7,-1,-7,0
1529312275686824,-1,-1,0,0,-3,1,1,0
1529312275686824,-1,-1,1,1,1,2,8,0
1529312275694802,-1,-2,-1,-2,-1,-2,-2,1
1529312275694802,-1,-1,1,1,2,1,9,-5
1529312275709765,0,-1,-2,1,-1,-1,0,-6
1529312275709765,0,0,-2,-3,-5,-1,13,19
1529312275724722,-2,-1,-3,1,6,-6,-30,-15
1529312275724722,0,1,0,-2,3,1,9,-2
1529312275739688,0,1,0,2,4,1,10,4
1529312275739688,0,-1,-1,-2,1,-1,1,6
1529312275746664,-1,0,-3,0,-6,-2,2,-2
1529312275746664,-1,0,0,-1,1,1,0,-1
1529312275761657,-2,-2,1,-2,1,1,-2,7
1529312275761657,0,-2,-2,1,-1,-2,-2,-5
1529312275776583,-1,-1,0,1,-2,0,4,2
1529312275776583,1,-1,1,-1,-3,1,6,5
1529312275784960,2,0,-1,-3,-2,2,19,11
1529312275784960,-1,0,-1,-2,0,-2,-8,-20
1529312275799835,-2,0,-2,0,-1,-1,0,-8
1529312275799835,1,0,-2,0,2,-1,0,2
1529312275806823,-1,-1,0,1,2,2,11,-3
1529312275806823,0,-1,-2,-5,-7,-1,9,19
1529312275821785,-1,-1,0,1,6,-1,-1,-1
1529312275821785,0,0,-2,-1,-1,1,-2,-6
1529312275836720,-2,-2,1,-1,2,-2,-7,-3
1529312275836720,1,-1,0,-1,-1,0,5,11
1529312275844683,-2,-1,0,2,2,0,-2,-4
1529312275844683,0,0,1,-3,-5,-2,-9,-3
1529312275859643,-2,-1,-2,0,0,4,26,5
1529312275859643,-2,0,0,3,0,-3,-30,-11
1529312275866661,2,-2,-1,-1,1,0,-1,8
1529312275866661,-3,-1,-1,1,1,-3,-9,-23
1529312275882595,2,1,0,2,2,2,5,5
1529312275882595,-3,-1,-2,1,3,-5,-30,-4
1529312275896768,0,-1,-3,-2,-1,0,-5,-3
1529312275896768,-1,0,-2,-1,-1,-2,0,4
1529312275904524,-1,2,-1,-1,-3,-1,3,0
1529312275904524,0,0,1,0,1,1,10,4
1529312275919705,-1,1,0,-1,-3,-2,-6,2
1529312275919705,-1,-1,-1,-2,-2,-1,2,-4
1529312275927546,-2,-1,-2,0,-1,-2,-13,-6
1529312275927546,1,-1,0,6,5,0,-15,7
1529312275942556,-2,1,1,-2,-2,-2,-1,-7
1529312275942556,0,0,1,-1,2,1,9,-10
1529312275956671,-1,-1,-2,0,-5,-3,-7,1
1529312275956671,0,0,1,3,2,1,-1,-5
1529312275964918,1,0,0,-4,-3,0,8,7
1529312275964918,1,-1,-1,-2,-2,-1,0,-2
1529312275980133,0,0,-1,3,3,0,3,3
1529312275980133,-2,-1,0,-2,-1,1,13,-3
1529312275987158,-3,-1,-2,-1,-5,-8,-38,-11
1529312275987158,-1,-1,1,-1,1,2,20,4
1529312276002371,-1,-1,0,1,1,1,6,4
1529312276002371,-2,1,-2,-1,-1,0,11,12
1529312276016890,0,-1,0,-1,-1,0,5,-10
1529312276016890,-1,-1,-1,-2,-3,-3,-1,-1
1529312276024621,0,2,-1,-1,0,1,2,-4
1529312276024621,0,-1,-1,1,-1,0,-4,-2
1529312276039976,-1,1,-2,2,-2,-1,15,8
1529312276039976,-1,0,-1,0,5,0,-6,-14
1529312276047583,1,-2,-1,-4,-7,1,4,-2
1529312276047583,1,0,-2,2,2,-2,4,12
1529312276062572,0,0,1,4,3,-1,1,-1
1529312276062572,-1,0,0,-2,-1,2,-1,-1
1529312276077596,0,-1,1,2,0,3,9,10
1529312276077596,0,0,-1,0,-1,0,17,-2
1529312276084743,-3,-1,-2,-7,-3,-2,0,-3
1529312276084743,-2,-4,0,-3,-7,-2,-8,-7
1529312276098968,2,-1,0,-1,-2,-1,3,1
1529312276098968,-1,-2,-1,0,-1,0,-9,1
1529312276106949,-2,-1,-1,4,2,-1,5,0
1529312276106949,-1,0,-1,-6,2,-2,5,9
1529312276121910,-1,-1,-1,2,3,-3,1,-2
1529312276121910,0,1,0,2,1,2,13,-1
1529312276136832,-1,-1,-1,-4,-3,-7,-29,0
1529312276136832,0,-2,-1,2,1,-3,-2,-1
1529312276144841,2,-1,-1,1,1,1,6,19
1529312276144841,-3,-1,0,2,-2,0,1,-13
1529312276159771,3,0,-2,-5,2,2,19,3
1529312276159771,-2,0,0,-1,-5,-4,-18,-4
1529312276166751,0,0,-1,-3,-4,0,-3,1
1529312276166751,-2,0,-1,2,3,-3,-7,-1
1529312276181712,0,-1,0,-1,-1,1,-2,-20
1529312276181712,-1,0,-1,2,-1,0,-7,-3
1529312276196671,-1,-2,0,-2,0,-4,-1,1
1529312276196671,0,0,0,-1,-1,1,-3,-6
1529312276204659,0,-2,-1,0,-2,0,1,-5
1529312276204659,1,-2,-1,-4,-5,-2,-2,3
1529312276219660,2,1,1,2,3,4,13,2
1529312276219660,1,1,-1,3,5,0,4,-1
1529312276226645,-2,1,-1,-5,2,2,3,3
1529312276226645,1,-1,-3,-1,-4,-1,-10,-14
1529312276241551,-1,-1,1,1,-1,-6,-34,9
1529312276241551,-1,0,0,-3,1,-1,-2,-16
1529312276264490,1,1,-3,-2,-3,-3,-4,4
1529312276264490,-1,0,-1,-2,2,-1,-7,-14
1529312276271471,-2,-2,-1,0,-3,-1,9,-2
1529312276271471,0,-1,-1,-1,0,0,-1,2
1529312276287429,2,0,0,-1,-1,-1,9,11
1529312276287429,1,0,0,2,4,-2,-22,-17
1529312276294410,-1,-1,-1,0,-1,-1,14,0
1529312276294410,-1,-1,-2,-1,-1,0,-3,4
1529312276309370,-1,-1,-1,0,1,-1,-7,1
1529312276309370,1,-2,-1,-2,-1,-1,7,11
1529312276324330,-2,-1,-2,0,-1,-2,-3,-2
1529312276324330,1,-1,-2,-1,-3,-1,8,10
1529312276332309,0,0,0,0,3,4,15,-21
1529312276332309,-1,0,-1,-4,-6,-2,3,8
1529312276347269,-2,0,-2,-1,-2,-1,-3,-5
1529312276347269,-2,-1,-2,-1,0,-1,-4,-4
1529312276354249,0,0,0,0,1,-1,6,11
1529312276354249,0,-1,1,1,2,-1,2,0
1529312276369210,-1,-1,-1,-3,-1,0,-6,-8
1529312276369210,-2,-1,0,-3,-2,0,10,8
1529312276377189,-1,-2,-3,0,-2,-2,-8,-3
1529312276377189,0,-1,0,-1,-7,-2,-3,5
1529312276384170,-4,-1,-1,0,-1,0,21,-7
1529312276384170,0,-1,0,0,3,-2,-8,0
1529312276407116,-2,0,0,2,1,-1,13,7
1529312276407116,-1,0,0,-1,1,-1,-3,-7
1529312276414090,0,-1,-2,-5,-4,0,-5,2
1529312276414090,-1,0,-2,2,2,0,0,-2
1529312276429049,-1,-1,-1,1,0,3,5,-3
1529312276429049,0,1,1,1,0,2,19,3
1529312276437035,0,-3,-1,1,0,-2,-10,-2
1529312276437035,0,-1,0,-3,-3,0,4,4
1529312276444008,1,-1,-1,0,0,-3,-12,-6
1529312276444008,-1,-2,-1,0,2,2,7,0
1529312276466947,-1,0,1,-1,-4,-1,0,-1
1529312276466947,-1,-1,-1,2,-1,-1,-8,2
1529312276473928,-2,-1,-2,1,3,-2,-3,4
1529312276473928,-1,1,-1,0,-2,1,15,2
1529312276489886,0,0,1,-2,0,1,-7,13
1529312276489886,-2,-1,0,0,0,-1,-6,-22
1529312276496867,-2,0,-2,-4,-4,-1,-7,-8
1529312276496867,2,0,0,4,3,1,3,6
1529312276504847,-2,0,0,-2,2,1,3,-3
1529312276504847,-1,-2,-4,-1,-4,-1,-1,4
1529312276519860,-1,0,1,1,-1,0,0,-9
1529312276519860,1,0,-1,1,1,-1,-3,3
1529312276526788,-1,-3,-1,-3,-5,1,3,0
1529312276526788,-2,-2,-1,-2,-2,-1,-7,1
1529312276541971,-2,-2,-2,0,1,-2,2,5
1529312276541971,-3,0,-1,-2,-2,1,0,2
1529312276549947,0,-1,-1,-1,0,0,-1,3
1529312276549947,-2,-3,-1,0,0,-4,-14,-6
1529312276556711,-1,-2,-1,-3,0,0,1,-6
1529312276556711,0,1,0,-3,-5,-1,-2,-5
1529312276571941,1,0,-2,-2,2,-1,-1,7
1529312276571941,-1,-1,-2,0,-1,0,0,-1
1529312276586901,-1,-2,-2,1,0,-2,-1,6
1529312276586901,0,-3,-1,1,3,-1,-6,0
1529312276594880,0,1,0,-3,-1,3,11,8
1529312276594880,-1,1,0,0,-1,-4,-16,-14
1529312276609842,1,1,-2,-3,-7,-3,3,-2
1529312276609842,1,0,0,1,-1,0,2,4
1529312276617123,-2,0,0,0,-1,-1,-8,-17
1529312276617123,-1,0,0,1,0,-1,-1,1
1529312276624727,-1,1,0,-1,-2,-1,-4,-5
1529312276624727,-1,-2,-2,-1,1,0,-3,-3
1529312276639300,1,-1,-2,-1,1,-1,-2,4
1529312276639300,-3,1,-1,-1,-2,0,-5,-4
1529312276647285,-1,-2,0,1,4,0,8,-1
1529312276647285,-1,-2,0,1,-3,-1,2,7
1529312276662255,-1,-1,1,0,1,-3,-7,-1
1529312276662255,-1,-2,-2,-3,-4,-1,5,3
1529312276669465,0,-1,-1,-1,-1,-3,-7,0
1529312276669465,-4,0,-1,1,0,-1,-7,-21
1529312276677198,0,0,-1,1,1,4,8,0
1529312276677198,0,0,0,0,0,2,10,6
1529312276685207,-2,-1,0,1,-1,-6,-31,-21
1529312276685207,1,0,-1,-3,-2,-5,-23,4
1529312276699716,-1,-2,0,1,-1,0,-2,1
1529312276699716,-3,-2,-1,-2,0,1,6,-2
1529312276707765,-1,0,-3,2,3,-3,-19,0
1529312276707765,0,0,-2,-4,-5,2,12,7
1529312276722720,1,0,0,0,-3,0,-3,-4
1529312276722720,0,-1,0,-2,0,-2,-5,3
1529312276729297,1,0,-1,1,-1,2,19,1
1529312276729297,0,0,-2,0,0,0,3,0
1529312276737241,0,0,-2,-2,2,-1,1,1
1529312276737241,0,0,-2,-1,-7,-3,0,0
1529312276744227,-1,0,-2,-1,-3,1,3,3
1529312276744227,0,-2,0,-2,0,0,1,-2
1529312276759202,0,-2,0,-2,-3,-2,-3,-2
1529312276759202,-1,-1,-1,1,1,-2,-3,0
1529312276767161,0,-2,0,0,-1,1,8,-3
1529312276767161,0,0,0,-2,-1,1,5,4
1529312276782121,0,-1,-2,0,2,3,3,5
1529312276782121,-1,0,-2,-3,1,-1,-6,-11
1529312276789133,1,-1,1,-1,1,1,20,23
1529312276789133,-1,0,0,0,0,-3,-34,-22
1529312276797382,0,1,1,-1,-1,-2,-2,-2
1529312276797382,1,-1,1,0,-1,0,-2,10
1529312276804113,0,0,0,0,-2,-2,-2,-3
1529312276804113,0,1,-1,0,2,1,11,7
1529312276819578,-1,-2,-1,0,-1,-1,-2,-3
1529312276819578,0,0,0,-2,0,-1,-1,0
1529312276827333,0,-1,0,-1,-3,-3,1,-4
1529312276827333,0,-1,0,0,-1,0,6,3
1529312276841838,0,-2,0,-1,-4,-2,-4,2
1529312276841838,-1,-1,-1,0,2,3,9,-3
1529312276850126,-1,0,-1,-1,2,1,-1,-4
1529312276850126,0,1,-1,-1,0,1,4,-1
1529312276856841,-1,-1,-1,-1,0,-1,-1,-2
1529312276856841,1,-2,0,1,-1,2,-1,-6
1529312276865185,2,-2,-1,0,-3,0,-3,2
1529312276865185,0,0,0,0,-1,-2,5,14
1529312276879779,-1,0,-1,-1,0,0,1,-15
1529312276879779,0,1,-3,-2,-2,-3,-3,-2
1529312276894963,-3,0,-1,0,2,0,0,-5
1529312276894963,-1,-2,0,0,1,1,4,3
1529312276909317,-1,0,0,0,-2,0,3,4
1529312276909317,-1,0,-1,-3,-1,-2,-3,-1
1529312276917591,1,1,0,1,-2,0,-4,-4
1529312276917591,0,-2,-2,-1,0,-2,5,-4
1529312276932558,-2,0,-1,-2,-1,-1,-3,-1
1529312276932558,-1,-2,2,0,0,-2,-2,1
1529312276939515,-1,0,-2,-2,-2,-2,0,-3
1529312276939515,0,-2,0,0,0,0,0,-1
1529312276947495,0,-2,-1,-1,-2,-1,-3,-2
1529312276947495,-2,-2,-1,-2,-1,-1,1,3
1529312276962210,0,-1,-3,-2,-1,-1,2,7
1529312276962210,-1,0,0,2,3,-1,0,-3
1529312276969225,0,0,0,-2,-1,-2,-2,-2
1529312276969225,-1,0,-3,2,0,1,-1,-5
1529312276977170,-2,0,0,-1,0,-2,1,3
1529312276977170,-1,0,-1,-4,-5,0,-1,2
1529312276984430,0,1,1,0,1,0,0,-2
1529312276984430,1,0,2,0,-1,0,1,-2
1529312276999145,1,0,-2,0,1,1,0,-2
1529312276999145,0,0,-1,-1,-1,-2,2,-1
1529312277007176,0,0,-1,-2,-1,0,-4,-4
1529312277007176,-3,-2,0,1,-1,0,0,0
1529312277022380,-1,-1,-1,-1,-1,-3,-5,2
1529312277022380,-1,-1,-1,0,2,4,7,-7
1529312277029511,-1,-1,-3,-1,0,0,1,1
1529312277029511,-1,0,0,-1,-2,-3,-1,-3
1529312277037043,-1,-1,-1,0,1,0,4,0
1529312277037043,-2,-1,-1,1,0,-2,-3,3
1529312277045185,-2,-1,0,-3,-1,-1,2,1
1529312277045185,-1,0,-1,-1,0,0,0,0
1529312277060081,0,-1,-2,-2,-1,0,-3,-3
1529312277060081,-1,1,1,0,-2,-2,-2,1
1529312277066967,-1,1,-1,-1,1,0,0,-2
