timestamp,emg1,emg2,emg3,emg4,emg5,emg6,emg7,emg8
1529305133407866,-1,-1,-1,-1,0,0,0,1
1529305133407866,-1,-1,-2,0,-1,-1,0,-1
1529305133409861,-1,0,-1,-1,-1,1,-1,-1
1529305133409861,-3,0,0,-1,0,0,-1,0
1529305133409861,0,-1,0,0,0,-2,-1,0
1529305133409861,2,0,1,0,-1,0,-1,1
1529305133410858,-1,0,0,-1,-1,-2,1,-1
1529305133410858,0,1,-1,0,-1,1,2,0
1529305133416841,0,0,-1,1,0,1,1,-1
1529305133416841,1,-2,0,0,-1,1,-2,0
1529305133419833,1,-1,-1,-1,-2,-2,-1,-1
1529305133419833,-1,-1,0,0,-1,-1,-4,0
1529305133431801,-1,1,-3,-1,-3,-2,0,-1
1529305133431801,-1,1,-1,-1,1,-1,-3,-3
1529305133443774,-1,0,-2,-1,0,0,0,-1
1529305133443774,0,-2,-1,-1,-3,-1,2,1
1529305133450753,0,0,0,-1,-3,-1,0,0
1529305133450753,0,0,0,0,-1,-2,0,-3
1529305133458734,-1,-1,1,0,0,-1,0,-1
1529305133458734,1,0,-1,-1,0,0,-1,-1
1529305133475685,-1,0,1,-2,-1,0,-3,-2
1529305133475685,0,0,-1,-1,-2,-1,0,0
1529305133480671,-1,0,-1,0,0,-1,-1,-1
1529305133480671,2,-1,-2,0,-2,-1,-1,0
1529305133519568,-1,-2,1,-1,-2,0,3,0
1529305133519568,1,0,-1,1,-1,-1,0,-2
1529305133527546,-1,0,0,0,1,0,0,-1
1529305133527546,-3,-1,-2,-1,0,-2,-1,0
1529305133528543,1,-1,-1,1,0,-1,-4,-1
1529305133528543,0,-1,-2,-2,-1,-1,-1,0
1529305133529558,1,-1,-2,-1,-1,-1,-1,0
1529305133529558,2,-1,-2,0,-1,0,1,-4
1529305133541508,-1,1,0,-2,-2,-1,1,-2
1529305133541508,-1,0,1,-1,2,2,1,-2
1529305133547492,0,0,0,-1,-1,-3,-4,-2
1529305133547492,1,-2,2,-1,0,0,0,-1
1529305133555472,-1,0,-1,-1,-1,-2,-1,-1
1529305133555472,0,-1,-2,0,-2,1,-1,0
1529305133570433,-1,-3,-4,-2,3,-1,1,-1
1529305133570433,0,1,-1,-3,-8,0,0,-2
1529305133577413,1,0,1,3,1,0,-1,1
1529305133577413,1,-3,0,-2,-1,-1,-4,-1
1529305133586389,-4,0,-1,1,-2,0,1,-4
1529305133586389,-3,-3,-3,-4,4,1,0,0
1529305133600352,-1,-2,-2,0,2,1,3,-1
1529305133600352,0,3,3,9,-2,-2,-1,0
1529305133607333,-3,-3,-6,-12,1,-2,-2,-1
1529305133607333,3,3,14,13,1,0,-1,0
1529305133615311,-2,-5,-2,5,-4,-1,-2,-2
1529305133615311,-2,0,-2,0,4,0,1,-2
1529305133630273,0,-2,3,-4,-12,-2,-1,0
1529305133630273,-3,-2,-5,-1,4,2,-1,1
1529305133637255,0,3,7,-1,-2,-2,-2,-2
1529305133637255,2,9,13,10,13,2,3,3
1529305133647239,3,0,-4,-2,-7,0,1,1
1529305133647239,-1,-3,-8,-7,-7,-4,0,-2
1529305133660191,0,-6,-8,-3,3,1,-4,-2
1529305133660191,-1,-7,-12,-8,-7,-2,-2,-3
1529305133669167,-1,1,0,-2,3,1,1,0
1529305133669167,-2,-8,0,4,2,0,2,-1
1529305133675153,-2,6,-10,-6,-3,-2,-1,0
1529305133675153,-2,2,8,-1,0,0,-2,-4
1529305133690112,1,7,7,5,6,0,-3,-1
1529305133690112,4,2,-3,-6,-9,0,-1,0
1529305133697103,0,-7,10,9,9,-1,-1,-1
1529305133697103,-4,3,-10,-7,-14,-3,-1,-1
1529305133707068,-2,-3,4,4,0,0,1,-1
1529305133707068,0,1,-6,-4,2,0,-5,-2
1529305133720032,0,-6,-11,-1,0,1,1,3
1529305133720032,5,6,19,7,2,-2,-5,-4
1529305133729007,-4,11,14,9,4,1,3,2
1529305133729007,-2,0,-9,-7,3,-1,4,-1
1529305133734991,-6,-15,-16,-8,-4,0,0,-2
1529305133734991,0,-8,-9,-6,-4,-2,-1,1
1529305133749953,1,-9,-23,-6,1,3,0,0
1529305133749953,-10,-9,7,5,6,-1,-1,-1
1529305133757930,4,11,8,1,-8,-3,-3,-1
1529305133757930,1,14,16,0,0,2,1,1
1529305133766906,4,4,-2,0,-3,-1,6,7
1529305133766906,-3,-6,-8,-4,-5,-3,-11,-17
1529305133779872,-5,-11,-30,-9,-2,-1,-2,-3
1529305133779872,-3,-12,0,-5,-1,-1,-1,0
1529305133788848,0,9,23,7,-2,-4,-2,-2
1529305133788848,6,21,35,13,5,1,6,9
1529305133794870,3,3,7,3,1,2,0,-1
1529305133794870,-9,-7,-17,-4,2,0,0,-3
1529305133809845,-10,-30,-32,-9,1,1,3,-2
1529305133809845,-7,-8,-21,-6,-6,-1,-3,-4
1529305133817771,-7,-6,12,-3,-2,-5,-2,3
1529305133817771,6,10,-1,0,2,-1,-10,4
1529305133832732,-4,-12,8,5,-3,-6,0,-2
1529305133832732,13,26,7,2,-1,-1,0,4
1529305133839742,4,-1,-1,0,-2,-2,11,9
1529305133839742,-1,-2,-4,-4,-2,-3,-13,-19
1529305133848687,-5,0,8,-1,-3,-2,-6,-5
1529305133848687,2,-3,-4,-4,-2,1,0,0
1529305133854674,-3,5,6,4,7,4,1,-1
1529305133854674,-6,-12,-7,-2,-4,-1,3,8
1529305133869634,-4,-2,-10,-8,-7,-13,3,-5
1529305133869634,-1,-2,-21,-9,0,4,8,2
1529305133877612,-1,2,23,6,-7,-6,-5,-3
1529305133877612,9,8,11,5,4,5,8,6
1529305133892598,-5,-4,-20,-3,4,6,-7,-8
1529305133892598,-8,-10,20,3,3,-1,2,4
1529305133900550,-3,0,-14,-6,-4,-3,0,-7
1529305133900550,5,-3,9,6,5,-3,-1,2
1529305133909526,0,5,7,2,0,4,-6,4
1529305133909526,9,3,-10,-4,-4,-2,11,12
1529305133915524,-3,5,3,-1,-2,-3,-17,-17
1529305133915524,-9,-11,-14,-7,-6,-3,6,1
1529305133930470,7,8,6,3,1,1,2,3
1529305133930470,-8,-6,7,2,-1,0,-9,-2
1529305133937450,-8,-18,-25,-11,0,4,8,3
1529305133937450,2,21,25,6,0,-1,-2,-3
1529305133952410,5,-7,-18,-7,-1,2,-1,2
1529305133952410,-9,-7,8,3,-3,-4,-3,-5
1529305133960389,7,23,25,9,4,2,0,1
1529305133960389,5,5,-6,-1,2,-1,-4,2
1529305133969366,1,-1,12,2,3,4,0,3
1529305133969366,-6,-15,-46,-13,-9,-5,0,-3
1529305133975350,-11,-18,10,-3,2,0,-9,-6
1529305133975350,3,11,11,7,-1,-5,4,2
1529305133990309,7,14,9,2,-3,-3,6,4
1529305133990309,3,-2,-5,-1,6,4,-3,-2
1529305133997290,2,5,3,1,-4,-1,14,5
1529305133997290,0,1,13,5,1,1,-13,-8
1529305134012251,0,2,2,1,1,-4,0,-7
1529305134012251,-4,-13,-11,-5,-3,1,-2,1
1529305134020229,9,10,-6,-2,2,1,4,9
1529305134020229,-8,-12,-17,-5,-6,-5,-2,0
1529305134029205,-2,-5,-5,-5,-2,-2,-5,-6
1529305134029205,-1,6,16,13,5,-1,-8,-5
1529305134035188,1,6,10,-1,0,4,1,4
1529305134035188,-4,-12,-8,-1,-2,4,8,2
1529305134050149,-2,-2,-2,2,6,-1,-4,-1
1529305134050149,5,21,25,6,-1,-4,-5,-2
1529305134057130,-3,3,2,-4,-3,-1,-2,-1
1529305134057130,-5,-18,-32,-13,-8,2,10,4
1529305134073088,-8,-9,4,-2,1,3,-8,-6
1529305134073088,-2,-19,-8,-3,-2,-11,-4,-1
1529305134080068,14,21,2,5,0,-4,-3,1
1529305134080068,2,-2,0,-5,-4,-1,0,7
1529305134089045,-7,-12,-12,-2,6,8,10,5
1529305134089045,1,4,0,-3,9,3,-4,-6
1529305134095030,-7,-17,-12,3,-3,-6,-9,-4
1529305134095030,-2,-1,21,6,2,3,0,-2
1529305134109990,19,31,20,1,-15,2,11,11
1529305134109990,-4,-3,4,6,12,-2,-10,-6
1529305134117976,-7,-8,-18,-6,12,0,-1,-5
1529305134117976,0,-5,-9,-2,-2,-1,1,-1
1529305134132929,-6,-10,-11,-4,-8,-9,-9,-5
1529305134132929,5,5,9,-2,-12,0,4,3
1529305134139908,8,2,4,4,6,7,3,5
1529305134139908,-4,-12,-26,-8,0,1,-6,-5
1529305134148885,-8,1,13,-1,-5,-5,-4,-3
1529305134148885,0,10,-5,0,4,3,5,4
1529305134162848,1,0,9,5,-2,-6,-15,-8
1529305134162848,1,0,7,4,5,1,13,7
1529305134169829,9,5,-9,-9,-7,2,2,1
1529305134169829,-2,1,-24,-13,0,0,1,-1
1529305134177808,-7,-5,9,5,3,-1,6,1
1529305134177808,1,16,11,0,1,-3,-11,-8
1529305134192768,2,3,16,11,5,1,0,4
1529305134192768,4,6,-11,-9,-14,-4,-5,-3
1529305134199749,1,-3,-3,-10,-12,-3,-4,9
1529305134199749,-5,-1,-17,-2,6,5,3,-7
1529305134208725,-4,1,6,9,9,3,3,2
1529305134208725,-2,-3,2,3,-3,-4,0,-1
1529305134223699,-3,-8,-3,0,-1,-2,0,-5
1529305134223699,1,-9,-15,-13,-4,0,0,1
1529305134229669,10,17,-4,-3,2,3,-4,0
1529305134229669,4,12,19,13,5,-2,8,1
1529305134237647,19,5,5,5,-4,-4,-9,3
1529305134237647,15,7,8,2,3,4,19,11
1529305134252645,-10,-17,-29,-11,-3,0,-13,0
1529305134252645,-15,11,7,0,1,7,7,-11
1529305134259625,-6,-7,-12,-7,-4,2,1,7
1529305134259625,2,6,14,10,7,-4,-4,4
1529305134268601,2,21,14,8,7,4,4,1
1529305134268601,12,-18,-3,1,-2,-8,10,2
1529305134283550,0,2,-28,-14,0,-7,2,10
1529305134283550,-8,-9,-8,-2,-10,-27,-21,-26
1529305134290509,-17,-23,-4,1,0,-6,7,-3
1529305134290509,-2,23,20,15,7,2,0,13
1529305134297540,-7,-7,0,2,-3,0,8,-6
1529305134297540,-8,-3,-31,-13,-8,3,-1,2
1529305134312502,4,1,10,1,0,3,-14,-8
1529305134312502,-1,-14,-2,1,-7,-1,1,6
1529305134320481,0,-7,-1,2,-1,7,3,0
1529305134320481,-4,-18,-15,-14,-5,12,2,3
1529305134329454,-2,-1,26,20,6,-6,-4,-9
1529305134329454,2,-13,-9,-12,-6,0,-5,4
1529305134343384,-1,11,30,12,0,-4,-6,-3
1529305134343384,-2,-9,4,-4,-1,6,2,0
1529305134350598,6,-1,-11,-14,-5,1,6,3
1529305134350598,1,-12,-8,-10,0,-1,-8,0
1529305134357603,0,-3,2,10,13,5,3,-7
1529305134357603,4,15,34,1,-13,0,-2,-3
1529305134373130,6,-2,-3,-8,-3,-3,2,6
1529305134373130,-4,-12,-9,-14,-2,1,-4,-5
1529305134380701,-5,-2,-7,-4,-5,-8,-6,-6
1529305134380701,2,4,1,1,16,7,4,6
1529305134389409,2,-1,6,9,-2,6,-1,-1
1529305134389409,-5,-7,-5,-10,-5,5,1,-3
1529305134403637,-2,3,-7,-6,-8,-1,-4,-3
1529305134403637,4,7,16,4,1,0,-1,2
1529305134410618,-5,-7,-7,-12,-11,2,-3,-3
1529305134410618,0,0,0,8,15,2,0,-4
1529305134418272,0,1,-7,-9,-5,-1,3,2
1529305134418272,-4,2,9,12,10,-1,-2,-3
1529305134432154,-4,-7,-12,-5,-7,-4,-2,-5
1529305134432154,2,6,10,11,-5,5,1,1
1529305134440545,-3,2,1,-5,-9,0,6,3
1529305134440545,-5,-8,-13,-7,-7,5,1,-1
1529305134449120,0,-1,-4,1,9,4,-4,-2
1529305134449120,1,2,4,0,-6,-9,-8,-2
1529305134463432,-2,-3,4,0,8,7,4,-2
1529305134463432,-2,4,-5,0,1,0,-8,-1
1529305134470715,0,0,-1,-1,-2,-10,5,6
1529305134470715,-1,-3,-10,-8,-2,-8,0,-2
1529305134477811,-2,-2,-2,-1,-1,2,-3,-3
1529305134477811,-2,-2,-4,-1,-6,11,0,0
1529305134493285,0,-1,2,7,3,16,-1,-1
1529305134493285,-3,0,2,-2,-7,1,-9,-4
1529305134500392,0,-2,-10,-4,5,-1,10,2
1529305134500392,-2,1,5,7,1,-23,-14,-6
1529305134515391,-3,0,-5,-3,-1,-15,4,0
1529305134515391,0,1,-1,2,0,-8,-8,-6
1529305134523563,-7,-1,3,4,1,-4,-8,-4
1529305134523563,4,-5,-7,-5,-1,16,2,4
1529305134538528,3,-1,-6,-3,4,-3,3,3
1529305134538528,7,6,9,2,0,4,6,1
1529305134539261,-7,-1,-8,-6,-9,-9,-6,-2
1529305134539261,-7,-3,-16,-4,1,-18,-1,-5
1529305134552482,-1,2,13,2,-2,-13,-11,-4
1529305134552482,2,0,2,1,0,-12,2,2
1529305134560461,6,4,2,3,5,-4,-1,-1
1529305134560461,-3,-5,-12,-6,1,-3,5,2
1529305134575451,5,4,1,4,2,1,-5,0
1529305134575451,3,5,9,7,0,1,3,-1
1529305134583429,-2,4,6,6,3,1,2,-1
1529305134583429,-1,2,6,8,-3,-7,0,0
1529305134606408,-4,-4,-13,-8,-3,1,-1,-1
1529305134606408,5,2,2,-8,-6,3,1,3
1529305134607401,-6,-15,-17,7,-1,-2,-2,0
1529305134607401,7,12,26,13,5,-2,0,-1
1529305134612353,-1,6,3,8,5,0,3,0
1529305134612353,-6,-1,0,0,1,-2,-7,-4
1529305134620334,4,-1,-4,-10,-5,2,9,2
1529305134620334,-6,-7,-12,-6,-3,-6,-13,-12
1529305134635554,-4,-6,-18,-14,-3,5,3,0
1529305134635554,-2,2,14,16,8,-1,-2,-1
1529305134643572,9,4,3,-7,-6,5,4,0
1529305134643572,-7,-1,4,4,-3,-7,-2,2
1529305134658880,-1,-2,-2,-6,-3,-4,-3,-2
1529305134658880,-1,-7,-20,-17,-3,5,5,3
1529305134659545,1,-1,-8,0,11,10,-3,-1
1529305134659545,3,6,14,10,4,-2,1,-1
1529305134673347,-3,0,-1,-4,-21,-9,-4,-3
1529305134673347,-3,-3,-1,2,-4,-2,-2,-1
1529305134680577,1,2,-2,-5,-4,-1,9,1
1529305134680577,-7,-6,-15,-12,1,5,3,1
1529305134695595,6,6,10,8,9,12,12,5
1529305134695595,-3,-2,-1,-1,-4,-6,-11,-4
1529305134703506,0,0,6,2,1,-3,-5,-4
1529305134703506,0,-1,-7,-5,-4,1,1,4
1529305134718455,-3,-3,-3,0,0,0,1,2
1529305134718455,-2,-1,8,8,3,1,3,0
1529305134719210,-2,0,2,0,4,2,2,4
1529305134719210,1,1,2,2,-2,3,3,1
1529305134732176,2,0,-1,-1,3,0,0,1
1529305134732176,-4,-10,-14,-9,3,3,2,-2
1529305134740391,6,4,9,4,-7,-14,-8,-1
1529305134740391,-8,-9,-5,-2,0,3,4,3
1529305134755356,7,4,2,0,1,-6,-5,-2
1529305134755356,-4,1,-3,0,3,7,8,3
1529305134763338,3,1,0,-2,-2,-2,-5,-2
1529305134763338,0,-5,-12,-8,-2,2,5,2
1529305134778913,-4,-1,5,5,4,-3,-5,-4
1529305134778913,4,1,4,1,-4,0,1,1
1529305134778913,-3,1,-3,-4,-2,2,-1,-1
1529305134778913,-2,-5,-6,-5,-12,-14,-6,-3
1529305134792608,-6,-4,-2,1,12,6,-5,-6
1529305134792608,3,5,5,4,3,0,0,-1
1529305134799590,-3,0,5,2,2,3,-5,-4
1529305134799590,0,-3,-7,-9,-6,-2,5,3
1529305134815558,1,7,10,8,-7,2,-3,-3
1529305134815558,-1,-4,-8,-6,-1,8,7,2
1529305134823749,-3,-3,-2,-1,6,-3,-9,-5
1529305134823749,4,0,-6,-5,-14,-6,0,1
1529305134838485,-6,-10,-15,-10,-3,-2,-14,-12
1529305134838485,3,6,9,6,4,6,15,13
1529305134839506,2,5,15,13,2,-9,-21,-13
1529305134839506,-2,-6,-1,1,4,1,1,11
1529305134853094,-2,-5,-11,-8,1,4,25,6
1529305134853094,-2,2,8,9,-4,-8,-10,-6
1529305134860873,-11,-3,-4,-2,-4,6,19,0
1529305134860873,30,21,16,10,13,6,0,22
1529305134875826,8,13,-1,0,-5,-9,-7,2
1529305134875826,-6,-19,-14,-8,-2,-5,6,5
1529305134884007,2,6,3,3,0,1,5,-5
1529305134884007,-7,-10,-15,-10,2,8,-12,-15
1529305134898254,-13,-31,2,7,5,-6,0,-11
1529305134898254,16,21,-11,-6,-1,-10,-6,10
1529305134898903,-16,-13,-6,-7,-6,-14,-6,-8
1529305134898903,-6,-14,10,12,2,-12,10,-41
1529305134913420,16,11,-2,-3,-3,-5,-24,25
1529305134913420,-35,6,-13,-8,-4,-2,11,-34
1529305134920647,42,19,11,6,0,-1,4,44
1529305134920647,14,13,-42,-23,-5,0,8,9
1529305134935593,-12,14,36,28,8,-3,8,4
1529305134935593,1,1,11,17,1,-4,-13,-17
1529305134944019,-24,-31,-32,-14,-1,16,23,8
1529305134944019,-35,-41,-27,-1,1,-5,-12,-23
1529305134958985,-3,-35,-21,1,-2,-26,-5,0
1529305134958985,-20,-40,-4,6,-2,-5,-11,-1
1529305134958985,-28,-87,-6,9,-1,6,-6,-12
1529305134958985,-31,-97,-5,4,6,25,0,4
1529305134972857,-34,-100,-46,-14,-2,4,1,-9
1529305134972857,-13,-76,-34,-15,-7,-16,-3,12
1529305134980431,-1,-18,-22,6,12,-7,0,12
1529305134980431,28,25,33,26,12,-17,-7,11
1529305134995194,33,55,19,3,4,2,11,25
1529305134995194,11,94,15,-11,-3,11,5,0
1529305135003375,9,94,-7,-36,-12,30,-8,-4
1529305135003375,4,109,38,14,-10,-10,-18,-6
1529305135018594,22,96,62,3,-8,6,-1,-8
1529305135018594,22,58,41,-2,-8,4,-4,0
1529305135019618,22,51,41,1,-3,5,-7,-4
1529305135019618,15,31,22,-11,6,20,9,7
1529305135032299,7,10,-4,-27,-23,8,-2,-9
1529305135032299,15,4,8,-12,-7,19,3,4
1529305135040533,1,4,26,17,7,1,1,-1
1529305135040533,5,0,12,3,0,8,1,2
1529305135054899,-6,-5,7,0,1,10,4,-4
1529305135054899,-1,-14,-9,-11,-3,9,-5,0
1529305135063844,2,-5,1,-3,-19,-7,1,-4
1529305135063844,-5,-6,-2,-9,-7,-20,-3,-4
1529305135078719,-3,-5,-6,0,2,-1,-2,-4
1529305135078719,-4,-14,-13,-6,11,7,2,2
1529305135079698,3,-7,6,29,13,-2,4,-2
1529305135079698,-4,-5,-2,-3,-5,-11,-2,-3
1529305135092440,-5,-12,-16,-13,-9,-4,0,2
1529305135092440,1,-13,-3,2,-4,-15,-3,0
1529305135100663,-2,-9,-9,-10,-3,1,1,-4
1529305135100663,-2,-9,-4,-4,-2,13,1,1
1529305135115381,-2,-10,-5,0,4,5,4,-1
1529305135115381,6,-5,-1,5,2,2,-3,-2
1529305135123618,-8,-16,-8,-8,2,21,4,4
1529305135123618,0,-4,-1,2,2,48,4,5
1529305135138350,-10,-20,-16,-4,4,20,-12,-10
1529305135138350,5,4,-1,7,0,34,1,5
1529305135145843,-2,-1,-6,-5,-4,-4,-12,-8
1529305135145843,-3,0,-2,-2,-3,4,6,-3
1529305135152819,7,-1,-6,-1,2,6,9,7
1529305135152819,-10,-20,-5,2,3,-13,-1,-2
1529305135160901,-7,4,-2,-5,-3,-22,6,-2
1529305135160901,-5,-16,-7,0,4,-28,-7,-14
1529305135175394,26,18,-4,0,4,-25,4,21
1529305135175394,-17,-7,-6,-1,-3,-25,0,0
1529305135183040,12,5,-9,-4,3,-20,4,10
1529305135183040,0,5,0,2,0,-21,5,4
1529305135197997,-14,-7,-8,-3,-3,-15,-9,-2
1529305135197997,2,-3,0,0,-1,-13,-6,-10
1529305135206046,-7,-9,-4,-2,-2,-9,-6,-8
1529305135206046,-2,3,-2,-3,-9,-16,1,3
1529305135213217,-5,-7,-2,2,-4,-16,-7,-16
1529305135213217,-1,-6,-2,1,-1,-12,8,6
1529305135229950,-16,-26,-4,-1,8,10,-7,-8
1529305135229950,8,5,-3,0,3,-4,3,4
1529305135235146,-6,10,0,4,5,4,0,-33
1529305135235146,18,12,5,5,-1,-5,35,61
1529305135243972,6,-20,4,6,-4,-14,-6,-19
1529305135243972,-7,-4,-1,0,0,8,12,-3
1529305135258101,-5,2,1,0,0,10,-9,-15
1529305135258101,-13,-15,-7,1,5,15,1,-10
1529305135266809,14,20,-2,0,-1,-2,-23,38
1529305135266809,12,11,1,4,6,-11,-10,5
1529305135280564,-4,-1,0,4,-6,7,5,12
1529305135280564,-2,-6,0,1,-6,5,-6,-8
1529305135289278,-2,-3,-2,-2,-4,-2,-1,-2
1529305135289278,-4,-4,-4,-2,-1,4,-9,-8
1529305135295832,-15,-3,2,5,7,2,4,11
1529305135295832,10,10,3,2,2,-1,-15,-19
1529305135303990,-5,4,-2,-1,-3,-1,7,-10
1529305135303990,5,5,1,1,0,4,7,11
1529305135318291,-4,-14,-2,-2,4,8,7,-5
1529305135318291,-6,-6,-6,-4,-1,-6,-7,-10
1529305135326821,1,8,4,3,7,0,1,-3
1529305135326821,-1,-8,1,1,-4,8,2,4
1529305135340898,2,-3,-4,-4,-1,-8,-3,5
1529305135340898,0,1,-4,-2,-7,11,-6,-8
1529305135349175,0,0,-5,-3,-8,-6,7,1
1529305135349175,-4,-4,-2,1,6,0,-1,-1
1529305135355204,0,0,0,0,-13,-13,-1,-1
1529305135355204,-2,3,1,1,24,9,1,-2
1529305135364130,-3,-7,-5,-5,-7,23,7,-7
1529305135364130,-3,-4,-5,-4,9,-6,-5,-2
1529305135378096,2,1,4,3,-17,-2,-1,-1
1529305135378096,1,0,8,5,0,-4,0,2
1529305135386067,-1,1,1,-1,-8,-7,-1,-2
1529305135386067,-4,-6,-4,-8,-27,-4,-4,-5
1529305135400030,1,-6,-8,-2,22,11,4,5
1529305135400030,0,-1,-4,-6,-14,-15,-8,-8
1529305135409019,1,4,5,4,12,12,2,4
1529305135409019,1,5,1,-1,2,9,9,2
1529305135414990,0,-1,-5,-2,4,-5,-20,-12
1529305135414990,2,0,-1,2,6,4,9,3
1529305135423995,5,3,1,-8,-11,-7,2,9
1529305135423995,-1,-4,0,3,14,10,-1,1
1529305135437983,0,-3,-3,5,16,-1,3,1
1529305135437983,-1,-1,-1,0,11,3,-3,2
1529305135446904,-9,0,2,4,7,-12,-2,-10
1529305135446904,2,3,6,6,14,15,6,4
1529305135459922,0,0,-3,-12,-39,-7,3,5
1529305135459922,-4,-2,0,0,1,-4,-4,-2
1529305135468882,1,0,-5,-11,-4,-13,0,0
1529305135468882,-6,-2,14,10,-13,-4,-1,-1
1529305135474887,9,10,1,-3,-10,4,4,7
1529305135474887,-4,-2,0,7,8,6,-2,-2
1529305135483858,-2,1,0,2,-10,-5,-2,-3
1529305135483858,-3,-8,-4,-4,5,-6,-4,-1
1529305135497824,-5,-7,-3,4,8,3,2,-2
1529305135497824,1,3,8,-1,12,0,-1,0
1529305135506745,-2,2,-1,-1,-9,6,0,-3
1529305135506745,1,6,0,-6,-23,-15,-6,-2
1529305135519710,0,4,2,-5,15,1,4,0
1529305135519710,-1,1,-1,-7,-17,-11,-6,-3
1529305135528739,0,1,3,1,10,8,2,0
1529305135528739,0,1,4,-4,-12,0,1,0
1529305135534726,3,2,0,-3,10,-3,4,6
1529305135534726,-7,-4,7,10,4,1,-4,-4
1529305135543725,-1,-2,-3,-5,-1,2,-1,0
1529305135543725,-1,4,0,-3,-5,-9,-7,-2
1529305135557665,5,-5,-3,-4,6,3,9,4
1529305135557665,-8,-1,-7,-4,6,-1,1,-4
1529305135566584,-4,-1,-1,0,-13,-4,1,-2
1529305135566584,0,-1,-6,-4,0,0,-1,-1
1529305135580583,2,1,2,3,-17,-5,0,8
1529305135580583,-2,-4,-4,-4,5,8,1,-10
1529305135589531,2,-1,-1,1,7,-6,-9,-18
1529305135589531,-1,-2,-6,1,10,-4,0,-2
1529305135595524,-3,-4,-4,0,-6,0,-6,-4
1529305135595524,1,-1,-2,-2,-23,-3,-1,-6
1529305135604483,3,2,-3,1,11,-2,2,24
1529305135604483,0,-2,-3,-1,5,9,-10,-12
1529305135617494,-2,1,3,4,-7,-7,11,1
1529305135617494,-1,-4,-8,0,11,7,-2,-1
1529305135626450,0,0,1,4,-7,-3,-2,-5
1529305135626450,2,1,0,2,0,-3,-3,9
1529305135640442,-5,-1,-1,-1,4,2,-2,0
1529305135640442,-2,0,-4,-3,-19,-10,-7,-14
1529305135649374,-1,-1,-2,0,6,6,3,2
1529305135649374,0,1,0,1,-3,4,5,2
1529305135655401,6,-2,-2,-3,0,-6,-4,4
1529305135655401,4,1,0,-2,0,12,4,6
1529305135664323,-10,-5,-1,0,3,9,0,-2
1529305135664323,-10,-5,-2,0,1,-8,4,-4
1529305135677342,-6,-2,1,2,1,1,-7,-2
1529305135677342,8,3,-3,-3,-1,0,-8,-17
1529305135686468,6,0,-2,-1,-5,-3,7,16
1529305135686468,9,7,-3,-4,3,-2,3,2
1529305135700478,-7,-4,-1,-3,-7,0,-4,-6
1529305135700478,5,2,1,0,-3,-1,6,9
1529305135709203,-1,-2,-1,-1,-10,-4,-9,-10
1529305135709203,-1,0,-2,2,8,-3,2,-3
1529305135715496,1,1,1,3,8,7,1,2
1529305135715496,-2,-1,0,0,-5,-7,-6,-9
1529305135724828,-1,-2,-3,-2,4,-1,3,0
1529305135724828,2,-5,-2,-1,0,9,-1,4
1529305135737969,-3,-2,-2,-2,-7,-10,-5,-4
1529305135737969,-3,1,-1,0,-14,-2,5,12
1529305135746691,-7,-1,-2,-3,-1,-1,-20,-21
1529305135746691,-1,0,-2,-2,-1,3,2,2
1529305135760797,-4,-2,-1,-1,6,8,0,0
1529305135760797,2,-1,2,0,-3,-2,1,13
1529305135768883,1,0,-1,-3,-8,0,3,1
1529305135768883,1,-2,0,1,7,1,-2,-2
1529305135775828,-6,0,-2,-3,0,-2,-4,-4
1529305135775828,0,-3,0,-1,-1,0,2,8
1529305135783845,0,0,0,1,7,0,0,-5
1529305135783845,-4,-9,-2,-2,-5,-4,-1,1
1529305135797600,3,7,2,0,-4,-5,-6,-8
1529305135797600,-2,-4,-2,-1,8,5,11,10
1529305135806586,0,-1,0,-6,-11,-7,2,2
1529305135806586,3,1,2,0,-4,-6,-2,0
1529305135820740,-2,-4,0,1,-1,2,-1,-5
1529305135820740,-2,0,2,-1,-5,-3,0,3
1529305135829704,-1,-3,0,0,5,-2,0,0
1529305135829704,2,2,0,-2,-2,-2,0,0
1529305135835711,4,0,-1,1,5,3,5,7
1529305135835711,0,-3,0,1,4,-2,-9,-9
1529305135843722,6,0,1,1,4,4,5,9
1529305135843722,-4,3,-1,-1,-6,-4,-5,-18
1529305135858108,4,-1,-3,0,0,2,-2,3
1529305135858108,4,0,-1,0,2,-2,2,5
1529305135866663,-7,-1,-1,0,1,-1,-2,-6
1529305135866663,-4,-3,-1,0,3,4,4,4
1529305135880337,-4,0,0,-2,-10,0,2,-5
1529305135880337,4,2,-2,-2,-6,-3,-2,-2
1529305135889148,0,0,0,3,9,5,-2,-11
1529305135889148,1,-3,-5,-7,-16,-12,-1,20
1529305135895323,-1,-1,0,-4,-21,-10,-1,-2
1529305135895323,-2,0,-1,-3,3,1,4,2
1529305135904338,1,1,1,2,0,2,3,2
1529305135904338,-2,-1,1,0,3,5,-1,-3
1529305135918410,3,-1,1,2,14,7,-3,5
1529305135918410,-10,-3,-4,-2,-13,-5,1,-3
1529305135927388,-3,-2,-1,-1,1,-1,-2,0
1529305135927388,-3,0,0,1,3,2,-1,-5
1529305135940341,4,2,0,-2,4,3,0,4
1529305135940341,7,2,1,2,11,4,-2,0
1529305135949054,-1,-2,-3,-4,-6,-4,0,-1
1529305135949054,1,-1,1,0,-4,-1,3,0
1529305135955340,-1,-4,-1,-3,0,-3,0,-6
1529305135955340,0,0,0,-2,-1,-3,-1,0
1529305135964318,2,1,0,0,-2,-3,1,10
1529305135964318,-1,-1,-1,0,-2,0,-14,-16
1529305135978068,-1,0,-1,1,2,-1,1,1
1529305135978068,-1,1,-2,0,-4,-2,-2,1
1529305135986646,8,2,1,-2,3,2,4,17
1529305135986646,-10,-6,-3,0,7,-1,-5,-23
1529305135999640,-1,-2,-2,-1,-1,-1,-3,14
1529305135999640,-6,0,0,1,2,-8,5,-6
1529305136009840,-2,-2,-3,-2,-12,-2,-1,0
1529305136009840,-1,0,1,-1,-5,-2,4,4
1529305136014850,-1,-2,-1,1,7,1,-4,-9
1529305136014850,0,-5,-3,-7,-12,1,-1,3
1529305136024812,0,-1,1,2,3,-1,0,-4
1529305136024812,3,1,0,0,-2,-3,2,4
1529305136037874,-2,-1,0,1,3,0,3,-2
1529305136037874,-2,-3,1,-1,4,-2,-2,-1
1529305136046815,-1,-1,-1,0,-2,2,0,-4
1529305136046815,2,0,-1,2,3,1,3,10
1529305136061600,-3,2,-3,-1,0,-1,-14,-20
1529305136061600,-6,-5,-2,-2,-4,2,3,-1
1529305136067772,-3,0,0,2,5,-2,2,0
1529305136067772,8,2,2,0,3,1,1,5
1529305136075342,-5,0,-1,-2,2,1,4,-2
1529305136075342,-3,-2,-2,1,-3,-1,-4,2
1529305136084840,-5,-2,1,1,0,1,-1,-15
1529305136084840,8,1,-1,0,4,1,2,5
1529305136097880,-6,-1,1,-2,2,1,4,2
1529305136097880,-3,-1,1,1,-1,-4,-9,-7
1529305136106555,-1,-1,-4,-3,-4,-6,0,5
1529305136106555,-1,-3,-1,1,2,1,-1,-2
1529305136120895,4,0,0,1,11,5,0,-3
1529305136120895,1,1,0,-2,-16,-7,2,4
1529305136129184,1,0,2,-1,5,3,-5,-2
1529305136129184,-2,0,-1,0,-3,-7,-6,-4
1529305136135417,2,0,0,-3,-7,-3,2,3
1529305136135417,-1,-1,-1,1,-4,6,4,1
1529305136144458,2,1,0,4,12,3,4,5
1529305136144458,-6,-1,0,-2,-6,-3,-15,-20
1529305136157678,0,-1,-2,0,6,2,3,2
1529305136157678,2,0,1,1,4,2,1,2
1529305136166487,-1,0,-1,-2,-7,-5,-4,-6
1529305136166487,-4,-1,-1,0,2,3,7,6
1529305136181346,-3,-3,0,-1,-9,-5,-2,0
1529305136181346,0,1,-1,-1,7,1,-1,-7
1529305136187972,-3,-2,-2,-1,7,3,-1,0
1529305136187972,-1,-1,0,-2,-3,-3,5,7
1529305136194968,3,1,3,1,-4,-2,-2,-1
1529305136194968,0,0,-3,0,6,0,-2,1
1529305136203934,-2,0,-1,-2,-4,-5,-4,-2
1529305136203934,-1,-1,0,-2,-1,4,0,2
1529305136217890,0,-1,1,-1,-2,-1,-1,-2
1529305136217890,2,-1,2,0,-4,-1,-3,-1
1529305136227098,0,-1,-3,-3,-13,-12,-3,-1
1529305136227098,0,0,-1,-1,-1,-4,-5,-1
1529305136241144,0,0,-1,1,-1,5,4,5
1529305136241144,-1,0,-3,-1,4,-1,-3,-1
1529305136248173,0,-1,0,1,1,-2,-3,0
1529305136248173,-1,-1,-2,-2,-2,4,5,1
1529305136264643,0,0,-1,0,-3,-2,-1,-1
1529305136264643,1,-1,0,0,2,-4,0,-1
1529305136265617,-1,-1,-2,-1,-2,1,3,0
1529305136265617,-2,-2,-3,-3,1,1,-1,3
1529305136278307,0,-1,-2,1,0,-3,-1,-2
1529305136278307,1,1,6,-3,-4,0,0,-1
1529305136286527,0,-1,1,1,-1,2,0,-2
1529305136286527,0,1,1,0,-3,-5,2,1
1529305136300860,-2,-3,-5,-5,-5,-3,0,1
1529305136300860,-1,1,0,1,2,1,-4,-1
1529305136307943,0,0,-1,-3,-2,-3,-1,-2
1529305136307943,-2,-1,-3,-2,1,1,1,-1
1529305136324456,0,-3,-4,-3,-3,-1,-2,-3
1529305136324456,0,1,5,5,1,1,0,1
1529305136325480,-2,0,-2,-2,1,0,-2,-2
1529305136325480,2,-1,-1,-4,-3,-3,1,0
1529305136337686,-1,-1,-2,0,0,2,3,1
1529305136337686,-1,-2,-7,-1,0,-1,-1,-1
1529305136347441,-1,-2,-3,-1,2,-1,-5,-2
1529305136347441,-2,0,3,3,-1,-1,1,0
1529305136361479,1,0,1,-3,-1,-1,4,3
1529305136361479,0,-1,2,4,2,0,-2,1
1529305136368311,0,1,1,0,-2,2,1,0
1529305136368311,-1,-1,-4,-3,1,1,-5,-2
1529305136384461,-1,1,0,-2,-6,-2,0,-2
1529305136384461,-1,-2,-2,2,5,3,3,0
1529305136385084,1,-1,-1,-9,-11,1,-2,0
1529305136385084,0,0,3,3,-1,-3,5,4
1529305136397361,-1,0,0,6,10,0,-3,-3
1529305136397361,0,2,-1,-3,6,-2,-2,1
1529305136406336,0,0,-1,7,12,2,-1,-1
1529305136406336,1,0,-4,-5,0,2,-1,-1
1529305136421461,1,1,5,0,-18,-7,-5,-3
1529305136421461,0,-1,-4,-1,5,1,1,1
1529305136428306,-2,-2,-3,-3,-7,1,3,1
1529305136428306,-1,-1,2,7,6,-2,-1,1
1529305136444631,1,-1,-1,-4,-1,3,3,3
1529305136444631,-1,-1,-1,-1,-5,-4,-5,-3
1529305136445531,2,2,0,1,1,-2,1,1
1529305136445531,-5,-3,-5,-3,-1,-1,-8,-2
1529305136457731,5,-2,-7,-2,-1,-3,0,0
1529305136457731,0,2,-1,-3,-6,0,-6,-5
1529305136466475,-10,-4,1,1,3,0,3,-2
1529305136466475,0,2,2,1,-1,1,0,0
1529305136481156,0,2,1,-1,0,-1,0,0
1529305136481156,-2,-3,-1,-2,0,-2,5,0
1529305136487985,2,0,1,4,2,1,-2,0
1529305136487985,0,-2,3,-1,-4,2,0,-3
1529305136504037,2,-2,-3,-5,0,1,-1,-2
1529305136504037,16,2,-6,-5,-1,-1,3,8
1529305136505770,-5,-3,-3,-3,-4,-3,-6,-2
1529305136505770,-16,-4,1,5,2,0,4,-1
1529305136518000,2,-3,4,7,1,-3,-5,0
1529305136518000,-8,-5,-2,-3,-4,-3,1,-2
1529305136526715,12,4,1,-2,-2,0,-1,0
1529305136526715,8,4,-2,-2,2,1,2,3
1529305136540938,-12,-4,-2,-2,1,-3,-8,-6
1529305136540938,-2,-1,3,2,-2,0,2,-3
1529305136547923,1,-3,-2,-5,-4,-3,-11,0
1529305136547923,5,-1,-1,-2,-3,-2,6,-2
1529305136564655,-1,1,-4,-3,1,-1,1,-2
1529305136564655,-9,-4,4,1,-2,0,-5,-2
1529305136565610,2,4,-1,0,1,3,13,4
1529305136565610,0,-2,1,-2,-5,2,2,0
1529305136577841,-6,-4,-3,-2,-1,-1,-4,0
1529305136577841,-1,0,-5,-1,0,-1,0,0
1529305136586555,-2,0,3,-2,0,-2,-1,-1
1529305136586555,1,-3,-1,4,-2,-3,-3,0
1529305136600517,8,1,4,-1,2,1,3,0
1529305136600517,-2,1,1,3,-2,0,0,2
1529305136607500,-9,-2,1,4,2,1,-1,1
1529305136607500,-2,-2,-4,-4,-1,-2,1,1
1529305136624667,0,2,-2,0,2,2,0,1
1529305136624667,1,-1,1,3,-3,-2,-4,-4
1529305136625452,2,0,0,0,1,0,2,-2
1529305136625452,2,1,0,0,-1,1,-3,-2
1529305136637418,0,0,-2,-1,-2,-2,1,-1
1529305136637418,-4,-3,-3,-3,0,0,2,2
1529305136646644,-5,0,2,7,0,1,0,-1
1529305136646644,-1,0,0,-8,-3,0,1,-1
1529305136661476,-4,0,4,2,-1,0,-5,-1
1529305136661476,1,-2,-3,-2,0,0,-1,-3
1529305136667634,0,0,0,1,1,1,-1,0
1529305136667634,-2,-2,-7,-6,-1,1,-3,1
1529305136684113,7,3,9,13,0,-3,3,2
1529305136684113,-9,-3,-3,-2,-2,-1,0,-3
1529305136685114,2,-2,-5,-4,-4,-5,-2,-1
1529305136685114,1,2,2,1,1,-2,0,0
1529305136697907,-2,-2,-5,-4,-3,-1,-1,-1
1529305136697907,10,0,-2,0,1,1,0,0
1529305136706626,-4,-2,0,-2,0,-2,-3,-4
1529305136706626,-4,-3,-3,0,-1,-1,1,-1
1529305136721597,-3,-2,-1,-1,0,1,3,2
1529305136721597,1,0,1,-1,0,-2,3,2
1529305136727853,-4,-2,-4,-3,-2,-1,-1,-3
1529305136727853,-2,1,2,3,1,-1,-4,-3
1529305136744715,-2,0,-1,-3,2,1,-2,-2
1529305136744715,1,1,3,3,-1,0,-4,-1
1529305136745380,4,-2,-3,-4,0,1,6,4
1529305136745380,-2,-2,-3,-1,-1,1,-6,-1
1529305136757610,-4,0,0,-3,-2,2,4,0
1529305136757610,1,0,-2,-3,-1,-2,-1,0
1529305136766506,1,0,1,0,0,0,0,-4
1529305136766506,-2,0,0,2,-1,1,-3,-2
1529305136780857,3,-1,-3,-3,0,0,3,1
1529305136780857,1,-2,-6,-7,-2,-1,-3,-2
1529305136788494,-8,0,4,4,-2,-3,0,-2
1529305136788494,8,-1,0,1,-2,-1,-2,-4
1529305136804201,-6,-2,0,-3,-3,-2,-2,1
1529305136804201,-11,0,-3,0,1,3,5,1
1529305136806387,3,0,-5,-5,0,0,3,5
1529305136806387,-2,-3,0,-3,-1,-1,1,-2
1529305136817450,0,-1,-1,-4,-3,-3,-4,-3
1529305136817450,1,1,0,-1,-1,0,-2,-3
1529305136826429,5,2,-2,-1,0,0,-2,-2
1529305136826429,2,1,1,0,1,-1,-3,-2
1529305136840952,-2,-2,-2,1,0,0,-1,-1
1529305136840952,-2,-4,-2,-2,-3,-2,1,1
1529305136847942,2,-1,0,1,1,2,1,1
1529305136847942,0,-1,-3,-5,-3,-2,3,2
1529305136863727,0,0,-3,2,0,1,0,-1
1529305136863727,1,2,8,4,-1,0,-3,-2
1529305136871616,-2,-3,-4,1,-1,-1,-4,-2
1529305136871616,-1,1,1,0,0,-1,1,1
1529305136878174,-2,-2,-2,-3,-1,-1,-1,0
1529305136878174,-2,-2,-5,0,0,0,-1,1
1529305136886192,2,1,-1,-1,-1,0,-4,-3
1529305136886192,-2,0,-2,-2,2,1,1,-1
1529305136901418,0,1,1,-3,-2,-1,3,0
1529305136901418,0,1,0,1,0,0,-1,0
1529305136907925,-2,-2,-3,-3,-2,-2,-2,-3
1529305136907925,-2,-2,-3,1,-2,1,1,2
1529305136924174,-3,-2,-2,1,1,1,1,-1
1529305136924174,4,2,3,1,1,-2,0,0
1529305136926300,0,2,0,0,-1,0,0,-3
1529305136926300,2,-2,0,-3,-2,-3,0,-2
1529305136937444,-2,-2,-1,-1,-3,-1,-2,0
1529305136937444,-4,0,-2,0,0,-1,3,0
1529305136946622,-7,-1,0,-1,0,-1,-3,-2
1529305136946622,0,0,2,2,0,-2,-1,-1
1529305136961617,2,0,0,-2,2,0,0,0
1529305136961617,-2,-3,0,-1,0,0,-1,-2
1529305136967825,-1,0,0,-2,-1,0,-2,0
1529305136967825,3,2,-1,-1,0,-1,-3,-1
1529305136984098,-3,-2,-1,0,-1,-1,-4,-1
1529305136984098,-4,-4,-3,-4,-2,0,6,0
1529305136990820,2,2,2,0,1,0,6,5
1529305136990820,-2,-2,0,1,2,1,1,0
1529305136998009,-1,0,-5,-7,-2,-2,-5,-3
1529305136998009,2,1,2,5,1,-1,-4,-3
1529305137012068,-2,-1,3,1,0,-1,-1,-1
1529305137012068,2,0,1,0,1,0,1,3
1529305137021091,-4,0,0,1,1,-2,-1,-3
1529305137021091,0,-1,-2,-5,0,0,0,4
1529305137028027,1,-1,-1,-2,-1,-3,-3,-1
1529305137028027,-2,-1,0,1,1,0,-2,-2
1529305137044043,1,1,-2,0,0,-1,0,-1
1529305137044043,1,0,-1,-2,-1,0,-1,-3
1529305137049967,6,1,-1,1,-1,-1,0,0
1529305137049967,-9,-3,-2,-7,-4,-1,-1,0
1529305137058258,2,-2,1,4,-1,-1,0,0
1529305137058258,-4,0,0,0,0,-2,-3,-1
1529305137066921,0,-2,-2,-1,-1,1,-3,-3
1529305137066921,2,0,0,0,0,0,0,0
1529305137081444,1,1,1,-2,-1,2,5,3
1529305137081444,1,1,-1,-1,0,-1,0,-1
1529305137088298,0,-1,-3,-2,-1,-3,-4,-2
1529305137088298,-8,-4,-3,-2,-3,1,-1,-3
1529305137103401,-5,0,2,1,-1,0,0,-2
1529305137103401,2,0,-1,-2,-1,0,1,-3
1529305137110383,-2,-1,0,-1,-1,-2,-3,-2
1529305137110383,1,-2,0,1,-1,-3,-1,1
1529305137118153,0,-4,1,-1,2,0,5,1
1529305137118153,-3,-2,-3,-1,0,-1,-3,-1
1529305137126793,0,-1,0,-1,0,0,3,-1
1529305137126793,-1,2,0,1,-1,-2,-4,-3
1529305137139760,2,0,-1,0,0,-3,-3,0
1529305137139760,2,-1,0,-1,-2,-1,-3,0
1529305137148986,-6,-3,-2,-1,-1,0,-1,0
1529305137148986,0,-2,-1,1,0,1,3,0
1529305137163645,-2,-1,-1,-1,0,-1,-4,0
1529305137163645,-3,0,0,0,-1,-2,-3,-1
1529305137170588,3,2,-1,0,-1,0,1,2
1529305137170588,0,0,-2,1,0,0,0,-1
1529305137186881,3,-1,-1,1,-1,0,2,1
1529305137186881,2,-1,-2,-1,-1,0,-2,-1
1529305137188884,-1,-1,-3,-2,-2,-1,0,-1
1529305137188884,-2,0,0,-1,1,1,0,0
1529305137200735,6,-2,-3,1,-1,0,-2,-1
1529305137200735,1,-1,0,-1,0,1,4,5
1529305137209113,-4,-1,-1,0,1,1,1,-1
1529305137209113,-2,2,0,1,-1,-1,-1,0
1529305137224111,0,2,1,0,-1,-1,-4,-3
1529305137224111,0,0,-1,0,-1,-2,-2,-3
1529305137230287,0,0,1,0,-1,-2,0,0
1529305137230287,-2,1,-2,-1,-1,-3,-1,-1
1529305137247160,-1,0,2,-2,0,0,-1,-1
1529305137247160,4,0,-1,-1,-2,-1,-2,-2
1529305137248047,-7,-2,0,-1,0,1,-1,0
1529305137248047,0,-3,-2,0,0,1,3,2
1529305137260758,0,0,0,-2,0,-2,-1,1
1529305137260758,-1,-1,-2,-1,-1,-1,0,-2
1529305137269038,2,0,0,0,-1,-1,2,1
1529305137269038,1,-2,0,-1,1,-1,0,-1
1529305137284127,-1,0,0,0,0,0,0,-1
1529305137284127,0,1,-2,0,0,-2,1,-2
1529305137290739,1,-2,-2,1,-1,-1,0,-3
1529305137290739,0,-1,-2,-2,-3,-1,-1,-1
1529305137306910,-3,0,-1,-1,-2,-1,-4,-1
1529305137306910,-3,-3,-2,0,-1,0,-2,-1
1529305137308855,0,0,-1,1,0,0,1,2
1529305137308855,0,-1,2,0,-1,0,-1,1
1529305137320217,0,0,-2,-1,-2,0,5,1
1529305137320217,-1,0,1,-1,-1,1,-1,1
1529305137329233,-2,-2,-2,-2,-1,2,1,-1
1529305137329233,0,0,-1,0,0,-2,-4,-3
1529305137343548,0,-1,-2,-2,-1,-2,-1,1
1529305137343548,1,-2,-1,-2,0,-3,-1,3
1529305137350526,8,3,-2,0,0,1,4,3
1529305137350526,-1,1,0,-2,1,0,1,1
1529305137366739,-5,-2,-2,-1,-1,0,-2,-4
1529305137366739,1,0,0,-1,-1,2,-2,-1
1529305137368433,-5,-2,-1,-1,-1,-3,-3,-4
1529305137368433,6,1,0,0,-1,-2,0,3
1529305137380746,-2,0,1,0,0,1,1,1
1529305137380746,2,-1,0,-1,-1,-1,-1,-1
1529305137389378,1,-1,0,-1,-2,-2,-2,0
1529305137389378,-3,0,0,0,2,1,0,-1
1529305137403652,-1,-3,-2,0,0,0,-2,-2
1529305137403652,-5,-2,-1,0,0,0,0,-1
1529305137410867,0,0,-2,-2,-1,-1,-2,-2
1529305137410867,2,-1,-2,-1,-1,-3,0,1
1529305137426960,1,-2,0,0,-1,0,-1,-1
1529305137426960,-1,0,-1,-1,0,-2,-1,-1
1529305137428805,-2,-3,0,-1,1,0,-4,-3
1529305137428805,1,1,-1,0,-3,-1,-2,-1
1529305137440815,-9,-4,-1,-2,-1,0,1,0
1529305137440815,-1,0,1,0,0,-1,1,3
1529305137448955,-3,-1,-1,0,1,0,-1,-1
1529305137448955,-5,-3,-2,1,-2,-3,-5,-3
1529305137463337,5,0,-2,-1,-1,-1,-3,0
1529305137463337,-3,-1,0,-2,0,-2,1,-2
1529305137470648,2,-1,0,0,-2,-1,1,0
1529305137470648,0,0,0,-1,0,1,2,1
1529305137486899,0,1,1,0,-1,0,-3,-1
1529305137486899,2,-1,1,0,1,-2,1,-1
1529305137488544,-2,0,0,-1,-1,0,0,-1
1529305137488544,-4,-1,0,-2,-2,-1,-1,-3
1529305137500946,2,0,-2,0,1,0,1,3
1529305137500946,-1,-1,-1,-1,0,0,-1,0
1529305137507906,2,1,0,-1,0,0,-1,1
1529305137507906,-1,-1,-1,-2,0,-1,0,-2
