timestamp,emg1,emg2,emg3,emg4,emg5,emg6,emg7,emg8
1528874450889278,1,-3,0,-5,-2,-6,0,-3
1528874450889278,-3,-2,-9,-4,-9,-5,-6,-20
1528874450896257,-3,0,-4,4,11,4,-2,-6
1528874450896257,-4,-10,-5,-7,-15,-15,-10,0
1528874450904236,4,-2,2,2,6,-1,2,16
1528874450904236,-1,-3,-10,-1,6,28,0,-8
1528874450911217,-2,-8,-7,2,0,-1,2,-6
1528874450911217,3,9,21,2,6,9,6,9
1528874450922189,-6,2,-5,-3,-5,-9,-3,-11
1528874450922189,0,-7,-1,2,0,-16,-6,4
1528874450934157,-7,8,8,-4,-3,-2,-8,-25
1528874450934157,2,-3,1,-7,-10,-6,0,14
1528874450941139,8,15,32,9,9,5,3,23
1528874450941139,-4,-9,-27,-5,0,-2,-3,-14
1528874450964077,9,11,4,8,5,5,7,15
1528874450964077,-7,20,19,-3,-7,-10,-10,-27
1528874450974049,-2,-10,-4,-2,-4,1,0,13
1528874450974049,1,-4,-4,5,7,3,7,0
1528874450986017,0,6,8,-3,-7,-8,-5,0
1528874450986017,0,-11,11,3,3,5,9,9
1528874450993999,-3,15,-18,-6,-2,3,-6,-13
1528874450993999,-2,-14,-8,0,-1,-7,-3,-9
1528874451009953,-2,-19,-27,-6,-6,-3,5,19
1528874451009953,12,10,-2,9,8,11,12,40
1528874451026908,-5,0,33,-5,-7,-7,-9,-27
1528874451026908,1,2,-47,8,8,5,-1,3
1528874451031894,8,-1,40,9,1,-2,3,13
1528874451031894,-6,0,1,-4,-5,-2,2,2
1528874451038907,-1,7,-4,-6,-2,1,2,7
1528874451038907,-9,-30,-23,1,0,-6,-3,-13
1528874451045858,-3,-22,-43,4,5,9,6,4
1528874451045858,0,26,68,1,-4,-4,-3,1
1528874451060818,4,2,-31,-5,-1,0,-4,8
1528874451060818,-6,-2,2,-8,-2,-1,-4,-24
1528874451075778,3,12,-14,0,0,0,1,7
1528874451075778,-2,-10,5,2,0,0,2,7
1528874451091736,-3,-32,-33,-10,-5,-4,-4,3
1528874451091736,1,12,-1,-7,0,-1,-6,-13
1528874451098718,-7,-3,12,-14,-13,-8,-9,-7
1528874451098718,-2,-1,-13,-1,2,2,0,-11
1528874451106696,5,2,0,8,4,7,5,15
1528874451106696,-2,1,12,3,-3,-1,-3,-7
1528874451113676,8,-14,-4,1,2,2,8,20
1528874451113676,-1,6,-10,-11,-6,-8,-2,4
1528874451121655,-9,0,2,1,-2,-6,-2,-10
1528874451121655,1,4,21,5,1,0,0,-3
1528874451128636,-2,-11,-45,7,7,4,-6,-10
1528874451128636,-7,-9,7,-9,-11,-12,-9,-10
1528874451143596,0,6,22,4,-4,-9,-3,4
1528874451143596,0,-2,-3,-6,-1,2,5,4
1528874451151575,-6,-23,-37,-2,3,4,0,-1
1528874451151575,12,20,-6,9,6,6,12,11
1528874451158556,-2,-5,14,1,-2,-2,-9,-10
1528874451158556,-8,-12,-18,-6,4,1,-5,-30
1528874451166540,3,29,19,-12,-12,-9,1,30
1528874451166540,-7,-32,-31,-7,-6,-2,-1,-12
1528874451196456,5,9,16,3,1,3,-1,-3
1528874451196456,2,-6,-21,-2,-1,0,4,3
1528874451218396,-3,3,6,-2,-5,-3,0,6
1528874451218396,0,-7,-18,1,4,5,-6,-12
1528874451226376,-10,0,3,-3,-3,0,-8,-21
1528874451226376,4,-16,-31,-10,-5,-6,-5,23
1528874451233356,-13,-2,-11,-3,-1,2,1,-7
1528874451233356,4,-8,-38,-13,-9,-8,-4,-1
1528874451241339,-12,-5,42,26,4,0,2,2
1528874451241339,-5,-12,22,-1,4,4,-1,-16
1528874451248317,5,-4,-10,-5,0,-2,-4,1
1528874451248317,-4,1,-17,-1,-3,-1,-2,-3
1528874451263277,8,-2,-44,-22,-6,-3,-4,4
1528874451263277,-14,20,7,4,3,0,-1,-15
1528874451279234,-4,-40,-70,-2,6,3,1,17
1528874451279234,-4,-10,2,-3,-6,-2,-6,-13
1528874451286215,-1,-23,-30,-5,1,0,2,0
1528874451286215,5,15,16,-1,-8,-11,-15,-17
1528874451301176,5,1,-2,-5,3,5,9,9
1528874451301176,-6,-10,-20,0,3,-1,-6,5
1528874451309154,-1,-7,-21,-10,-8,-14,-18,-8
1528874451309154,0,-18,-13,-6,3,7,10,-2
1528874451324114,-3,18,42,3,1,-5,-8,-9
1528874451324114,-5,10,66,15,-5,-2,4,7
1528874451331095,5,1,-18,-6,-4,-5,-2,-2
1528874451331095,-6,-38,-43,-5,2,2,-2,8
1528874451346056,1,15,12,1,4,11,9,5
1528874451346056,-1,3,21,-7,-11,-9,-6,-2
1528874451361016,-3,-25,-42,-21,-9,-3,-1,-2
1528874451361016,7,25,9,5,3,-3,-6,-7
1528874451368993,-9,-16,-6,-7,-2,1,-1,-6
1528874451368993,5,1,4,15,4,3,10,2
1528874451383955,2,14,13,-18,-15,-9,-11,8
1528874451383955,-1,38,38,1,-4,-7,-6,-29
1528874451390935,-2,14,-17,2,5,3,1,13
1528874451390935,-3,-8,0,2,1,1,6,-9
1528874451405897,-5,-2,4,5,3,5,2,-4
1528874451405897,4,10,0,3,-4,-5,-6,4
1528874451420855,0,-2,-7,7,4,2,2,-2
1528874451420855,-4,-22,-35,-7,-1,-1,-3,9
1528874451428836,14,18,29,0,1,1,6,3
1528874451428836,-2,12,22,5,2,4,-2,1
1528874451443796,-5,-3,8,-1,3,2,-4,-11
1528874451443796,-1,-12,32,7,-4,-3,-1,5
1528874451451773,-9,-2,-18,-8,-9,-7,-6,-13
1528874451451773,0,-5,-30,-14,-3,-2,-1,10
1528874451466733,-1,0,11,10,3,-2,-6,-7
1528874451466733,1,9,4,-6,-4,-4,-2,13
1528874451481694,-3,-14,-10,1,-4,-5,-9,-26
1528874451481694,0,-2,-18,0,-1,-4,-2,8
1528874451488675,1,-7,-14,4,3,4,5,4
1528874451488675,-2,2,77,8,-1,-2,-5,-14
1528874451503635,-4,-17,-3,3,0,2,4,0
1528874451503635,-1,4,-11,1,3,1,3,-4
1528874451511613,2,-2,24,4,2,2,-1,19
1528874451511613,1,9,-18,-1,0,1,5,-8
1528874451526573,-8,-26,0,-4,-8,-5,2,2
1528874451526573,7,2,10,0,-2,-1,1,5
1528874451541533,-3,5,2,-2,0,-2,-1,-7
1528874451541533,-3,0,-16,-16,-8,-2,2,3
1528874451548515,5,15,7,-3,-1,0,-2,-2
1528874451548515,-2,-3,-26,-3,-1,-4,-4,-11
1528874451563485,-5,6,20,3,2,3,7,8
1528874451563485,3,-15,2,-2,0,2,9,19
1528874451571453,-7,-4,-8,-8,-6,-8,-15,-25
1528874451571453,-1,1,4,-2,-2,-2,-5,-12
1528874451586413,3,16,40,10,-4,-2,12,10
1528874451586413,-2,3,-4,-11,1,3,-2,6
1528874451601373,-5,-3,-6,-8,-12,-11,-5,-10
1528874451601373,-2,-7,29,8,3,7,4,5
1528874451608355,-11,-42,-1,-7,-7,-6,-4,-9
1528874451608355,2,10,-4,13,4,0,1,1
1528874451623315,1,13,15,-14,-6,-5,-5,-2
1528874451623315,-4,-5,-38,-14,-9,-3,-3,-4
1528874451631296,1,7,13,16,10,5,-2,-3
1528874451631296,-13,-29,-42,-7,-9,-9,-11,-3
1528874451646256,5,7,5,-11,-1,5,2,6
1528874451646256,0,-12,-24,5,1,-6,-4,-4
1528874451653235,0,7,16,-15,-4,-1,2,3
1528874451653235,8,7,-4,-5,4,8,8,14
1528874451668371,6,9,1,-2,2,8,11,-4
1528874451668371,-5,17,23,-2,-2,-4,-4,5
1528874451683332,0,-33,-7,-1,-5,-4,-5,-7
1528874451683332,1,12,12,9,3,0,-2,4
1528874451691310,5,-11,-29,10,5,1,-1,2
1528874451691310,-19,2,-2,-18,-7,0,0,-6
1528874451706326,0,-17,-27,5,1,2,-3,-1
1528874451706326,-4,-4,13,-4,-4,-5,-5,-6
1528874451714331,-2,1,8,-4,-3,-3,-5,2
1528874451714331,-5,-31,-32,5,2,0,-1,-9
1528874451728296,-10,12,17,21,5,-2,-9,3
1528874451728296,6,-22,-55,-17,-7,-3,6,1
1528874451744382,-7,16,19,-4,-6,-2,3,-11
1528874451744382,2,-22,-27,2,0,0,-2,10
1528874451751372,-3,-8,-12,-6,-3,-2,-3,-6
1528874451751372,8,0,2,1,-5,-6,-5,10
1528874451766333,-14,-61,-41,1,5,5,6,-6
1528874451766333,-9,39,56,8,5,0,-19,-15
1528874451774346,3,12,3,-2,-4,-4,9,-9
1528874451774346,-3,7,29,12,6,2,-9,-9
1528874451788633,-3,-11,-18,-10,-5,-2,4,21
1528874451788633,-1,-3,-5,-6,-5,-7,-2,-5
1528874451804428,4,22,40,6,0,2,3,4
1528874451804428,0,-15,-14,-2,0,1,2,-3
1528874451811532,1,3,0,5,6,1,2,-2
1528874451811532,-2,-4,-12,0,0,1,-5,-6
1528874451826426,2,2,2,-8,-8,-9,-3,2
1528874451826426,-6,1,-1,-8,-7,-9,-2,-1
1528874451833348,-4,-1,-32,-13,-3,1,-2,-6
1528874451833348,2,13,25,17,5,5,3,2
1528874451848832,-1,-4,-3,-6,-4,-3,-7,-12
1528874451848832,5,24,31,-4,-7,-6,5,6
1528874451863987,-1,10,14,8,5,4,-2,2
1528874451863987,1,-7,-23,-7,0,0,1,1
1528874451871874,-1,8,-6,-6,-1,0,-1,-11
1528874451871874,-5,3,39,3,-5,-3,2,12
1528874451885807,7,9,-5,1,3,2,-3,-6
1528874451885807,-4,-6,17,3,-5,-5,-5,-1
1528874451893786,1,-1,-12,-11,-6,-4,-2,2
1528874451893786,-7,-20,-16,-1,1,1,-1,-15
1528874451908746,1,-17,-11,-6,-2,1,2,3
1528874451908746,-2,-1,-4,6,4,1,0,1
1528874451923706,-2,-5,26,-3,-6,-5,-4,4
1528874451923706,0,9,-15,0,1,0,2,-3
1528874451931849,-2,-2,10,-2,-3,-1,2,1
1528874451931849,0,-2,15,5,5,3,1,-3
1528874451946803,-3,-14,-9,7,6,3,-4,1
1528874451946803,0,0,14,1,-2,2,-3,-9
1528874451953822,0,-4,8,4,2,-1,-2,12
1528874451953822,2,-14,-13,-4,1,3,2,5
1528874451968943,-7,-23,-13,0,3,2,-3,9
1528874451968943,6,17,16,5,2,-2,0,5
1528874451983941,-2,0,6,-10,-5,-3,-2,-8
1528874451983941,1,-4,-27,-4,-1,3,3,5
1528874451991059,0,13,6,4,-1,0,1,-8
1528874451991059,-2,0,-9,0,-1,1,-3,-3
1528874452005883,0,5,2,1,-5,-2,2,1
1528874452005883,0,1,13,2,1,-2,-1,-1
1528874452021007,1,4,6,-1,-1,-2,-5,0
1528874452021007,-4,-15,-30,-5,-2,-1,4,0
1528874452036192,1,-1,12,7,3,2,0,0
1528874452036192,7,6,-3,-4,-5,-5,-7,-5
1528874452044170,-8,-2,4,2,1,-3,-2,0
1528874452044170,12,-6,-1,-3,-2,1,0,-1
1528874452059125,-31,3,5,3,-1,-2,-1,-7
1528874452059125,2,-12,-22,-9,-8,-5,1,7
1528874452066109,29,11,-3,2,3,3,-1,-9
1528874452066109,-9,2,-11,3,3,0,2,13
1528874452081913,9,3,13,-3,-6,-6,-4,-9
1528874452081913,-13,-9,-10,0,2,-1,-5,-4
1528874452096875,3,2,-3,-1,-2,-1,0,4
1528874452096875,-5,10,12,0,1,0,-3,-14
1528874452103896,-8,-16,-33,-3,-1,1,0,11
1528874452103896,0,3,3,1,0,-1,-3,-12
1528874452118830,-1,0,-11,-4,-2,-3,-3,11
1528874452118830,3,5,0,-4,-1,0,3,10
1528874452126846,-9,-7,-4,-4,-2,-1,-3,-16
1528874452126846,-1,-2,4,0,-2,-1,0,5
1528874452140780,6,2,0,1,0,0,-2,-5
1528874452140780,1,-3,-11,-6,-3,-2,-1,-3
1528874452156884,8,1,-1,-3,-1,0,-4,-5
1528874452156884,0,0,10,12,3,-1,-5,-3
1528874452164025,-6,-6,-8,-9,-6,-3,-3,1
1528874452164025,0,-1,-9,-3,-5,-1,2,-5
1528874452178998,3,2,5,6,3,1,-1,3
1528874452178998,0,0,1,-15,-6,-2,0,-3
1528874452186135,1,-1,-1,0,-2,-3,-2,-1
1528874452186135,11,1,8,7,4,0,-1,3
1528874452200939,-26,0,0,1,3,-2,-1,-4
1528874452200939,4,-2,8,6,-1,-1,-1,-1
1528874452208921,-5,-2,10,13,3,0,2,-2
1528874452208921,-4,0,-14,-22,-5,-1,0,0
1528874452224221,9,-2,-8,-2,-2,-4,0,1
1528874452224221,-1,-1,1,2,4,3,1,-2
1528874452240016,7,1,-2,-4,-1,-2,-5,-1
1528874452240016,-3,0,3,4,1,2,13,-1
1528874452246998,2,-2,-10,-5,1,1,-1,2
1528874452246998,-5,-2,8,17,1,-1,-9,-2
1528874452261123,-1,-3,-7,-6,-3,-1,8,-1
1528874452261123,-3,0,3,0,-1,-2,-6,-2
1528874452269101,2,-2,-4,-6,0,1,0,-2
1528874452269101,-3,2,15,8,4,-2,-33,-7
1528874452283900,2,-1,-8,-16,-8,-1,48,5
1528874452283900,1,1,9,13,3,1,-11,-2
1528874452298860,-1,-1,3,9,1,-1,9,1
1528874452298860,-2,-2,-9,-14,-3,-4,-23,-5
1528874452306846,-1,2,4,3,-5,-1,34,4
1528874452306846,-1,0,-2,6,5,0,3,-1
1528874452320804,-2,-1,2,-2,-3,-1,-22,-3
1528874452320804,0,0,-2,1,-1,-1,19,1
1528874452328980,-3,-2,-4,-5,1,-3,-28,-7
1528874452328980,1,-1,2,-1,-6,-4,5,2
1528874452343468,0,-1,-4,-11,2,1,-16,-7
1528874452343468,-1,3,4,8,0,-1,-9,1
1528874452359360,0,-1,2,-6,-3,-1,-8,-2
1528874452359360,0,-1,-9,-6,-1,1,4,0
1528874452366255,1,-1,8,0,0,0,1,0
1528874452366255,0,-2,-5,-8,-7,-5,2,1
1528874452381360,-3,-1,-3,1,4,-2,-10,-4
1528874452381360,-2,-5,-3,-2,-2,1,9,-2
1528874452389185,-3,-3,1,-2,0,-2,-6,-5
1528874452389185,2,0,-1,0,-2,1,-2,1
1528874452404299,-1,-2,1,4,-2,-1,-5,-1
1528874452404299,-3,2,6,8,0,-3,-6,-2
1528874452419317,1,1,-1,0,-2,-1,-7,-2
1528874452419317,-1,-2,-1,-1,-2,-1,2,2
1528874452426494,-1,-1,-1,3,-2,-2,3,0
1528874452426494,-2,-1,-2,-6,-3,-12,-5,-1
1528874452441609,-1,0,-2,-1,-4,0,1,0
1528874452441609,-1,-1,-4,-3,2,9,-2,-1
1528874452448589,0,2,11,16,10,5,-4,0
1528874452448589,0,0,-4,-7,2,7,11,2
1528874452463706,-1,0,1,3,-1,-4,-5,-1
1528874452463706,-1,-2,-4,-3,-6,-7,-3,-2
1528874452478640,-1,-1,3,6,0,-3,-3,-1
1528874452478640,-3,-2,-1,-2,-1,2,4,0
1528874452486683,-2,-2,-1,0,1,-1,-4,-2
1528874452486683,-1,0,-1,-3,-2,-1,-3,-1
1528874452501769,1,-1,-3,-4,-3,-2,1,0
1528874452501769,-1,0,-2,-1,0,-2,2,-1
1528874452508594,-3,-4,-5,-1,-2,0,-5,-2
1528874452508594,-1,0,2,-1,-1,2,0,0
1528874452523714,0,-1,-1,3,-2,-1,2,0
1528874452523714,-1,-2,-1,-3,-5,-9,-3,0
1528874452538685,0,-1,-2,0,0,4,1,0
1528874452538685,-1,-1,1,2,-1,-6,-2,1
1528874452546650,-3,-3,-5,-8,-9,-14,-6,-2
1528874452546650,0,-3,-1,-1,-1,-1,0,-1
1528874452561612,-1,-1,-2,0,0,5,-1,-2
1528874452561612,0,-1,-2,-1,1,1,-1,0
1528874452568720,0,0,-1,0,-5,-5,0,1
1528874452568720,-1,0,0,0,-1,-6,-4,-1
1528874452583558,-1,-2,1,0,-1,-6,-3,-1
1528874452583558,-1,-2,-3,-2,2,8,2,0
1528874452598521,0,0,0,1,1,0,-1,-1
1528874452598521,-1,-2,-3,-3,0,3,0,-3
1528874452606542,1,-1,-1,-1,0,1,0,0
1528874452606542,-1,-2,-1,-1,-5,-2,0,-1
1528874452628485,-1,-1,-1,-3,-1,-5,0,-1
1528874452628485,1,0,-1,-2,-1,-3,-1,1
1528874452636464,0,-1,-1,0,0,0,-1,0
1528874452636464,-2,-2,-2,0,-2,-3,0,0
1528874452651371,-3,-1,-3,-2,0,-3,-2,-2
1528874452651371,-1,0,0,-4,-4,-1,-2,-1
1528874452666329,-2,-1,-2,-1,-1,1,-2,0
1528874452666329,-1,-1,-2,-2,-2,-3,-1,-2
1528874452681347,-2,-2,1,1,-1,0,-1,0
1528874452681347,-2,-2,-2,-1,0,-2,0,-1
1528874452688325,-3,-2,-1,-2,1,1,-1,0
1528874452688325,-1,-2,-2,-1,-2,1,-1,-1
1528874452704270,1,0,-1,-1,-2,-3,-1,-1
1528874452704270,-1,0,1,0,0,-2,-1,-1
1528874452719235,-1,-1,0,-1,-1,1,1,-1
1528874452719235,-1,-2,-1,-2,0,-2,-2,-2
1528874452726216,-1,-1,0,-1,-1,0,-1,1
1528874452726216,0,-1,0,-2,0,-2,0,-1
1528874452741183,0,-1,-1,-1,-2,-1,0,-1
1528874452741183,0,-1,-2,0,-1,-1,-1,0
1528874452749108,-1,-1,0,1,-1,-1,0,-2
1528874452749108,-2,-1,-1,-2,-1,0,-1,-1
1528874452764068,-1,0,0,0,0,-1,-1,1
