timestamp,emg1,emg2,emg3,emg4,emg5,emg6,emg7,emg8
1529306373858142,-2,-2,-2,-2,-1,-1,-2,-2
1529306373858142,-4,-5,-3,-3,-2,1,-1,-3
1529306373859119,0,1,-5,0,2,1,2,0
1529306373859119,1,6,4,0,0,0,-1,0
1529306373860117,0,1,1,1,-3,-1,-1,0
1529306373860117,-3,-2,-6,-5,-2,-4,-2,-1
1529306373861114,-3,-8,-5,-7,-5,-1,-2,-1
1529306373861114,3,-1,-7,1,4,1,0,1
1529306373872084,3,6,8,5,3,1,1,2
1529306373872084,3,7,1,-7,-3,0,-1,1
1529306373881062,-4,-8,-2,0,-8,-5,-2,-3
1529306373881062,-2,-2,-6,-6,0,0,-2,-2
1529306373895023,-3,-6,-3,6,17,7,1,-1
1529306373895023,0,-1,3,-6,-22,-10,-2,-1
1529306373903003,3,5,4,-10,-8,-2,-1,0
1529306373903003,-2,-5,0,3,1,-1,-1,-1
1529306373911977,0,3,3,1,-3,0,0,-2
1529306373911977,-1,-2,-8,-1,13,4,1,0
1529306373915967,-4,-1,-1,6,5,-3,-2,-1
1529306373915967,-7,-7,-6,-17,-17,-11,-8,-8
1529306373931924,0,-2,-1,-2,1,3,3,2
1529306373931924,2,-2,-2,10,8,3,2,2
1529306373939910,1,0,-6,-4,-6,-2,1,0
1529306373939910,7,14,12,9,9,5,4,5
1529306373979798,-2,-4,-8,-6,-3,-2,-5,-2
1529306373979798,-4,-7,-4,-4,-3,1,1,-2
1529306373980797,0,-5,-8,-2,6,5,2,0
1529306373980797,-1,4,-5,-2,-3,-6,-5,-5
1529306373981793,-6,-9,-7,-5,-1,-1,-1,-3
1529306373981793,3,-1,3,2,-2,-2,0,1
1529306373983787,-2,-1,0,-4,4,-2,-2,0
1529306373983787,1,-2,2,3,-9,-2,2,2
1529306373991766,2,1,2,6,10,4,2,1
1529306373991766,-6,-5,-11,-19,-12,-6,-4,-6
1529306373998747,0,2,7,12,-1,0,0,2
1529306373998747,1,-1,-8,-8,7,4,-1,-1
1529306374005727,4,11,12,12,-3,-3,0,1
1529306374005727,2,5,10,6,13,5,3,-1
1529306374020689,1,-1,-13,-10,-10,-1,-1,1
1529306374020689,-3,2,8,2,-3,-5,-2,0
1529306374028666,1,-4,-2,-3,0,2,1,1
1529306374028666,-3,-6,-4,-8,-2,-4,-3,-2
1529306374037642,-4,4,0,4,-2,-8,-7,-8
1529306374037642,-8,-29,-21,-15,-5,1,0,0
1529306374051608,8,12,10,12,13,1,4,4
1529306374051608,2,10,14,13,4,2,1,1
1529306374058586,-3,3,3,-3,3,-2,-4,-5
1529306374058586,-9,-19,-9,0,-8,-2,1,-3
1529306374065568,-3,0,-6,-7,-1,-2,-1,0
1529306374065568,6,11,-3,-4,-7,-2,-1,-2
1529306374082522,0,-13,-4,1,-1,-2,2,3
1529306374082522,15,32,14,-5,-9,0,3,6
1529306374089503,-3,0,5,1,6,1,-1,-2
1529306374089503,-2,-5,-4,4,-8,-3,-3,-2
1529306374095488,3,1,3,1,5,-4,-2,-1
1529306374095488,-5,0,11,10,6,3,-2,-3
1529306374111446,2,-1,-9,-10,-10,0,1,0
1529306374111446,-3,4,3,-3,0,-4,-3,-1
1529306374118426,-13,-31,-19,-15,-13,-3,-4,-6
1529306374118426,5,15,16,9,8,-1,-2,-2
1529306374126404,6,9,-5,-7,-13,-2,0,3
1529306374126404,3,-4,2,7,12,6,1,0
1529306374140368,2,17,12,4,-1,1,1,3
1529306374140368,-3,-8,-11,-9,0,-3,-3,-4
1529306374149343,-8,-12,-6,-7,-6,-3,-3,-5
1529306374149343,5,4,-2,1,-4,-5,0,4
1529306374156324,2,4,1,3,5,6,4,2
1529306374156324,-1,-3,1,-4,-6,-4,-5,-2
1529306374171332,1,3,5,6,10,1,0,-2
1529306374171332,-5,-9,-9,1,3,1,-1,-2
1529306374186277,3,3,-2,-6,0,3,1,-1
1529306374186277,-4,-7,-6,4,6,0,0,-3
1529306374187243,0,2,-2,-8,-12,-9,-4,-1
1529306374187243,-1,0,8,10,7,3,1,1
1529306374201205,3,4,-3,-6,-1,4,2,1
1529306374201205,-2,2,1,7,4,-1,-1,1
1529306374209226,0,-5,2,2,4,3,1,-1
1529306374209226,-4,0,-1,-2,-6,1,-1,-2
1529306374216164,0,0,4,-1,-3,-3,-3,0
1529306374216164,1,-4,-7,-5,-5,-1,-1,3
1529306374231125,-3,-4,-3,0,-4,-5,-4,-4
1529306374231125,-4,-4,-2,-4,10,0,-2,-1
1529306374238106,-5,-6,-6,-3,-4,-2,-1,-2
1529306374238106,2,4,1,-6,-3,0,-1,0
1529306374246085,-2,-4,1,8,2,1,0,1
1529306374246085,0,-3,-6,-7,-2,-2,-3,-2
1529306374261072,-2,0,3,12,7,1,0,0
1529306374261072,1,3,4,1,-3,-3,-1,-2
1529306374269024,-1,0,1,-7,-7,2,3,0
1529306374269024,1,-3,-3,-6,-4,0,0,1
1529306374276005,1,2,3,3,0,-2,-3,-1
1529306374276005,0,1,2,0,-4,0,1,-1
1529306374291972,0,-3,-1,2,5,5,0,-1
1529306374291972,0,0,-2,6,5,-2,-1,-1
1529306374297975,2,2,-1,-11,-9,-4,0,0
1529306374297975,-1,-1,3,17,14,5,3,-3
1529306374305926,2,-1,-3,-6,0,-2,-4,-1
1529306374305926,7,4,3,3,4,2,0,0
1529306374320912,-2,-3,-4,-7,-13,-5,-2,-1
1529306374320912,-3,-2,-4,-5,-1,-1,0,0
1529306374328869,-1,1,3,7,9,7,-1,-2
1529306374328869,-5,-3,-4,-6,-11,-3,-1,-2
1529306374343823,2,4,-1,0,2,-2,-1,-1
1529306374343823,-1,-1,1,8,6,2,0,0
1529306374351803,2,1,1,2,3,0,0,-1
1529306374351803,3,2,0,-1,-2,-1,3,6
1529306374358784,-4,-1,0,-4,-3,-1,0,-3
1529306374358784,4,2,-1,-1,3,0,2,1
1529306374365774,-3,-1,-1,-4,-11,-8,-7,-5
1529306374365774,0,-2,-3,4,12,6,4,1
1529306374380724,-6,-11,-5,-1,-8,-6,-1,1
1529306374380724,10,12,2,0,-1,1,0,4
1529306374388703,-2,-4,-3,-2,-4,-1,1,0
1529306374388703,-3,0,-1,-2,-3,-2,-4,-2
1529306374403664,1,2,3,0,4,4,-1,0
1529306374403664,-3,-5,-2,-4,-7,-2,-2,-1
1529306374411643,-4,-3,-3,-4,-9,-4,-4,-3
1529306374411643,-4,1,-1,4,2,0,-1,-2
1529306374418624,0,1,0,0,5,0,-1,-1
1529306374418624,-8,-6,-1,-2,-5,-5,-7,-6
1529306374425605,6,6,0,-5,5,2,2,3
1529306374425605,1,-2,1,4,0,-4,-1,-3
1529306374449541,1,-2,-1,-2,-1,-2,1,1
1529306374449541,5,6,1,4,3,1,2,-2
1529306374450539,-14,-12,-5,1,5,5,0,-2
1529306374450539,25,23,4,-2,-9,-3,2,9
1529306374463504,-1,-1,3,0,-9,-3,-2,-5
1529306374463504,-6,-5,0,2,8,5,1,-1
1529306374471482,-1,-5,-2,-5,-6,1,2,-1
1529306374471482,-15,-13,-6,-4,1,-2,-3,-4
1529306374478463,-3,5,1,6,7,-3,-3,0
1529306374478463,10,1,-4,-8,-17,-6,0,5
1529306374485449,-6,-4,0,4,10,1,0,-3
1529306374485449,-3,-3,-1,-1,-9,-4,-5,-4
1529306374500405,-2,-3,-3,7,11,9,1,0
1529306374500405,-12,-11,-5,-6,-1,-4,-4,-6
1529306374508387,4,0,2,7,15,1,-1,1
1529306374508387,-2,-1,-3,-18,-24,-7,-1,-1
1529306374523344,0,-1,1,7,3,2,0,-2
1529306374523344,0,1,-5,-3,-2,-3,-2,-1
1529306374531325,-1,0,-1,-6,-10,-9,-4,-1
1529306374531325,-8,-5,-4,3,8,5,0,-4
1529306374538303,3,3,5,4,7,5,1,0
1529306374538303,1,-5,-6,-8,-7,-2,1,-1
1529306374546282,-3,-3,-1,-1,-5,-4,-4,-3
1529306374546282,3,4,-1,-9,-6,-3,0,2
1529306374561242,-2,-2,-4,1,2,0,2,0
1529306374561242,-3,-4,-7,5,17,8,2,1
1529306374569221,4,1,2,-2,-6,-8,-3,1
1529306374569221,4,11,10,-1,-9,7,1,0
1529306374583183,0,-5,-6,0,6,-2,1,2
1529306374583183,2,5,5,3,-2,-2,-3,-3
1529306374591163,-6,-10,-8,3,4,2,2,1
1529306374591163,-1,2,6,8,13,3,4,2
1529306374598144,4,4,-1,-8,-8,-1,1,0
1529306374598144,-5,3,2,-1,3,-1,-1,-3
1529306374614101,-2,4,-3,-6,-12,-2,-3,-2
1529306374614101,-9,-21,-8,-5,-3,-5,-2,-2
1529306374621084,7,20,14,2,0,1,4,1
1529306374621084,0,-2,0,-7,-5,-5,-5,-2
1529306374636042,-5,-9,-10,-6,-1,0,5,3
1529306374636042,0,4,4,14,8,1,-4,-2
1529306374643045,6,5,2,2,-2,-3,-4,2
1529306374643045,-4,-8,-4,-2,-3,0,-2,-4
1529306374652000,8,18,9,2,-1,0,-4,-1
1529306374652000,-5,-9,-8,-3,10,-3,-3,-3
1529306374657989,0,-11,-9,-2,-5,6,5,0
1529306374657989,4,14,19,8,7,3,2,3
1529306374674948,-6,-16,-18,-4,0,-4,-4,-2
1529306374674948,-1,2,8,-7,-8,2,-1,-1
1529306374680924,-4,-1,1,18,17,0,-2,-2
1529306374680924,4,7,-1,-13,-16,-3,1,4
1529306374695882,-5,-8,-4,1,4,-2,-3,-6
1529306374695882,-1,-8,-5,-5,0,1,2,-2
1529306374703860,1,5,12,0,-11,-6,-4,0
1529306374703860,-6,-9,-5,0,-2,2,1,0
1529306374712855,-4,1,3,3,5,0,-3,-4
1529306374712855,17,20,2,-7,-14,-3,0,3
1529306374718821,-6,-21,-16,-5,4,4,0,-3
1529306374718821,6,14,7,5,6,-5,-2,1
1529306374734779,1,6,11,1,-11,1,2,-1
1529306374734779,1,-4,-4,2,9,1,1,0
1529306374740787,-2,2,-4,-14,-15,-10,-5,-1
1529306374740787,0,-11,-10,-7,-1,-3,-5,-5
1529306374755964,4,8,3,5,2,5,0,1
1529306374755964,-8,-6,-1,-3,-9,-2,-6,-9
1529306374763715,2,6,2,0,1,-4,-1,9
1529306374763715,-2,-2,1,14,18,9,3,1
1529306374772918,2,5,4,5,1,0,0,0
1529306374772918,-4,-4,-5,-2,-3,-3,-2,1
1529306374778924,-6,-3,-1,-6,-4,1,-4,-5
1529306374778924,8,6,-3,-5,-3,2,3,4
1529306374795633,-1,0,-4,-8,-8,-6,-4,-1
1529306374795633,-2,0,-1,0,-1,-10,-7,-4
1529306374801059,-4,-12,-8,-1,-5,0,0,-2
1529306374801059,-2,0,4,13,20,7,0,0
1529306374809792,0,4,3,1,2,5,1,-2
1529306374809792,3,-7,-7,-8,-7,-4,0,2
1529306374823753,3,9,2,-10,-10,-4,-3,1
1529306374823753,-4,-3,1,3,-2,-1,-1,1
1529306374832972,3,0,-8,-17,-25,-4,-1,1
1529306374832972,-5,0,6,27,33,8,3,0
1529306374838935,0,-2,0,0,1,2,1,-1
1529306374838935,-3,-5,-6,-9,-11,-3,-2,-3
1529306374854742,-2,1,6,19,24,6,1,0
1529306374854742,0,-3,-2,-7,-6,-1,-1,3
1529306374860894,-2,1,1,-2,-3,-1,-2,-1
1529306374860894,-6,-5,-7,-7,-3,-8,-4,-2
1529306374870158,4,-1,1,0,6,1,0,1
1529306374870158,-2,0,2,-3,-7,2,2,0
1529306374883367,-3,-4,-3,0,0,-1,-2,-2
1529306374883367,0,-1,-2,3,4,1,1,-1
1529306374892613,4,6,5,1,-4,-6,-2,2
1529306374892613,-2,-2,-3,-3,2,6,-2,-6
1529306374898624,1,-1,0,-2,-2,-3,1,3
1529306374898624,0,1,2,3,5,1,-1,3
1529306374914587,-3,-2,-4,-2,0,4,2,-1
1529306374914587,-3,5,5,6,6,-6,-4,3
1529306374921707,1,1,-1,-3,2,2,1,-3
1529306374921707,-4,-6,-3,-3,-7,-1,1,-2
1529306374936715,-3,-2,-3,-2,-1,-3,2,1
1529306374936715,-5,-5,-6,-5,-6,-4,-5,-5
1529306374943507,0,0,-1,-4,-15,-7,-6,-5
1529306374943507,-1,0,1,3,12,14,8,1
1529306374952482,-1,-4,-5,-7,3,-3,-1,0
1529306374952482,4,5,3,-1,-12,-1,0,1
1529306374965761,2,-2,1,5,17,3,4,3
1529306374965761,3,4,1,-6,-14,-7,-9,-2
1529306374974738,-4,-3,0,-4,-5,-4,-3,-3
1529306374974738,2,2,-1,-5,-7,-5,0,0
1529306374989698,-2,-2,1,15,14,2,0,0
1529306374989698,-1,1,-2,-3,-1,0,1,-1
1529306374991712,2,4,2,-4,4,5,3,3
1529306374991712,-3,-3,-1,1,-7,-12,-7,2
1529306375003929,-5,-6,0,3,4,8,4,-2
1529306375003929,1,2,0,-3,0,0,-1,1
1529306375012924,0,-1,-3,-8,-20,-14,-7,-8
1529306375012924,-7,-8,-8,-8,0,6,9,9
1529306375026236,6,7,3,-2,2,3,1,-2
1529306375026236,0,-3,-2,8,1,-8,-1,2
1529306375034934,1,-1,-1,1,-9,0,-5,-1
1529306375034934,-1,-3,-2,-3,5,-7,-2,-2
1529306375050176,-6,-10,-12,-18,-21,-9,-3,-3
1529306375050176,1,0,-1,-3,-12,-4,-1,-1
1529306375051801,0,2,3,10,24,12,6,1
1529306375051801,-6,-7,-4,-7,-12,-7,-6,-9
1529306375063768,8,11,4,-11,-9,2,1,6
1529306375063768,1,0,-2,13,19,5,3,1
1529306375072744,2,5,11,10,0,2,2,3
1529306375072744,2,1,4,7,11,4,1,0
1529306375085972,-6,-4,-3,-8,-6,-2,-1,-1
1529306375085972,-7,-9,-4,0,1,-8,-7,-6
1529306375094688,6,6,9,14,6,3,2,3
1529306375094688,4,2,-5,-7,-7,0,-1,2
1529306375109685,1,5,5,8,11,9,1,0
1529306375109685,-6,-9,-7,-12,-8,-7,-6,-4
1529306375111641,-1,-4,-1,12,5,-4,-2,-1
1529306375111641,3,5,3,-5,-1,7,3,-2
1529306375132585,2,-1,-3,4,4,-11,-5,0
1529306375132585,-13,-13,-5,-16,-25,-1,0,-6
1529306375133596,10,8,-3,-3,1,5,4,6
1529306375133596,5,4,3,5,5,2,4,4
1529306375145548,3,3,-3,-3,1,-4,0,2
1529306375145548,0,-1,-1,3,9,6,1,1
1529306375154524,-11,-11,-9,-16,-24,-14,-9,-6
1529306375154524,0,0,4,21,22,8,-1,-4
1529306375169484,6,7,8,1,-6,-4,6,7
1529306375169484,0,0,-1,-7,-2,-7,-2,1
1529306375171479,1,0,1,12,24,15,7,3
1529306375171479,3,7,0,-1,-10,-8,-6,-4
1529306375183458,-8,-5,1,3,7,3,-4,-7
1529306375183458,4,6,3,-7,-12,0,3,1
1529306375192423,5,1,-2,-8,1,5,2,2
1529306375192423,-6,-3,-3,5,0,-2,1,0
1529306375206387,-9,-9,-5,4,-1,-5,-8,-7
1529306375206387,6,2,-1,-4,-4,0,1,1
1529306375215395,-2,-2,-2,-7,-8,-5,-3,-4
1529306375215395,-1,-2,0,-7,-5,2,2,1
1529306375229359,-2,-1,1,-1,-1,-1,-2,0
1529306375229359,-3,-3,-3,1,-2,-6,-3,-2
1529306375231321,-7,-7,-8,-4,3,-3,-3,-3
1529306375231321,3,-2,-2,-2,-1,-1,0,0
1529306375243343,-4,-4,-3,-11,-15,-3,-2,-1
1529306375243343,-2,4,3,5,3,3,1,1
1529306375252264,5,-6,-5,-1,7,-1,0,1
1529306375252264,4,12,13,2,-8,-3,-1,2
1529306375266281,-4,-3,-5,-5,1,2,-1,-2
1529306375266281,3,2,2,9,6,-3,-1,-2
1529306375275204,-7,-5,-8,-12,-12,-1,-1,-1
1529306375275204,2,-2,-3,1,4,-1,-2,-1
1529306375290165,1,0,2,7,9,1,-1,1
1529306375290165,2,3,2,-2,-5,-3,-1,0
1529306375292157,-3,1,-1,-5,-7,-1,0,-1
1529306375292157,-3,-6,-6,-1,6,5,0,-4
1529306375312103,-4,-6,-2,-4,-7,-2,-1,-2
1529306375312103,3,8,7,12,11,4,-1,2
1529306375314098,-4,-6,-4,-7,-8,-4,-2,-3
1529306375314098,-1,1,0,-5,-2,-2,0,0
1529306375326066,-1,-1,-2,3,7,-1,2,0
1529306375326066,-6,-5,-3,-7,-6,-1,-1,-2
1529306375335042,0,0,-2,-1,-5,-4,-1,-2
1529306375335042,-6,-3,-1,7,5,-2,-2,-3
1529306375350002,0,-4,-5,-3,2,-1,-1,-2
1529306375350002,3,4,3,1,-2,2,0,2
1529306375350999,3,9,9,15,17,4,3,2
1529306375350999,-2,-5,-5,-11,-14,-6,-2,-2
1529306375362967,-1,2,2,4,-2,1,-3,-1
1529306375362967,-1,-3,-3,-2,-3,-1,-2,-1
1529306375371943,-1,-1,1,-4,0,-1,0,1
1529306375371943,-2,-2,3,5,11,5,2,0
1529306375385906,-2,-1,-4,-1,-4,-3,-1,-2
1529306375385906,2,2,3,2,-2,-2,-1,1
1529306375394882,-2,-3,-3,-5,-5,-3,-3,-2
1529306375394882,-2,-4,-3,-1,1,-1,-1,0
1529306375409893,1,2,0,3,8,0,0,-1
1529306375409893,-2,-5,-1,-3,-13,-2,0,0
1529306375411838,3,3,3,2,2,0,1,0
1529306375411838,1,-1,-1,0,-1,-1,-2,0
1529306375423834,1,1,0,-2,-3,0,-1,0
1529306375423834,-3,-3,-3,-1,4,1,-1,-3
1529306375433042,-2,-1,0,-1,2,-1,-1,-2
1529306375433042,0,2,-1,-2,-3,-2,2,3
1529306375446006,1,-1,-1,2,1,2,0,-1
1529306375446006,0,-1,-2,-3,2,-1,-1,0
1529306375455025,0,0,1,-2,-5,-1,-1,-2
1529306375455025,-2,-3,-1,-4,1,1,-1,0
1529306375470238,0,-1,1,0,-1,-2,-2,-1
1529306375470238,-4,-3,-2,0,3,0,-2,0
1529306375471273,-3,-5,-6,-6,-4,-1,-2,0
1529306375471273,1,1,-1,2,-1,-1,-1,0
1529306375483685,-2,-1,1,-1,-4,-2,-2,0
1529306375483685,-1,0,-1,-2,-1,-1,-1,-2
1529306375492664,0,-2,-2,0,2,-1,-1,-1
1529306375492664,0,-1,0,4,0,1,0,-1
1529306375506819,1,2,1,0,-1,-2,-2,-1
1529306375506819,2,-1,-4,-2,-2,-3,-1,0
1529306375514994,-2,1,2,4,1,-1,-2,-2
1529306375514994,-3,-3,-3,-5,-2,-1,1,-3
1529306375529830,1,3,7,1,-1,1,2,1
1529306375529830,-2,-2,0,-3,-2,-3,0,-1
1529306375536629,-3,-3,-2,6,4,0,-1,-1
1529306375536629,-1,-4,-1,-1,0,0,-1,1
1529306375544123,-1,1,-2,-3,-1,-1,1,0
1529306375544123,0,0,-2,-1,0,0,0,0
1529306375552844,-2,-4,1,-1,-3,-1,-1,0
1529306375552844,1,-3,-6,-1,0,0,1,-1
1529306375566216,2,4,1,5,4,1,-1,0
1529306375566216,0,0,-1,1,2,-2,-1,-1
1529306375575241,-2,-1,0,-5,-5,-2,-2,0
1529306375575241,-4,-5,-5,-8,-8,-2,-2,-1
1529306375589166,0,-1,1,5,4,2,0,1
1529306375589166,1,2,0,2,1,2,-1,-2
1529306375595959,-3,-4,-5,-2,-2,-3,-3,-3
1529306375595959,-1,-2,4,3,2,1,-1,-1
1529306375603951,4,9,6,-1,-3,-1,2,2
1529306375603951,-2,-3,-2,-3,-1,0,-1,-1
1529306375612663,-3,1,-1,-3,-3,1,-1,-2
1529306375612663,-3,-6,-7,-4,-6,-5,-3,-2
1529306375626623,3,8,8,3,1,1,0,1
1529306375626623,-2,-4,-3,-3,-1,2,0,-1
1529306375634874,3,4,3,4,3,1,1,3
1529306375634874,1,2,-4,-3,-1,-1,0,0
1529306375649798,-3,-9,-3,-3,-3,-1,-2,-2
1529306375649798,1,6,5,1,0,-1,0,0
1529306375656369,-1,-1,-2,-3,-2,-2,0,-2
1529306375656369,0,0,0,0,2,-1,-2,-3
1529306375663337,-2,-5,-5,-3,-2,-2,-1,-2
1529306375663337,1,-1,-1,-3,-3,1,-1,-1
1529306375672317,-1,-9,-3,1,0,1,0,1
1529306375672317,7,13,15,7,2,0,1,2
1529306375686495,-2,-5,-5,-6,-4,-1,-3,-1
1529306375686495,-5,-4,-5,-1,-1,-1,-1,-4
1529306375695216,0,3,1,1,0,1,2,1
1529306375695216,0,1,2,0,1,-1,-1,-1
1529306375709632,-2,-4,-4,-2,-1,0,-1,-2
1529306375709632,0,-2,-1,0,-3,-3,1,1
1529306375716416,-2,0,-2,-2,-3,-1,-2,-3
1529306375716416,-4,-3,-2,-1,-2,-3,-1,-2
1529306375732407,1,-2,-4,1,2,-1,0,2
1529306375732407,2,2,1,2,1,0,1,1
1529306375733407,4,1,-1,0,0,1,2,2
1529306375733407,2,-1,0,-1,-1,0,1,2
1529306375746379,-3,-3,-4,-3,-3,-4,-2,-3
1529306375746379,-3,-4,-4,-2,-1,-1,-1,-1
1529306375754971,0,-1,1,0,-1,-3,-1,0
1529306375754971,-2,2,-2,-4,0,0,-5,-3
1529306375769194,-3,-6,-5,-4,-3,-3,2,-2
1529306375769194,4,3,6,6,5,6,5,4
1529306375776175,1,-1,-3,0,-2,-3,0,0
1529306375776175,0,2,-2,-1,-1,-1,0,0
1529306375792171,-3,-1,-1,-4,-3,-2,-1,-1
1529306375792171,-1,0,-3,-3,-2,-1,-2,-1
1529306375794179,0,-2,-1,1,0,0,1,-1
1529306375794179,-3,-1,0,0,0,-2,1,-2
1529306375806576,0,-1,-1,-1,0,-2,-1,-1
1529306375806576,-1,0,2,-3,-1,0,0,0
1529306375815399,1,1,1,-1,-1,-2,-3,0
1529306375815399,-1,-2,-1,0,0,0,-1,-2
1529306375829364,0,0,2,-2,1,3,1,0
1529306375829364,-2,-2,-4,-2,-3,-4,-4,-2
1529306375836345,-2,1,2,0,0,-3,-1,-2
1529306375836345,2,0,-1,0,-2,3,3,1
1529306375852680,-1,0,0,1,2,0,1,0
1529306375852680,-1,0,-1,-1,0,-2,-1,-1
1529306375853967,1,1,-1,-2,1,2,0,0
1529306375853967,-1,-3,-1,1,-1,-3,-3,-2
1529306375866273,1,0,1,-3,-1,1,0,-2
1529306375866273,-1,-2,-1,-1,0,1,1,0
1529306375874913,1,0,1,1,-2,0,-2,-1
1529306375874913,0,-1,-2,-2,-1,0,0,0
1529306375890014,-1,-1,-2,0,-2,-1,-2,-1
1529306375890014,-2,-2,-1,0,-2,-2,-3,-1
1529306375896285,0,0,0,-2,1,-1,0,-2
1529306375896285,-1,-2,0,1,2,2,0,0
1529306375913123,0,-1,-3,1,0,-5,0,1
1529306375913123,-1,-4,-2,-2,-3,-3,-2,-4
1529306375913822,-2,1,-2,1,-1,0,1,0
1529306375913822,-2,-1,-2,0,-1,1,1,-2
1529306375926040,1,-1,0,0,-1,1,1,0
1529306375926040,1,-1,-1,-1,1,0,-1,0
1529306375934767,1,-1,-2,-2,-1,0,0,1
1529306375934767,-3,-1,-1,0,-1,-1,-1,-1
1529306375948729,-1,-2,-1,1,0,2,0,0
1529306375948729,-1,-1,-2,-1,0,-2,0,-1
1529306375956732,-3,-2,1,0,-1,0,1,1
1529306375956732,-1,-2,-3,-2,2,1,0,1
1529306375973002,-2,-1,0,0,0,-1,-1,-2
1529306375973002,1,-1,0,0,-1,1,-2,0
1529306375973663,-1,0,0,-1,0,-1,-1,-2
1529306375973663,-1,0,0,-2,0,-2,0,1
1529306375986321,-2,0,-1,-2,-2,0,-2,0
1529306375986321,-1,-1,-2,-1,0,0,-1,1
1529306375995362,-1,0,-2,-1,-1,-2,-2,-2
1529306375995362,2,-1,-1,0,-1,-2,-1,0
1529306376009742,-2,-2,-2,-2,0,-1,-1,0
1529306376009742,0,1,-1,1,1,1,2,2
1529306376016295,0,-2,0,-1,0,-1,0,1
1529306376016295,-1,-1,-2,-2,-2,-1,0,-1
1529306376032244,1,-2,0,0,-1,0,-2,-1
1529306376032244,-1,1,-1,-1,-1,-1,0,-1
1529306376034238,-2,0,-1,-1,0,-1,0,-1
1529306376034238,-2,0,-1,-2,-1,-1,0,-1
1529306376046205,0,1,-3,-2,-1,-1,0,1
1529306376046205,-2,0,0,1,-2,-1,-2,-1
1529306376055182,-1,-3,-3,-1,0,-1,-2,-1
1529306376055182,-3,-2,-1,0,0,0,-2,0
1529306376069877,0,-1,0,-1,0,1,1,1
1529306376069877,0,-1,-1,-1,0,-1,1,1
1529306376076790,0,-1,-1,-1,-1,-1,0,-1
1529306376076790,-2,-1,0,0,-2,-1,-2,-1
1529306376092923,0,1,0,1,-1,-1,-2,-1
1529306376092923,-1,-2,0,-1,-1,1,0,-1
1529306376093486,0,0,-2,-1,1,-1,-1,0
1529306376093486,1,0,0,0,0,-1,0,1
1529306376106660,-1,-2,2,0,0,2,-2,0
1529306376106660,-1,-1,0,-1,0,-1,-1,-2
1529306376115002,-3,-3,0,0,-1,-2,-1,0
1529306376115002,0,-1,2,1,0,-1,-1,-1
1529306376129659,0,-1,0,1,-1,0,2,0
1529306376129659,1,0,-1,-1,-1,0,-1,0
1529306376135973,0,-1,0,-1,-1,1,0,0
1529306376135973,-1,0,-2,0,-1,0,-1,-2
1529306376152755,-2,-1,1,0,0,-2,-2,-1
1529306376152755,-2,-1,-1,-1,-2,-1,-1,0
1529306376153413,-1,0,0,1,1,-1,1,-1
1529306376153413,1,-1,0,-1,1,0,-1,0
1529306376166518,0,-1,0,-1,0,-1,0,-1
1529306376166518,1,-2,-2,-1,0,-1,-1,-1
1529306376175366,0,1,0,-1,-1,0,1,0
1529306376175366,0,1,-1,-1,0,0,-1,-2
1529306376189556,-2,-2,-1,-1,0,0,-1,-1
1529306376189556,-1,0,1,0,0,0,0,0
1529306376195838,-1,0,0,-1,-2,0,-2,-2
1529306376195838,0,-3,0,-1,-2,-1,0,0
1529306376212541,-1,1,-1,0,-1,0,1,0
1529306376212541,1,0,-1,1,0,0,0,-1
1529306376213538,0,-1,-2,0,-2,0,0,-1
1529306376213538,0,0,-2,-1,0,-1,0,0
1529306376225507,-1,-1,-1,0,-1,-2,-3,-3
1529306376225507,-1,0,0,-2,1,-1,-1,-1
