timestamp,emg1,emg2,emg3,emg4,emg5,emg6,emg7,emg8
1528270816164385,-5,0,10,-1,-12,0,0,-12
1528270816164385,-7,-21,-30,-23,-19,-4,-9,-32
1528270816164385,-11,2,3,0,9,-2,2,5
1528270816164385,0,18,3,26,-3,-4,-3,-2
1528270816167378,10,-17,-7,-44,0,-1,29,30
1528270816167378,-14,-3,3,2,-9,6,-23,0
1528270816168376,-19,-12,-4,4,8,2,-7,-50
1528270816168376,-16,11,6,-9,4,-2,-7,-11
1528270816182339,30,40,-2,15,-2,-8,-4,6
1528270816182339,20,-17,11,0,10,-2,25,48
1528270816185330,0,14,-17,-15,-25,-11,-13,-19
1528270816185330,-7,-47,0,-6,-14,2,-7,-6
1528270816197299,-17,4,-2,14,5,4,-9,-17
1528270816197299,1,-31,-7,-22,-37,-14,8,5
1528270816206274,-1,-1,7,20,23,8,1,8
1528270816206274,32,24,0,-11,0,-7,3,11
1528270816211269,-4,-5,1,16,20,12,3,6
1528270816211269,-16,-3,4,24,-5,1,1,-6
1528270816235199,1,-7,-2,-24,20,6,-6,3
1528270816235199,21,9,-3,-12,-18,-9,0,1
1528270816236195,-3,-5,-4,-6,-10,-6,-5,-1
1528270816236195,5,22,11,7,9,1,0,-4
1528270816250158,-7,-3,1,24,0,-9,-6,-6
1528270816250158,-20,13,-7,-31,-4,5,-6,-7
1528270816251198,-22,-36,0,3,-41,-15,-10,-12
1528270816251198,24,18,4,7,30,11,6,8
1528270816273096,10,-15,-7,-19,19,8,-3,9
1528270816273096,-1,-6,3,21,4,-2,-1,-2
1528270816312989,-1,7,0,9,-1,-3,-3,-3
1528270816312989,6,-11,-2,-1,15,3,3,4
1528270816313987,-4,-8,-1,-3,-10,-3,3,-2
1528270816313987,7,11,2,4,-8,0,-1,3
1528270816316980,4,8,-1,-9,-2,-9,-5,-1
1528270816316980,-9,8,2,7,-4,10,10,0
1528270816316980,11,4,-2,3,-3,-1,2,8
1528270816316980,-16,-7,-5,-1,16,2,-6,-19
1528270816323960,9,-4,-1,1,-11,-6,-1,2
1528270816323960,-24,-14,-4,2,14,-1,-8,-11
1528270816330941,6,-11,-1,7,-7,-7,-3,1
1528270816330941,3,12,0,-13,-3,8,4,5
1528270816338933,-1,-23,-4,-9,-4,-4,2,6
1528270816338933,3,11,0,-6,-7,-6,-4,-3
1528270816353880,-20,-2,-1,-2,6,4,2,-7
1528270816353880,8,-6,3,8,2,0,-3,-1
1528270816360900,-3,15,3,2,-16,-4,1,-3
1528270816360900,2,-12,-4,-10,-7,-1,0,6
1528270816384836,-4,-1,-2,6,2,-3,-3,-4
1528270816384836,-4,4,3,0,20,4,7,6
1528270816385810,5,2,-2,-13,-3,2,-9,-1
1528270816385810,0,-3,2,5,-8,-5,-4,-11
1528270816398759,0,1,1,-3,4,-1,-4,-3
1528270816398759,2,2,2,3,-4,-6,-1,0
1528270816399762,-15,-29,-4,0,-11,-1,-5,-8
1528270816399762,7,12,-2,1,8,-7,-2,5
1528270816421700,-3,-13,1,-1,3,-2,-1,3
1528270816421700,-6,-7,0,3,-4,5,4,1
1528270816422697,0,4,4,-7,-1,2,0,-3
1528270816422697,10,10,2,0,5,-2,-4,-3
1528270816445636,-9,-4,-1,3,0,-2,-2,-6
1528270816445636,1,-5,1,-5,-4,0,-2,2
1528270816445636,1,4,3,2,5,1,-1,-2
1528270816445636,0,-2,1,-2,-18,-1,-1,0
1528270816459606,0,7,-2,-12,-2,0,-2,-1
1528270816459606,2,-8,-2,-6,-7,-7,-7,-2
1528270816459606,-8,-1,-7,10,11,-1,0,-3
1528270816459606,-5,12,-4,-7,-6,-1,-2,1
1528270816481840,12,-4,-3,-2,1,2,1,5
1528270816481840,-5,-9,-10,2,-16,-4,-6,-7
1528270816482888,-2,-3,-8,-4,13,4,4,4
1528270816482888,-1,1,-4,4,-1,-4,-2,-4
1528270816504832,-5,-5,-5,-3,-3,6,0,-2
1528270816504832,10,9,-2,0,2,-2,2,0
1528270816505776,-10,-11,-1,9,1,-7,-6,1
1528270816505776,-2,-2,-4,9,15,6,3,1
1528270816518794,0,4,-5,-18,-24,-4,-1,-4
1528270816518794,-1,-1,-3,0,11,-2,-1,0
1528270816519737,-2,1,-3,0,16,5,4,0
1528270816519737,10,7,-2,-4,0,-1,0,4
1528270816541680,-7,-28,-3,2,1,-8,-5,-3
1528270816541680,-8,-8,-6,-1,-6,-11,-3,-2
1528270816542677,-1,6,-2,-11,-3,8,8,-1
1528270816542677,-2,0,-2,3,0,0,-4,-2
1528270816564618,4,26,1,-10,-12,-2,-1,0
1528270816564618,-6,-3,-6,5,8,-4,-3,-2
1528270816565614,-1,4,-2,6,6,1,0,-3
1528270816565614,2,1,0,-3,-4,-1,2,3
1528270816579600,-10,6,-1,0,-7,-6,-3,-3
1528270816579600,18,-3,1,2,0,3,1,5
1528270816579600,-1,-8,1,-2,1,-3,-5,-2
1528270816579600,-5,-11,-3,-5,-11,-4,1,-3
1528270816601558,0,-8,-1,11,13,9,3,-1
1528270816601558,-5,2,-2,-11,-6,-2,-2,-3
1528270816602517,4,17,0,2,0,-3,-3,1
1528270816602517,-2,-1,3,-4,-4,-7,-1,0
1528270816624458,1,2,0,-5,-2,-5,-2,-2
1528270816624458,-6,-2,0,3,7,-2,1,-3
1528270816625455,1,1,1,5,3,2,1,-1
1528270816625455,-3,-12,0,-3,0,0,-3,-1
1528270816639417,1,12,0,1,-8,-1,2,2
1528270816639417,1,-5,-2,-7,-2,1,-1,0
1528270816640416,5,6,0,-7,-20,-6,-2,-2
1528270816640416,-2,-3,-1,13,19,1,2,-3
1528270816662382,4,2,0,-1,9,4,2,1
1528270816662382,-7,-8,0,0,-12,-6,-2,-3
1528270816669363,5,-7,-4,-5,-2,-3,-3,-2
1528270816669363,-2,-12,-1,-5,-6,-1,0,0
1528270816685296,0,-1,1,2,5,2,0,0
1528270816685296,-5,-2,-1,0,4,1,1,0
1528270816685296,-1,-8,-1,0,-6,-1,0,-1
1528270816685296,3,1,-1,-7,-11,-3,-5,0
1528270816707255,-2,-4,0,5,9,-1,-3,-1
1528270816707255,0,0,-2,-4,-1,0,0,0
1528270816708233,-2,-5,0,1,-4,0,0,0
1528270816708233,-1,-1,-2,-3,-4,-1,-3,-2
1528270816722201,-4,-5,0,-4,1,-6,-3,-3
1528270816722201,0,6,2,-3,-14,4,0,-1
1528270816722201,-3,-2,-1,4,7,4,2,0
1528270816722201,-3,-1,-4,-3,-3,-5,-3,-1
1528270816745134,5,3,4,2,3,-3,-2,-1
1528270816745134,-2,1,4,-2,-1,-3,0,-2
1528270816745134,-3,-2,2,-1,-2,2,0,0
1528270816745134,-4,-5,-1,-1,-1,0,0,-2
1528270816759128,3,0,-3,0,1,1,0,-1
1528270816759128,-6,2,4,0,2,0,0,0
1528270816760094,1,1,0,-1,1,-2,0,-2
1528270816760094,-1,-1,0,-1,-1,-1,0,-2
1528270816782277,0,-2,-2,0,0,-2,-1,-1
1528270816782277,1,-1,-2,-2,-3,1,-1,-3
1528270816783258,0,1,1,-4,-5,-4,-2,0
1528270816783258,-2,2,-2,0,4,2,2,0
1528270816805239,11,-2,-2,-3,0,-3,-4,-2
1528270816805239,-26,0,3,2,3,2,0,-1
1528270816805972,-6,-4,4,-1,-3,-3,-2,-2
1528270816805972,2,-4,-9,-6,-4,-2,-1,-1
1528270816819105,-8,-16,-8,-5,-3,-1,-1,-3
1528270816819105,11,-1,2,-3,-5,-7,-4,1
1528270816826962,0,-2,1,2,6,0,3,0
1528270816826962,-2,-4,-2,0,0,0,-3,-2
1528270816841913,5,17,20,1,-1,1,0,-1
1528270816841913,-4,-22,-27,-3,-3,-1,-3,-3
1528270816842911,0,11,6,-2,-6,-3,-1,-3
1528270816842911,1,-3,8,2,0,1,-1,-1
1528270816864816,-4,12,-30,2,-1,2,2,0
1528270816864816,-1,-9,-4,-4,-2,-4,-2,-5
1528270816865813,0,4,17,2,4,3,2,-1
1528270816865813,-1,6,2,-2,-5,-1,-1,1
1528270816878777,1,5,1,-2,-2,-2,1,1
1528270816878777,2,-4,-10,2,0,1,-4,-1
1528270816886755,3,-3,-13,-4,-5,-6,1,0
1528270816886755,1,-2,11,4,-1,-2,1,-1
1528270816909740,-7,-7,-2,-1,-1,-2,-2,-1
1528270816909740,3,-3,-4,-3,-1,0,0,1
1528270816910691,-2,-17,-2,-1,1,-1,-1,1
1528270816910691,1,0,-3,-2,-9,-1,3,4
1528270816924655,-2,-2,-10,4,9,2,2,6
1528270816924655,1,13,12,-3,-5,-2,-1,-6
1528270816925653,-14,-13,21,9,8,-1,0,-8
1528270816925653,4,7,-32,-13,-9,-1,-12,-8
1528270816938907,0,-7,-16,-8,5,1,-1,6
1528270816938907,1,13,30,4,-1,-4,0,7
1528270816946957,-4,2,3,-2,-4,-2,0,-6
1528270816946957,5,2,-4,0,-1,0,3,3
1528270816961557,-2,11,2,4,-2,-5,-4,-4
1528270816961557,3,-13,-14,1,-1,2,2,2
1528270816962553,0,-8,11,0,2,3,0,4
1528270816962553,-8,-6,-39,-3,-2,-4,-3,-9
1528270816985492,8,27,26,4,6,1,-3,-2
1528270816985492,2,8,15,-3,-1,2,1,0
1528270816986489,-5,-2,-18,6,-11,-3,-4,0
1528270816986489,-6,-29,11,-6,11,3,1,4
1528270816998702,11,21,-9,0,-7,-4,0,4
1528270816998702,-6,-12,-46,-13,-14,-4,-3,-12
1528270817006439,1,28,-31,-5,0,-5,-7,-10
1528270817006439,2,-23,-19,7,-5,2,0,-1
1528270817021431,-12,21,81,-1,8,1,0,-5
1528270817021431,5,-24,-46,-4,-1,-5,-1,5
1528270817022394,-2,-6,-33,-7,-6,-3,-1,3
1528270817022394,-1,14,52,10,-4,-4,-5,-4
1528270817045346,-5,-29,-25,-3,5,2,-2,-12
1528270817045346,2,6,8,2,-6,-1,-1,0
1528270817046329,-4,4,20,-3,-4,1,1,5
1528270817046329,-8,-14,-25,2,10,0,0,-1
1528270817075256,2,21,53,5,-16,-4,-3,-2
1528270817075256,-1,-22,-48,-15,0,0,1,-3
1528270817076249,-4,-8,-8,4,2,1,-2,0
1528270817076249,6,39,4,-3,0,-2,0,4
1528270817081239,-11,-25,-60,-11,-9,-4,-7,-11
1528270817081239,1,20,80,19,7,0,3,1
1528270817090213,12,35,-25,-4,8,5,1,4
1528270817090213,-6,-38,-20,-9,-3,1,-2,-1
1528270817105470,1,-12,18,2,-4,-3,0,3
1528270817105470,-6,-21,-16,0,15,1,-2,0
1528270817106170,3,-35,-13,-5,-7,2,1,1
1528270817106170,-12,34,65,1,-5,-4,-1,-5
1528270817119206,16,8,-35,-6,-5,-1,1,5
1528270817119206,3,-7,29,4,7,-1,4,8
1528270817127114,0,15,48,2,-4,-1,-3,-11
1528270817127114,-1,-22,-73,-3,1,-1,-3,-1
1528270817142178,2,-23,2,16,2,5,3,3
1528270817142178,-26,19,35,-20,-15,-8,-11,-16
1528270817150052,-2,14,14,-1,4,3,1,0
1528270817150052,13,29,-10,1,-3,1,0,5
1528270817166012,7,11,42,11,9,1,1,4
1528270817166012,7,1,-74,2,4,1,2,6
1528270817167007,-3,-12,33,-7,-8,-2,-2,-1
1528270817167007,-10,-9,-26,-5,3,-3,-1,-6
1528270817186954,-7,8,44,-10,-9,-5,-2,-3
1528270817186954,13,4,12,5,6,6,2,5
1528270817188947,-8,7,46,8,-5,-4,-3,-4
1528270817188947,-1,-15,-57,-4,5,3,2,2
1528270817200949,-24,-46,-78,8,-3,-3,-5,-8
1528270817200949,5,36,46,26,1,-1,-3,-2
1528270817209904,1,-39,-97,-53,-16,-3,-1,0
1528270817209904,18,21,49,6,2,1,2,4
1528270817224906,-19,-8,15,7,6,-3,-2,-6
1528270817224906,-5,-16,-31,-33,-5,0,0,-2
1528270817226846,4,-3,-69,8,11,1,1,5
1528270817226846,-6,-1,2,-1,-3,-4,-3,-4
1528270817247791,7,13,-55,-15,-11,-1,-3,-1
1528270817247791,16,17,50,28,10,2,1,3
1528270817248789,3,-65,2,5,2,-4,-2,2
1528270817248789,-1,-17,50,-11,-8,-1,-2,-2
1528270817261807,-8,-14,42,8,-2,-1,0,-3
1528270817261807,-6,-13,-9,-2,-2,-2,0,-1
1528270817268736,13,24,10,-2,0,-3,-2,0
1528270817268736,-22,-20,-12,18,8,-3,-2,-3
1528270817283746,6,-16,39,-22,-23,0,3,3
1528270817283746,-9,-24,-60,-15,-4,-5,-2,-5
1528270817292677,-1,9,10,2,3,1,-2,-2
1528270817292677,3,-9,-2,7,-6,-1,-1,0
1528270817307632,0,18,-6,2,12,4,0,-1
1528270817307632,-5,-1,12,-4,4,-5,-3,-2
1528270817308630,-8,33,47,2,-10,-6,-5,-4
1528270817308630,6,-1,-4,-4,4,3,1,2
1528270817331622,-2,-15,-28,-15,-6,0,-2,-1
1528270817331622,-8,-15,-22,3,-2,1,-1,-4
1528270817332613,-16,-15,-36,8,6,-1,-3,-6
1528270817332613,20,38,18,-7,-11,-3,-3,3
1528270817343589,1,-7,36,-8,-2,-3,-1,0
1528270817343589,3,22,-1,1,-1,1,-2,0
1528270817352510,-1,-8,-43,-2,-3,-3,-3,-1
1528270817352510,-13,-15,-2,-3,7,2,-1,-2
1528270817367526,-17,0,-36,4,8,5,2,-4
1528270817367526,14,19,34,0,-1,1,-1,3
1528270817369466,7,0,36,7,-2,-2,3,3
1528270817369466,-2,2,15,-4,-7,-4,-2,-2
1528270817389471,7,1,-35,0,4,0,1,1
1528270817389471,-17,-4,-17,-10,-7,0,-2,-6
1528270817391414,-4,-14,22,0,-4,-1,-2,-1
1528270817391414,-2,-5,-17,3,9,0,1,1
1528270817403430,-1,-3,-12,-4,-1,-5,-1,0
1528270817403430,7,8,4,3,-8,0,0,1
1528270817420385,-4,-9,-3,0,1,0,0,0
1528270817420385,0,30,-10,-7,-6,-4,-2,-4
1528270817427366,7,-2,-8,6,4,-1,-1,1
1528270817427366,-7,-17,0,-14,-11,-1,-1,-4
1528270817429305,8,44,59,7,7,3,0,1
1528270817429305,-11,-5,2,-1,-9,0,-2,-4
1528270817450297,1,-8,-27,-2,2,0,-1,0
1528270817450297,3,22,27,10,3,-3,-1,-2
1528270817451262,-4,-17,-26,-2,0,-2,0,-1
1528270817451262,-3,11,47,4,-4,-2,0,0
1528270817463431,5,12,6,2,2,2,1,-1
1528270817463431,0,-6,-13,-8,-11,-3,-1,2
1528270817472389,-2,5,5,5,5,0,0,-2
1528270817472389,-3,-13,-6,-1,0,-1,-3,-1
1528270817486269,1,4,-15,0,-5,-5,-4,-2
1528270817486269,-3,-4,25,5,11,1,-2,-1
1528270817495231,0,-8,-25,-4,-5,-3,0,-2
1528270817495231,0,1,6,-9,-1,-1,-1,-1
1528270817510190,0,8,14,-5,-6,-1,-1,-2
1528270817510190,-17,-31,-27,10,6,-3,-2,-3
1528270817511190,-1,5,14,-4,-2,0,-1,2
1528270817511190,3,-5,14,2,0,1,-1,2
1528270817532488,-3,-6,1,-4,-5,-1,-1,-1
1528270817532488,1,8,-8,-5,-4,0,-1,2
1528270817534127,3,9,4,4,2,-3,-1,-2
1528270817534127,-3,-23,13,5,3,-2,0,-1
1528270817547092,3,23,-24,-7,-3,-3,-3,-2
1528270817547092,-4,-22,-28,-1,-3,-4,-1,0
1528270817553376,-6,5,9,0,2,7,1,-1
1528270817553376,1,-2,-12,0,1,-3,-2,-2
1528270817570350,4,7,80,10,-7,-1,-2,1
1528270817570350,3,16,-6,-1,4,-2,-1,-3
1528270817572367,-4,-9,-19,-5,2,5,1,2
1528270817572367,6,-2,-18,-1,-4,-1,-2,1
1528270817583297,-7,-13,-1,2,5,-3,-1,-2
1528270817583297,2,17,23,-3,-13,-1,-1,0
1528270817592546,-4,-18,-15,-3,-3,-4,-2,-2
1528270817592546,1,10,-2,-1,1,3,0,-2
1528270817606573,-4,-1,-18,1,1,-6,-1,-1
1528270817606573,0,-11,-12,-10,-9,2,-1,0
1528270817621775,3,15,-22,0,-1,-4,-2,-2
1528270817621775,-6,-4,7,-3,-3,-2,0,-2
1528270817629488,-4,-16,-5,3,3,-2,0,1
1528270817629488,1,7,-8,3,3,0,1,-1
1528270817631350,0,-5,-2,-3,-4,-1,-2,0
1528270817631350,-1,-3,-1,-1,1,1,0,-2
1528270817644376,0,2,-24,0,-1,0,0,-2
1528270817644376,0,-1,15,6,5,-2,1,0
1528270817652530,-1,-10,9,-5,0,-1,-2,-1
1528270817652530,3,12,-10,1,-2,-1,-1,3
1528270817667501,-1,-5,-21,-6,-2,2,-1,0
1528270817667501,-1,-4,-5,-2,-1,-2,-2,-1
1528270817673578,1,3,-9,1,0,-2,-2,-2
1528270817673578,-1,3,-7,0,0,-2,-2,-1
1528270817690196,-2,-3,-6,-4,-1,-1,0,0
1528270817690196,-2,0,14,2,-3,-2,-1,-2
1528270817691193,0,2,-1,1,-3,0,-2,1
1528270817691193,-3,-20,-16,-6,-1,-2,-1,-1
1528270817704280,0,-2,8,-3,-3,-1,-1,-1
1528270817704280,0,-8,7,1,1,0,-1,-2
1528270817712137,-2,2,14,1,-2,-2,-1,0
1528270817712137,-4,-4,4,-2,0,-2,-1,-2
1528270817727337,0,4,-8,-1,-2,-2,0,-2
1528270817727337,0,1,7,-1,1,-1,-1,-1
1528270817733492,0,0,-1,-2,-3,-1,-1,-2
1528270817733492,-2,-8,-7,-1,-1,0,1,0
1528270817750692,-2,-2,5,-1,0,-2,-2,-2
1528270817750692,5,2,-2,-2,-1,0,-3,0
1528270817751330,3,-10,-4,-1,-4,-2,0,-5
1528270817751330,-4,6,7,-1,-3,1,2,18
1528270817772910,-2,-5,-3,-1,0,1,-2,-24
1528270817772910,4,-5,-2,-3,-1,-1,0,-1
1528270817773580,2,0,-10,-3,-3,-3,-2,-1
1528270817773580,3,15,19,1,-1,-1,-2,-2
1528270817786720,-3,-21,-1,-3,-2,-1,-1,6
1528270817786720,2,-1,-6,-1,-2,0,0,1
1528270817795520,-6,3,4,-1,-2,0,-1,-3
1528270817795520,6,1,-8,-1,-2,-3,-3,-5
1528270817810670,2,-6,8,-1,1,1,0,11
1528270817810670,13,6,1,0,0,-2,-4,-15
1528270817811480,-11,-8,-11,-1,1,-1,-1,4
1528270817811480,-2,8,0,-1,-1,1,-2,0
1528270817832425,20,16,12,3,-1,-1,-1,3
1528270817832425,-36,-7,-21,-3,0,-1,2,-4
1528270817834420,21,1,-3,-2,-1,-2,0,19
1528270817834420,-63,-10,-1,-1,-2,-1,-3,-35
1528270817846384,5,2,-1,0,-1,-2,0,3
1528270817846384,12,0,1,0,-2,1,0,6
1528270817854971,7,2,-1,-3,-3,-2,-1,-1
1528270817854971,7,3,2,1,0,-2,0,6
1528270817870614,15,-7,-9,-2,-1,-3,-1,0
1528270817870614,-8,-1,3,0,-1,0,-2,0
1528270817871589,-19,-5,0,2,1,1,-2,-7
1528270817871589,23,-4,-8,-3,-1,-1,0,9
1528270817892849,28,0,-2,10,-1,-1,-1,-1
1528270817892849,-30,-3,-11,-27,-3,-2,-2,-12
1528270817893519,-10,17,3,2,-2,0,-3,-7
1528270817893519,7,6,1,5,1,1,0,5
1528270817906733,44,3,1,-19,-1,1,0,10
1528270817906733,-12,-7,7,55,1,-1,0,11
1528270817915459,4,3,-3,-3,-1,-1,-1,-5
1528270817915459,-35,-1,-1,-4,-6,-3,-1,-9
1528270817930554,0,0,-4,9,0,-2,0,-5
1528270817930554,12,-12,-3,-50,-6,-4,0,12
1528270817931416,-14,-16,5,11,0,-1,-2,-2
1528270817931416,41,-2,3,16,5,0,-2,-33
1528270817953028,-46,11,21,-2,-2,-1,-3,-7
1528270817953028,-8,-3,-25,33,-4,-3,-2,-9
1528270817954814,39,26,9,-19,-3,-1,0,8
1528270817954814,53,2,-13,-42,-9,-3,-1,15
1528270817975667,-58,5,9,39,3,5,2,-10
1528270817975667,15,10,-6,-32,0,-1,-2,1
1528270817976626,-25,-30,1,20,-3,-1,-2,-4
1528270817976626,45,-24,0,-23,0,0,2,10
1528270817989862,-28,-28,-20,6,-2,-2,-1,-3
1528270817989862,-4,-20,9,19,2,-1,-1,1
1528270817991574,15,-8,-8,-13,7,5,4,3
1528270817991574,-19,-4,-9,-27,-8,-5,-2,-5
1528270818012028,-9,-10,-27,-13,-15,-14,-7,0
1528270818012028,15,10,5,35,3,0,0,-5
1528270818014025,-14,-5,-10,-35,5,2,-3,-26
1528270818014025,-26,14,30,39,9,6,2,11
1528270818026277,47,-11,1,-34,-7,-2,-3,-7
1528270818026277,-7,-4,-5,-5,-1,-2,-1,-13
1528270818034982,10,6,26,64,2,-3,0,8
1528270818034982,-16,1,-22,-47,-5,-3,-2,3
1528270818049923,9,3,-11,-34,-5,-2,0,-3
1528270818049923,3,6,9,-16,-1,0,-1,8
1528270818051922,8,2,-15,22,-2,-2,-1,5
1528270818051922,-13,-6,16,41,5,0,0,-2
1528270818073168,28,9,-16,-46,0,2,0,4
1528270818073168,-61,-10,-6,-3,-5,-2,-1,-6
1528270818073871,-9,3,10,15,-5,-7,-4,-3
1528270818073871,-8,-13,-21,15,2,-1,-2,-9
1528270818086824,-21,-4,19,45,9,1,1,3
1528270818086824,12,13,6,-14,3,2,1,6
1528270818094949,-12,18,-62,-101,-20,-7,-1,1
1528270818094949,11,-4,17,25,0,-2,-2,-6
1528270818110029,1,20,-11,1,1,2,1,1
1528270818110029,19,-4,14,22,2,-2,0,3
1528270818111758,-18,-17,5,11,3,2,0,6
1528270818111758,-9,-2,-2,-20,-5,0,0,-2
1528270818140070,-6,-8,5,16,1,1,0,10
1528270818140070,-27,-6,6,-7,-2,0,-2,-10
1528270818141687,-5,-8,2,-7,-1,-2,1,-2
1528270818141687,-12,-2,-4,3,-2,-2,-1,-2
1528270818146307,-7,0,12,9,3,0,-1,-3
1528270818146307,42,1,-9,-7,-3,-5,-4,6
1528270818155173,-46,-11,6,2,-1,0,-1,-2
1528270818155173,-3,0,-1,8,0,-2,-1,3
1528270818170389,-7,-1,-2,1,1,1,1,-3
1528270818170389,11,5,-5,-12,-1,1,-2,0
1528270818172129,9,12,1,10,1,-2,-5,-3
1528270818172129,11,9,9,2,-1,-1,5,3
1528270818192345,6,4,-10,-8,-1,-3,2,-4
1528270818192345,10,-1,6,-4,0,-4,0,-7
1528270818194075,14,-2,13,4,-1,-1,3,4
1528270818194075,-9,5,-2,-3,0,0,-3,-8
1528270818215254,-9,-7,0,-3,-2,-1,-1,-7
1528270818215254,3,1,9,2,-2,2,0,4
1528270818217154,-9,-10,0,-1,-1,2,-4,-6
1528270818217154,-6,-1,-15,-9,-4,-2,-3,7
1528270818229977,-2,-4,7,5,-1,3,0,4
1528270818229977,-2,-1,-5,1,0,0,-1,3
1528270818231972,3,2,-1,-1,-1,-2,1,-3
1528270818231972,0,-2,-1,2,0,0,2,2
1528270818253041,-8,-2,3,0,-1,-2,-4,0
1528270818253041,-7,0,1,-2,-3,-2,-2,1
1528270818253910,5,0,-4,-3,-1,-1,-2,-3
1528270818253910,9,4,12,3,0,-1,-3,-1
1528270818265882,-6,-17,-10,0,1,-2,-5,3
1528270818265882,-2,-7,-8,-4,-1,0,-2,-4
1528270818274854,18,14,-3,2,1,0,-1,2
1528270818274854,-5,-7,-6,0,0,0,-3,0
1528270818298066,-10,1,2,-4,0,-3,-1,-4
1528270818298066,9,-1,3,58,3,0,2,15
1528270818298807,-1,-3,5,-63,0,0,0,-27
