timestamp,emg1,emg2,emg3,emg4,emg5,emg6,emg7,emg8
1528446332068587,18,3,6,-2,0,2,6,45
1528446332068587,-1,-2,-3,2,2,-2,1,7
1528446332075569,0,3,5,0,2,0,5,4
1528446332075569,-5,0,-4,0,1,6,0,-17
1528446332083549,1,-1,-3,1,3,0,1,4
1528446332083549,0,2,3,-1,0,4,0,-17
1528446332091526,-12,-3,0,-2,-2,-2,-7,2
1528446332091526,-8,-2,-1,-2,-2,-5,-8,-27
1528446332105490,12,3,1,3,2,-2,6,29
1528446332105490,-11,-1,-1,-3,-4,3,0,-23
1528446332113468,10,2,4,0,-5,-9,-6,12
1528446332113468,12,-3,-6,0,5,3,15,32
1528446332128426,-8,-3,-2,2,5,15,6,-15
1528446332128426,0,0,3,4,2,2,4,5
1528446332136406,-6,-2,-4,0,-3,-8,-3,-6
1528446332136406,-4,2,0,-6,-5,-4,-13,-13
1528446332153360,-5,-7,0,-4,-3,-6,-7,-8
1528446332153360,6,-2,-7,-1,-4,-11,-10,15
1528446332158347,-5,0,-6,-4,-1,8,-2,-22
1528446332158347,-3,-1,2,4,-2,-12,-4,5
1528446332189264,6,3,0,5,3,4,11,4
1528446332189264,-20,-3,8,-2,0,1,-7,-49
1528446332195249,15,-1,-5,-4,-7,-13,-5,27
1528446332195249,2,-3,-6,-1,0,-2,-7,3
1528446332210209,-5,0,2,-1,-1,8,5,-4
1528446332210209,-3,0,-1,-2,1,4,7,3
1528446332220182,-1,-1,0,2,1,-4,0,1
1528446332220182,3,1,-1,2,2,2,4,1
1528446332233166,-20,-3,-3,-3,-7,-12,-16,-35
1528446332233166,13,-2,-1,-2,-4,-6,2,35
1528446332241127,1,-2,-2,-1,0,1,1,-7
1528446332241127,1,3,4,0,3,8,4,-1
1528446332248107,2,2,4,-2,-2,-2,-3,1
1528446332248107,-2,-2,2,0,-1,-3,7,3
1528446332256122,1,-2,-4,-6,-4,9,0,9
1528446332256122,-7,0,5,-1,6,5,3,-9
1528446332272044,11,1,8,2,-2,-3,-3,14
1528446332272044,-4,-6,-15,-5,-3,-7,-7,-1
1528446332279037,3,1,5,0,-3,-12,-3,0
1528446332279037,2,3,-1,-2,-2,4,-2,3
1528446332292989,-3,0,1,-8,-4,1,1,-3
1528446332292989,-3,1,6,4,5,4,4,-4
1528446332300998,0,-2,-1,2,2,10,8,2
1528446332300998,-2,-5,-4,-2,-6,-19,-11,0
1528446332307947,0,2,-1,0,3,6,4,-2
1528446332307947,1,4,2,-4,-3,-5,-9,-3
1528446332316932,-5,-3,-4,0,5,9,9,-4
1528446332316932,-5,-2,1,-4,-7,-5,-7,-4
1528446332330886,-8,-2,-1,0,0,-9,-15,-32
1528446332330886,5,1,3,1,2,18,15,19
1528446332337868,-4,-3,-9,-4,-3,-10,-6,-6
1528446332337868,4,-2,-1,0,0,-2,1,14
1528446332352853,5,2,-4,3,2,2,9,15
1528446332352853,-7,-3,-7,1,2,0,-6,-18
1528446332360831,10,-2,-4,-4,-3,-6,-6,2
1528446332360831,1,4,12,-2,-4,-6,-5,8
1528446332382786,-1,2,0,2,0,2,1,1
1528446332382786,-5,-4,-2,-2,2,-1,-7,-8
1528446332390726,-8,-1,-5,-1,0,2,0,-12
1528446332390726,3,-3,-4,-4,-6,-11,-4,21
1528446332397713,-2,4,5,1,-4,-3,-2,-10
1528446332397713,0,1,-2,4,4,5,7,8
1528446332405722,24,5,7,1,-1,1,10,44
1528446332405722,-20,-11,11,-3,-1,1,-3,-15
1528446332412708,3,14,12,-3,-2,-1,-5,-10
1528446332412708,-3,1,-2,4,-3,-3,-3,-7
1528446332435642,-3,-5,-8,3,-1,-2,-4,-21
1528446332435642,-5,2,6,2,-5,-4,-7,-11
1528446332443611,9,-5,-3,-1,-2,-8,-5,3
1528446332443611,-1,1,2,3,5,8,11,3
1528446332458545,-8,3,9,9,1,2,-2,-6
1528446332458545,10,0,-12,-4,-1,1,1,21
1528446332465533,-7,-8,-4,5,-4,-8,-7,5
1528446332465533,13,1,-9,-1,-3,-2,-2,10
1528446332488519,-2,2,-3,-46,-10,-4,-3,7
1528446332488519,-7,-6,7,20,-5,-5,-7,-12
1528446332495447,20,4,15,-7,-3,-2,4,40
1528446332495447,3,-3,-21,14,9,4,2,-3
1528446332503426,-5,-8,-8,18,10,6,8,2
1528446332503426,2,-3,-3,-17,-4,-1,-1,-3
1528446332518384,-17,-6,-6,0,-5,-3,-5,-19
1528446332518384,7,3,14,1,-1,-1,-4,-12
1528446332525368,9,-1,-3,3,-2,1,5,18
1528446332525368,-7,-3,6,4,0,1,0,3
1528446332533345,2,6,-4,17,1,1,-3,-9
1528446332533345,4,4,10,18,-5,3,2,4
1528446332555324,-5,-3,-11,61,10,0,0,-6
1528446332555324,2,11,5,-10,-9,-2,-1,0
1528446332563293,-7,-6,-3,26,9,6,3,-9
1528446332563293,2,-3,-17,-34,-6,-3,-2,3
1528446332578226,-7,-4,7,-46,-10,-5,-3,-8
1528446332578226,-6,-9,-3,-22,2,-1,3,7
1528446332585206,-5,-1,17,-21,-8,-6,-8,-11
1528446332585206,10,-5,-13,-31,-2,-6,-7,0
1528446332600167,-8,-3,-5,-31,-1,-1,4,1
1528446332600167,-7,-15,4,39,6,-6,-2,-5
1528446332608147,5,17,12,-22,-6,-1,-5,-14
1528446332608147,-29,-8,15,13,-3,-5,-6,-14
1528446332615128,21,1,-29,-57,-1,3,9,25
1528446332615128,-33,-6,4,-5,-2,0,-2,-16
1528446332631085,20,7,20,30,6,3,7,12
1528446332631085,5,1,-5,-25,3,11,8,2
1528446332638066,-17,-4,35,6,-13,-10,-11,-20
1528446332638066,-2,4,-11,-6,-3,-6,-4,-1
1528446332653040,-8,-24,-26,7,1,4,0,-1
1528446332653040,7,3,-1,9,1,3,1,1
1528446332668000,-6,-12,-15,-48,-7,2,2,-4
1528446332668000,14,17,22,33,3,-3,-9,-6
1528446332675965,-11,-3,-7,19,7,1,0,-7
1528446332675965,6,8,6,42,9,4,5,6
1528446332690925,2,-1,-7,-41,-9,-4,-1,4
1528446332690925,-8,-9,-19,-7,4,9,6,-6
1528446332697906,14,7,20,11,-1,0,1,4
1528446332697906,2,4,5,-27,-11,-9,-7,-4
1528446332712866,16,0,1,-19,-7,2,4,4
1528446332712866,5,9,8,12,10,6,12,19
1528446332727862,27,0,4,-8,-12,-6,-8,11
1528446332727862,-5,-4,-12,-22,-2,-10,-9,-3
1528446332735804,-3,-6,-57,50,17,0,-4,-5
1528446332735804,-4,-3,12,-30,-11,0,-1,-3
1528446332750766,-6,-3,-22,15,3,0,0,8
1528446332750766,-18,-35,-16,8,2,2,0,-5
1528446332757746,-3,4,-9,-8,-3,-1,-3,-4
1528446332757746,-4,2,3,10,3,-2,-2,2
1528446332772707,-16,2,29,9,-5,-2,-1,-8
1528446332772707,-13,-10,-4,11,-2,0,-5,-13
1528446332788803,4,1,-4,-47,-7,-7,-4,-5
1528446332788803,6,7,-12,43,14,4,5,3
1528446332795865,10,11,27,-60,-14,8,7,6
1528446332795865,9,14,8,17,8,6,2,-6
1528446332811068,-5,-9,4,-15,-9,5,5,7
1528446332811068,-4,-6,9,14,3,-11,-9,-13
1528446332818381,26,6,14,10,1,-2,-4,14
1528446332818381,-23,-7,16,29,1,-7,-7,-2
1528446332840988,19,-28,-25,30,6,0,6,23
1528446332840988,-2,-5,-4,-18,-3,-8,-7,-8
1528446332855946,8,1,-23,20,1,1,-1,-2
1528446332855946,-15,2,17,2,-3,1,-1,-5
1528446332862979,-18,9,9,3,3,1,-2,-14
1528446332862979,6,-1,-10,-46,-10,-1,2,6
1528446332877957,-5,-2,-3,32,6,1,3,-6
1528446332877957,8,14,41,8,3,10,6,3
1528446332892850,25,-1,-20,28,9,12,12,22
1528446332892850,-4,5,-16,-5,-1,3,-5,-13
1528446332909804,-17,7,9,-58,-6,-3,1,-15
1528446332909804,32,-4,-8,34,11,12,12,39
1528446332915787,-12,3,35,8,-4,-7,-6,-17
1528446332915787,2,6,3,38,6,0,1,-2
1528446332931041,2,2,26,-8,-12,-8,-5,12
1528446332931041,3,4,-16,13,-1,-7,-9,-15
1528446332937768,-14,4,-4,-23,1,1,1,-1
1528446332937768,4,4,5,-12,-6,0,0,0
1528446332953758,-2,-6,-11,23,10,5,4,9
1528446332953758,-10,0,5,8,0,-3,-3,-4
1528446332960893,-9,-7,-17,25,-2,-5,-6,-8
1528446332960893,14,13,3,-3,3,5,3,13
1528446332975911,-9,1,11,20,4,-4,-5,-19
1528446332975911,16,0,-9,-26,-7,5,10,22
1528446332983943,-9,4,4,2,1,1,-5,-6
1528446332983943,-12,-8,-11,-49,-16,-13,-7,-11
1528446332997852,-5,0,11,33,4,-5,-4,0
1528446332997852,10,5,3,20,14,15,17,19
1528446333006083,-7,3,12,-7,-3,5,-3,-7
1528446333006083,0,-15,-28,-6,1,3,-1,4
1528446333020929,9,5,13,7,8,1,-2,3
1528446333020929,-5,-6,-22,-12,-8,-4,-4,-12
1528446333028831,1,-5,-17,-17,-6,-7,-8,6
1528446333028831,-8,-2,6,-16,-4,-4,-3,-3
1528446333036000,-2,5,7,-9,-1,-4,-5,-6
1528446333036000,-4,-5,0,-13,1,5,3,3
1528446333051252,0,-6,-1,20,0,3,1,-9
1528446333051252,13,-5,-11,-1,6,5,3,10
1528446333057982,-6,3,16,-9,-8,-10,-10,-8
1528446333057982,-7,-2,3,5,-4,-4,-4,-3
1528446333072944,0,-11,-27,10,0,-3,0,-1
1528446333072944,2,22,6,-7,0,3,4,12
1528446333081161,-4,2,-5,-4,2,4,4,-1
1528446333081161,8,-2,-7,6,6,6,6,13
1528446333088142,1,3,-1,-31,-7,-3,-2,-5
1528446333088142,-10,-10,-25,-11,0,0,1,-11
1528446333095899,0,-5,0,-4,4,3,6,2
1528446333095899,4,6,5,-3,-6,2,4,5
1528446333118872,3,0,-3,-23,-7,-2,-3,-1
1528446333118872,-6,-4,12,10,-4,-3,-3,-8
1528446333126013,7,-4,-20,13,6,3,2,7
1528446333126013,2,-8,-3,-14,-4,-2,1,-1
1528446333140761,-7,0,22,5,1,2,0,-2
1528446333140761,-12,-6,-2,3,-1,-2,-5,-5
1528446333147774,5,-1,-9,9,-1,-4,-1,7
1528446333147774,0,3,-12,-11,-3,-9,-7,-8
1528446333155760,-11,-1,11,28,6,11,11,11
1528446333155760,0,-1,-6,9,1,-1,-2,-10
1528446333170718,1,-2,-14,-9,-5,-7,-8,-9
1528446333170718,0,-2,6,10,-2,-9,-9,-14
1528446333177700,7,2,-6,-41,-5,4,9,17
1528446333177700,-2,2,8,16,9,7,3,6
1528446333192622,11,-2,-7,-16,-6,-9,-5,4
1528446333192622,8,14,24,-5,-5,-2,-2,-1
1528446333200602,-3,-24,-3,74,11,4,5,1
1528446333200602,-5,14,1,1,-4,-1,-4,-14
1528446333207582,2,5,14,12,-2,-1,-3,1
1528446333207582,2,4,21,-17,1,-3,1,5
1528446333215560,-8,-1,17,-7,-7,-7,-6,-13
1528446333215560,1,-7,-13,-4,3,4,4,1
1528446333230523,0,-3,-18,18,3,1,2,-1
1528446333230523,0,-3,-1,3,1,-1,-4,1
1528446333238500,-2,4,-15,-9,-2,1,4,1
1528446333238500,1,-7,-1,-17,1,3,1,2
1528446333253511,1,12,13,-43,-8,-5,-5,-5
1528446333253511,-4,-15,-29,0,5,6,6,7
1528446333260493,-1,7,4,10,-1,-5,-5,-3
1528446333260493,-2,-2,11,27,0,-5,-4,4
1528446333268472,2,-5,-16,9,8,9,8,9
1528446333268472,-3,-6,-6,-10,-2,0,1,-5
1528446333275456,-2,6,13,-6,0,0,-1,-3
1528446333275456,-1,-2,-1,5,-2,-6,-2,1
1528446333290360,-8,1,17,53,4,-4,-7,-7
1528446333290360,-1,-6,-9,-6,1,1,-2,-6
1528446333298351,3,7,2,-11,-1,-1,1,3
1528446333298351,-4,-4,3,-24,2,3,1,-5
1528446333313352,0,-2,-9,-5,2,-1,0,-3
1528446333313352,0,6,29,-15,-7,-5,-2,4
1528446333320335,-1,-9,-67,-25,-8,-5,-7,0
1528446333320335,2,9,-5,52,6,4,4,-5
1528446333328285,1,-3,-20,-8,0,3,6,3
1528446333328285,1,-3,-1,-6,-1,-4,-2,6
1528446333335293,-1,-3,16,-13,-1,0,-2,-3
1528446333335293,1,-4,4,-15,-11,-10,-11,-7
1528446333350255,0,0,11,8,2,2,2,4
1528446333350255,2,2,15,1,0,-1,-4,-7
1528446333358234,2,5,9,28,5,4,6,6
1528446333358234,-3,-3,2,-19,-2,0,-1,-3
1528446333374140,-5,-5,-6,-9,-7,-9,-8,-5
1528446333374140,0,-1,-1,0,2,0,1,3
1528446333380122,-1,2,7,26,6,3,2,-4
1528446333380122,3,-2,8,1,-1,4,2,3
1528446333388100,1,-3,-24,-22,1,3,3,4
1528446333388100,-3,-4,-9,23,-2,-4,-3,1
1528446333395134,-2,-2,11,19,-2,-7,-8,-5
1528446333395134,-1,5,9,16,7,7,5,3
1528446333411085,4,-3,-10,-19,-2,-4,0,0
1528446333411085,-11,-3,-2,4,-6,-9,-9,-13
1528446333418075,7,2,7,0,2,6,3,5
1528446333418075,1,0,0,5,1,3,6,3
1528446333433032,-3,-2,-3,3,-4,-3,0,-9
1528446333433032,4,4,-1,9,7,7,10,16
1528446333440959,-1,-3,-9,-12,0,2,2,-1
1528446333440959,-1,4,7,-1,1,1,4,2
1528446333448000,3,3,10,-13,-5,-3,-3,2
1528446333448000,-8,-7,-25,7,2,1,-2,-7
1528446333455974,-4,3,12,1,-1,-4,-5,-9
1528446333455974,0,-9,-23,20,0,1,-2,2
1528446333470904,5,4,18,20,5,4,3,3
1528446333470904,2,-8,-19,-29,0,8,10,1
1528446333477860,1,3,6,-9,0,0,0,-2
1528446333477860,-4,-4,-6,-7,-4,-7,-5,-8
1528446333492859,-2,1,-1,5,0,0,-3,0
1528446333492859,1,2,5,9,-3,-1,-3,-1
1528446333500799,-2,-1,4,-18,-5,-3,0,2
1528446333500799,-1,-3,-7,-5,-1,-1,0,-1
1528446333507781,1,-2,-2,3,0,-1,1,0
1528446333507781,5,7,7,-2,2,6,9,4
1528446333515758,-7,-4,-1,-12,-3,0,-1,-6
1528446333515758,-1,1,1,5,-1,-6,-7,-3
1528446333530772,1,-3,-6,-2,-1,2,3,6
1528446333530772,7,4,0,-3,-2,-13,-12,-4
1528446333537754,-14,-4,-3,-12,-5,7,11,-3
1528446333537754,-3,-16,-11,-4,-1,-1,-4,1
1528446333553734,-8,-2,2,-2,-1,1,1,0
1528446333553734,3,2,2,4,-6,-15,-9,3
1528446333560885,1,0,0,-13,-6,-7,-13,-6
1528446333560885,-1,-1,2,7,-1,3,-1,-3
1528446333568883,0,-5,-14,0,3,6,4,4
1528446333568883,-4,1,1,-2,4,8,7,1
1528446333575856,2,2,1,-5,1,-1,1,1
1528446333575856,-4,-1,2,5,-2,-5,-5,-2
1528446333590801,2,-6,2,0,5,1,1,3
1528446333590801,2,7,7,8,-5,-11,-2,-1
1528446333598341,3,1,-4,-3,-8,-4,-6,3
1528446333598341,-2,0,1,-5,3,5,4,1
1528446333613039,1,1,-1,4,7,5,4,0
1528446333613039,-4,-1,2,-4,-1,1,-2,-4
1528446333620851,-5,-5,-1,5,-4,-15,-8,-9
1528446333620851,3,3,-4,-3,9,8,2,3
1528446333628822,0,1,1,-6,-9,-8,3,0
1528446333628822,-5,-6,-8,-6,-4,1,-5,-2
1528446333643797,4,1,-4,2,5,6,4,5
1528446333643797,-5,-2,-6,-16,-6,-5,-6,-4
1528446333651102,-4,-2,1,-10,-6,-4,-9,-10
1528446333651102,0,-3,-10,-1,-2,-2,-2,-2
1528446333666081,-2,-1,-10,7,-5,-7,-6,-1
1528446333666081,2,1,0,-18,-5,-7,1,1
1528446333673591,-3,-1,-3,4,1,8,3,0
1528446333673591,-1,-4,-3,0,10,15,6,3
1528446333688553,0,0,-4,-13,-14,-14,-4,-4
1528446333688553,-1,-1,-1,12,19,19,8,0
1528446333703765,1,-1,2,11,-1,-8,-3,3
1528446333703765,1,-3,-17,-12,4,7,5,-1
1528446333712489,3,7,7,1,-7,-8,-2,1
1528446333712489,-6,-2,0,-8,-3,-3,-4,-6
1528446333733700,-2,1,18,-5,-3,-4,1,0
1528446333733700,1,0,2,11,-1,-2,-1,3
1528446333740413,0,-1,0,-1,3,3,-1,0
1528446333740413,-3,0,1,-4,-5,-5,-4,-1
1528446333756407,0,-2,-6,2,4,1,3,1
1528446333756407,2,-5,-27,8,2,3,2,1
1528446333770702,0,3,-2,1,3,6,5,0
1528446333770702,1,-2,-14,-7,-3,5,3,1
1528446333778622,0,0,3,16,12,4,-2,-1
1528446333778622,-4,-3,-6,-16,-21,-28,-16,-6
1528446333793836,5,4,7,4,5,5,3,1
1528446333793836,-2,1,10,-6,-4,-1,-3,-3
1528446333808877,0,-2,-10,2,-8,-7,0,-1
1528446333808877,1,0,1,-6,4,4,6,4
1528446333823236,4,-3,-14,-7,4,4,3,-1
1528446333823236,-1,4,17,7,-3,0,-1,-2
1528446333831307,-1,-7,-13,7,3,-2,-4,0
1528446333831307,-1,-2,4,-15,-9,-11,-4,-2
1528446333845838,-4,-1,12,21,0,-9,-7,-5
1528446333845838,1,4,11,-9,-3,-3,-2,1
1528446333853137,-2,6,16,-15,-6,1,-1,-4
1528446333853137,-2,1,26,3,0,-1,-3,-3
1528446333868361,-3,0,12,-1,6,10,4,-1
1528446333868361,2,2,-11,2,1,5,5,1
1528446333883638,0,3,2,2,-7,-7,-5,-5
1528446333883638,-3,-6,-20,6,-6,-14,-9,-2
1528446333890361,-3,-6,-18,-10,1,6,1,-1
1528446333890361,-1,2,2,-5,-5,-8,0,1
1528446333906381,-1,-3,-7,3,0,5,3,3
1528446333906381,5,7,-1,-3,10,28,16,4
1528446333913297,-2,-4,-2,-6,-8,-13,-9,-5
1528446333913297,2,3,1,8,2,3,-1,-4
1528446333928557,2,-1,-11,16,6,6,8,1
1528446333928557,-4,-3,0,8,3,2,1,-3
1528446333943546,-2,1,-4,-3,-4,-7,-3,0
1528446333943546,7,2,-5,-4,-4,-8,-8,-5
1528446333951318,-11,-5,1,-3,4,9,1,-1
1528446333951318,-1,-4,7,4,1,6,3,2
1528446333966427,-8,-6,-12,2,2,1,-3,-6
1528446333966427,-4,-4,1,-4,-6,-14,-6,-4
1528446333973463,7,4,3,0,-1,-6,-5,2
1528446333973463,-1,-3,-5,-2,0,4,2,-4
1528446333988754,5,1,-5,-2,-3,-3,0,3
1528446333988754,0,-1,-1,-4,-1,-5,-7,-1
1528446334003641,2,1,4,0,4,10,9,5
1528446334003641,-4,-4,-3,-2,-1,-2,1,2
1528446334010628,2,0,-4,-9,-17,-18,-15,-9
1528446334010628,1,1,-2,2,15,25,11,3
1528446334025333,-2,2,2,-2,-2,-9,-6,-6
1528446334025333,-5,-6,-2,-3,-9,-15,-13,-6
1528446334033303,1,2,7,0,18,21,16,8
1528446334033303,0,-1,-2,1,-11,-9,-1,0
1528446334048263,0,3,2,-1,-2,-6,-4,-3
1528446334048263,-2,-4,-1,0,-2,-5,-3,0
1528446334063556,-2,0,3,-1,0,1,0,5
1528446334063556,0,1,4,2,3,4,4,-3
1528446334071204,-1,-3,-7,-1,-1,-2,-4,-1
1528446334071204,0,0,-3,0,-1,-1,1,1
1528446334086267,1,2,2,-3,-3,-2,-5,-3
1528446334086267,0,-2,-2,-1,1,1,0,3
1528446334093253,-3,-2,1,0,-2,0,0,1
1528446334093253,1,1,-2,-4,-4,-2,1,2
1528446334108237,-3,-2,6,2,1,3,2,-2
1528446334108237,1,-1,-4,-2,-3,-7,-7,-6
1528446334122766,3,-1,-14,-4,-3,-2,2,2
1528446334122766,-5,-3,1,-2,0,2,1,-4
1528446334130788,4,0,1,-1,-4,-5,-2,5
1528446334130788,-5,-4,1,2,0,-1,2,2
1528446334146056,5,0,3,2,1,0,2,12
1528446334146056,-2,6,0,0,0,-2,-3,-9
1528446334152684,3,-6,-7,-3,-3,-4,-4,4
1528446334152684,1,-2,-1,1,0,0,-2,-1
1528446334167692,-7,-1,4,1,-1,-1,0,-6
1528446334167692,8,1,-8,-2,-1,-1,0,6
1528446334182900,-1,-2,-1,-3,-2,0,-2,0
1528446334182900,2,1,0,0,-1,-1,-3,0
1528446334190671,-3,2,-3,-1,-2,-1,-2,-9
1528446334190671,-6,-6,1,-1,-1,-1,-1,0
1528446334205899,4,3,4,0,-2,-1,-2,-1
