timestamp,emg1,emg2,emg3,emg4,emg5,emg6,emg7,emg8
1529288029190619,2,-7,-4,-3,-3,-1,4,-2
1529288029190619,4,2,-3,-8,2,3,2,2
1529288029195606,5,9,5,1,0,-1,1,2
1529288029195606,-1,0,-3,-4,-2,-4,-2,-4
1529288029196601,-3,-1,-1,2,2,-2,-4,-1
1529288029196601,-7,-6,-1,1,-2,-2,-4,-3
1529288029197600,-3,-8,-5,1,-2,0,-3,-2
1529288029197600,11,12,4,5,0,2,3,4
1529288029208568,6,2,-3,1,-3,1,-2,-1
1529288029208568,0,7,2,-1,0,0,1,3
1529288029220540,-8,-12,-15,-10,-1,-1,1,1
1529288029220540,-8,-18,-5,1,1,-3,-1,-3
1529288029232505,4,14,10,2,-6,-4,2,4
1529288029232505,1,-3,0,1,5,-5,1,-1
1529288029238489,2,8,12,4,0,-5,0,1
1529288029238489,-7,-8,-12,-6,-3,-5,-1,-4
1529288029248464,-3,-6,-1,6,9,15,6,1
1529288029248464,0,1,3,1,2,5,-1,-6
1529288029254446,-6,-9,-4,-9,-4,-4,-6,-5
1529288029254446,-2,-2,-3,-6,0,4,-3,-5
1529288029268409,-3,3,-7,-6,-12,-8,-5,-3
1529288029268409,0,-4,-9,4,2,5,5,4
1529288029278385,9,18,7,4,3,1,5,5
1529288029278385,-2,-2,0,-2,-1,-8,-9,-2
1529288029315283,-1,-2,-6,-4,-4,-3,-2,1
1529288029315283,2,-5,-7,0,-5,-7,-8,-3
1529288029317277,3,5,6,-1,-4,4,-1,-5
1529288029317277,1,0,3,-3,-7,-1,0,-3
1529288029318275,0,-7,1,10,4,5,4,4
1529288029318275,-2,7,5,-3,-1,3,0,2
1529288029322265,-1,-5,-5,-2,3,-6,-6,1
1529288029322265,3,6,6,-4,-1,4,-4,3
1529288029328249,-5,-12,-6,-5,1,0,-4,-5
1529288029328249,2,-1,3,7,-2,-3,-1,-6
1529288029337225,5,-2,-10,-6,-6,-3,2,1
1529288029337225,1,7,12,7,5,0,4,1
1529288029343209,3,10,5,0,3,0,9,10
1529288029343209,-8,-11,-6,-3,2,-3,0,-1
1529288029358169,-5,-2,-2,-1,1,1,7,-2
1529288029358169,-3,-7,-17,3,-1,-1,-6,-6
1529288029367145,5,4,-4,-2,-6,-1,-6,-2
1529288029367145,2,9,-2,-4,-2,-1,4,0
1529288029374130,-3,-6,-2,1,4,7,5,1
1529288029374130,-4,-8,-3,-3,-7,-5,-1,0
1529288029388089,-3,-3,6,5,7,5,0,-2
1529288029388089,7,4,3,0,-4,-1,1,2
1529288029397065,-9,-13,-6,-4,-1,-11,-6,1
1529288029397065,1,13,7,-1,2,-4,-2,0
1529288029403049,-6,-4,-3,-4,-5,-4,-3,-4
1529288029403049,3,7,0,1,5,3,5,1
1529288029425988,2,0,0,-1,4,4,-1,-1
1529288029425988,1,-1,5,5,0,2,4,2
1529288029426986,4,11,8,3,-4,-6,-2,-3
1529288029426986,-7,-14,-6,-4,-4,-5,-6,-10
1529288029434963,-3,-9,0,-2,0,2,-2,-2
1529288029434963,1,-10,-6,-2,-3,-1,-7,-4
1529288029447930,-1,-13,-12,-3,-5,-2,0,-4
1529288029447930,-4,-5,-1,2,1,1,-2,-2
1529288029456905,0,7,-1,-1,-2,-1,-3,1
1529288029456905,-3,3,-2,-2,-5,1,0,-3
1529288029462923,-2,5,3,5,8,5,-1,-1
1529288029462923,-1,0,-1,1,0,0,-2,3
1529288029477850,3,10,5,1,-4,1,0,-1
1529288029477850,0,1,1,-1,4,-1,2,0
1529288029485828,-1,-5,-6,-10,-12,-4,-5,0
1529288029485828,-1,6,8,3,-4,-10,-12,3
1529288029500822,5,3,0,1,10,12,12,13
1529288029500822,-5,-5,0,1,11,2,5,-2
1529288029507804,2,5,0,1,-2,3,12,2
1529288029507804,-1,-4,-1,0,-7,2,9,0
1529288029516745,-5,-4,-4,-1,-4,-1,0,-6
1529288029516745,-6,-4,-7,1,-3,-5,-1,-7
1529288029522764,1,0,7,1,6,-7,-5,-6
1529288029522764,2,5,4,-2,5,-2,-5,4
1529288029537724,-1,2,-1,-2,-3,-9,-9,4
1529288029537724,1,1,-1,2,3,3,-4,2
1529288029545705,-6,1,-5,-1,-2,0,-2,-2
1529288029545705,-8,0,-4,-4,-9,4,7,-3
1529288029554644,7,15,9,4,-1,0,2,-5
1529288029554644,-2,-10,-9,-9,-6,2,1,-3
1529288029567608,4,-6,1,6,-5,-1,2,-2
1529288029567608,2,-11,-11,-3,7,9,3,-3
1529288029576618,-2,-5,-3,1,-2,1,-1,-2
1529288029576618,2,2,4,-3,-6,-6,-3,3
1529288029591588,3,1,7,2,4,0,-4,-1
1529288029591588,1,-9,0,-3,1,3,0,4
1529288029597565,0,1,1,2,-1,-1,-1,-2
1529288029597565,1,4,-2,2,-5,-2,3,2
1529288029613489,-8,1,-7,-6,0,1,2,-1
1529288029613489,-1,4,-3,7,9,4,2,0
1529288029620468,-5,-5,-8,0,-4,-5,-6,-3
1529288029620468,-1,-3,2,-3,8,5,-3,-1
1529288029628448,-1,-2,5,-2,-4,-1,3,0
1529288029628448,-1,3,5,-5,2,-4,-4,2
1529288029637425,1,-8,-4,-4,-8,-8,1,1
1529288029637425,1,-1,1,2,2,2,4,3
1529288029643450,0,-6,-4,-2,-7,-7,-2,-4
1529288029643450,-1,2,-3,2,2,5,1,-6
1529288029658401,-1,-2,5,6,3,-3,-3,-1
1529288029658401,0,0,-7,-3,-1,-4,-3,-2
1529288029665349,3,6,0,-7,-2,-2,0,1
1529288029665349,0,1,0,-5,-3,-5,1,0
1529288029680342,-10,0,-1,-6,-5,-5,-5,-2
1529288029680342,-5,-4,-2,5,-3,0,1,1
1529288029688286,4,7,2,6,0,2,-1,-1
1529288029688286,5,-6,1,1,-8,-2,-2,-1
1529288029695267,4,-3,-4,1,8,5,1,-5
1529288029695267,-2,2,2,-4,-5,0,-3,-4
1529288029703248,-5,-11,-8,-1,3,2,-6,-2
1529288029703248,3,10,8,2,-2,-3,-1,6
1529288029718208,0,-1,0,-3,-1,-5,-2,-1
1529288029718208,4,0,-2,-6,-6,-11,-4,-1
1529288029734207,2,7,7,4,10,5,1,3
1529288029734207,-5,-4,-2,-2,10,5,1,-3
1529288029740150,-9,-3,-2,-1,4,7,2,-4
1529288029740150,-3,10,-3,2,-1,3,5,0
1529288029749126,-5,-1,-7,-4,-6,4,1,0
1529288029749126,7,5,0,3,-4,-7,-3,1
1529288029755109,8,0,3,4,-8,-4,4,1
1529288029755109,1,-4,3,0,4,-8,3,0
1529288029763120,-6,-6,1,1,2,-2,2,1
1529288029763120,1,8,0,0,-2,-3,0,2
1529288029778047,-1,2,-1,-7,-11,-4,-4,1
1529288029778047,-1,-5,-10,-5,4,5,-6,-1
1529288029786025,0,-1,1,2,5,8,0,0
1529288029786025,3,1,2,-1,-3,-1,-3,-3
1529288029801018,6,4,1,2,2,6,2,0
1529288029801018,3,1,6,0,-7,3,4,1
1529288029808998,-6,-3,-2,-2,-15,-4,0,-5
1529288029808998,-2,-5,-4,-3,-2,-3,-1,-8
1529288029815980,1,-4,-6,1,2,-1,3,0
1529288029815980,-4,-4,-8,1,11,1,1,2
1529288029822926,2,1,-2,-4,1,-6,-2,1
1529288029822926,-6,-2,0,-2,-2,2,2,1
1529288029837888,-8,3,6,5,-1,-3,1,-1
1529288029837888,-9,-5,-1,-2,-6,0,0,-1
1529288029845866,0,4,-3,-4,-5,-5,-6,3
1529288029845866,-3,-7,-6,1,7,-1,0,4
1529288029869800,4,2,7,1,13,-1,-1,4
1529288029869800,-1,-9,2,-2,-1,0,-5,-4
1529288029869800,4,-1,2,-1,2,2,4,-1
1529288029869800,-4,-4,-1,-4,-8,-8,-4,-8
1529288029875821,-1,0,-3,1,-8,1,-2,-7
1529288029875821,3,1,-3,0,2,-1,-1,-1
1529288029890747,5,2,-3,-7,-1,2,-1,0
1529288029890747,4,-1,-1,5,-1,0,-2,5
1529288029897726,1,-1,-1,-2,0,-1,3,0
1529288029897726,3,-1,-2,1,0,4,4,3
1529288029905708,0,4,-2,1,3,1,-3,1
1529288029905708,-6,-9,-1,-3,-3,1,0,-3
1529288029920766,14,25,12,6,6,8,3,5
1529288029920766,-3,-5,-1,-1,-4,-7,-1,-1
1529288029928644,-3,2,4,3,1,-2,2,-2
1529288029928644,-1,-1,-4,0,2,-4,0,-7
1529288029935625,-2,-12,-12,-4,-5,-7,-8,-3
1529288029935625,3,8,7,2,5,3,-2,1
1529288029951582,-4,-4,-2,2,4,4,-4,0
1529288029951582,-4,-5,-3,1,-2,5,-3,0
1529288029957599,-8,-5,-3,-9,-11,3,7,1
1529288029957599,3,4,5,4,-3,-1,4,0
1529288029965593,-1,-1,-4,0,-2,-9,-2,-2
1529288029965593,-3,-1,-1,-3,4,-2,0,0
1529288029980691,-5,-5,-10,0,6,-5,-6,-4
1529288029980691,-5,-4,-5,-2,-4,-3,-5,-1
1529288029988486,9,8,6,-3,0,-2,0,1
1529288029988486,11,6,0,-3,-4,-3,4,-1
1529288029995511,-1,3,2,0,3,0,-5,2
1529288029995511,-4,-5,-6,-8,-5,-6,-1,-4
1529288030011423,-7,-14,-7,-2,-9,4,5,-2
1529288030011423,4,5,5,-1,-9,1,1,1
1529288030018436,-4,-6,-3,3,5,5,3,-2
1529288030018436,0,11,2,3,-1,6,5,3
1529288030025385,0,0,-1,0,-2,-1,3,2
1529288030025385,1,-3,0,2,8,0,0,-1
1529288030040345,2,2,7,0,0,-3,-1,-2
1529288030040345,-2,-6,2,-4,0,-2,-6,-3
1529288030049370,-6,-8,3,-1,0,-6,-4,-7
1529288030049370,-2,-3,-4,-7,-6,3,-6,0
1529288030063466,4,3,0,0,1,3,-6,2
1529288030063466,3,3,-7,-5,0,5,0,4
1529288030071262,-1,1,-5,-2,0,0,-3,0
1529288030071262,-1,1,-4,2,6,3,2,-4
1529288030078427,1,7,5,7,-1,-6,5,1
1529288030078427,1,3,11,5,-1,-9,-2,1
1529288030085403,-3,-1,7,4,3,-4,-4,-4
1529288030085403,-3,-6,-7,-3,-5,-3,2,-1
1529288030100418,1,-4,2,-2,-5,-1,4,6
1529288030100418,-2,-1,1,-6,1,-1,3,2
1529288030108270,-5,0,-3,-5,0,-2,4,2
1529288030108270,1,0,-3,0,-2,-3,-4,-4
1529288030116316,3,-6,-5,3,3,3,-8,-6
1529288030116316,3,-1,-1,4,-2,2,-8,-2
1529288030131324,1,-2,-2,-3,-5,5,-2,5
1529288030131324,-6,2,2,2,-14,-3,-2,2
1529288030138128,-7,3,0,1,12,7,4,1
1529288030138128,1,5,-4,-2,7,3,0,-2
1529288030146145,-1,-1,-5,-8,-4,-3,3,2
1529288030146145,1,6,12,4,3,-2,3,1
1529288030160467,-2,-11,-6,1,-9,-11,0,-6
1529288030160467,1,-8,-4,3,-3,-5,-2,-1
1529288030169341,1,4,-2,2,2,-3,-1,1
1529288030169341,-8,-3,-8,-5,-4,2,-1,0
1529288030175243,-2,-1,3,-6,4,4,-3,-2
1529288030175243,-3,-5,-1,2,-6,-6,-1,-4
1529288030191239,7,-1,2,2,4,1,0,2
1529288030191239,1,3,-1,0,4,0,-4,4
1529288030198696,-1,-3,-4,-4,-3,7,-5,-1
1529288030198696,-1,-2,-5,-3,-1,-3,-5,-5
1529288030205902,-1,-1,2,5,7,-3,0,-2
1529288030205902,-4,0,4,-7,-5,-3,-1,-2
1529288030220828,-3,0,3,3,-2,-1,0,0
1529288030220828,-1,1,2,2,-3,2,1,0
1529288030229222,-2,-1,-5,2,-8,1,2,-5
1529288030229222,0,-3,-2,6,9,5,0,-7
1529288030236240,4,5,-4,0,-8,0,0,-6
1529288030236240,3,2,3,-3,0,0,1,-3
1529288030251381,-7,-4,-2,-7,-7,-2,3,-2
1529288030251381,-1,7,3,-1,6,-1,6,1
1529288030258361,-5,-10,-7,-10,3,2,-1,6
1529288030258361,4,0,9,8,9,6,-4,5
1529288030266161,5,1,0,-3,-1,-3,-5,2
1529288030266161,0,2,1,0,6,-4,-3,0
1529288030280511,-3,2,1,0,-6,-8,-2,1
1529288030280511,-1,2,-4,3,-6,-3,-4,0
1529288030289590,1,-9,-5,2,-7,6,-4,-4
1529288030289590,4,-3,-4,1,-9,3,-2,-3
1529288030303795,-3,1,3,4,3,-4,1,-2
1529288030303795,1,6,9,-2,-1,-2,4,2
1529288030311564,-4,-3,-5,-5,4,-3,-3,1
1529288030311564,-2,-3,-10,-10,-4,-1,3,0
1529288030326524,-3,-1,4,-3,-1,-6,0,-3
1529288030326524,6,8,-3,-1,0,-1,2,0
1529288030327521,-1,2,5,0,-3,0,2,-2
1529288030327521,1,3,6,1,7,4,-2,-2
1529288030340798,0,-7,-8,-5,-3,-4,-7,-3
1529288030340798,-3,-9,-6,0,2,1,-3,-4
1529288030348653,3,0,-8,-1,1,0,-1,4
1529288030348653,-3,-1,2,5,-1,1,0,7
1529288030362866,-1,3,-1,2,-5,0,0,3
1529288030362866,-6,-2,-1,-3,-2,0,3,-1
1529288030370843,0,1,0,2,4,4,1,-2
1529288030370843,-5,-10,-8,0,-1,0,0,1
1529288030386445,-3,1,0,10,1,-4,2,-5
1529288030386445,0,-1,-7,-8,0,-3,-2,-3
1529288030386445,1,3,2,0,-6,-2,-6,-3
1529288030386445,6,-3,3,-3,0,0,-3,-1
1529288030400722,4,-4,4,-7,0,1,3,3
1529288030400722,4,5,4,0,2,2,6,3
1529288030408437,0,5,7,1,2,-7,4,-4
1529288030408437,-3,-1,-4,-6,-5,-6,-2,-3
1529288030423348,2,-3,-8,-9,-1,2,-2,-2
1529288030423348,-6,-7,-8,-3,1,5,0,-1
1529288030431371,-1,3,6,4,1,3,1,0
1529288030431371,-6,-6,-2,6,0,-2,-2,-3
1529288030446320,2,7,6,2,3,0,3,1
1529288030446320,-3,1,-2,3,-6,-10,-3,1
1529288030447316,0,4,-5,0,5,0,-2,3
1529288030447316,-2,-1,-7,-1,-7,-4,-4,-2
1529288030460297,3,3,-1,-1,3,8,1,1
1529288030460297,3,5,5,3,3,5,0,-1
1529288030468276,3,-2,1,0,-2,4,-5,0
1529288030468276,1,-4,1,-15,-6,-4,0,-2
1529288030483232,-4,0,-4,-2,-7,-11,-3,-4
1529288030483232,-2,-1,-6,1,3,-5,-1,0
1529288030491211,-1,-2,0,3,2,-3,2,-2
1529288030491211,2,0,-2,6,3,-1,2,6
1529288030506171,-2,-5,0,-2,0,-2,2,2
1529288030506171,-4,1,3,-8,-3,0,4,-1
1529288030507123,0,-3,-4,-4,-3,0,-3,-2
1529288030507123,-2,-1,0,3,6,7,-3,-1
1529288030520088,2,2,5,3,1,4,-6,-2
1529288030520088,1,-5,-2,1,-1,2,-2,-1
1529288030529106,-4,-11,-5,-8,-8,0,6,-7
1529288030529106,3,1,2,4,-2,-5,-2,-2
1529288030543027,-2,3,-4,-2,1,-1,0,5
1529288030543027,-2,2,-2,-1,-2,-3,-7,1
1529288030551051,0,0,0,-4,-6,3,-6,4
1529288030551051,-1,-11,-2,1,-8,0,1,-4
1529288030566011,1,-2,5,4,8,1,2,0
1529288030566011,0,2,2,2,2,-4,0,2
1529288030566962,-4,4,-2,0,-1,-7,3,4
1529288030566962,-3,0,-4,-5,-1,2,0,-1
1529288030580971,2,-1,-7,-4,-9,-1,0,-2
1529288030580971,-2,-2,-3,-1,-5,-2,4,-7
1529288030588906,1,-1,0,0,3,-4,0,-6
1529288030588906,-1,8,2,-2,3,-5,6,-1
1529288030602867,-2,-2,1,6,7,-1,-4,3
1529288030602867,1,-7,-4,-4,-3,5,2,2
1529288030618825,0,1,1,1,-4,0,-1,-1
1529288030618825,-1,-1,4,-3,-1,-1,-2,-2
1529288030625805,-5,-4,-6,-9,-1,-6,-6,-5
1529288030625805,-2,1,4,0,-3,-4,-6,2
1529288030626803,-3,-3,-2,0,0,-3,-3,0
1529288030626803,0,3,4,7,10,0,5,2
1529288030640801,-4,0,2,0,-7,1,2,0
1529288030640801,1,-4,-1,0,1,3,-4,-3
1529288030648771,2,-3,-3,-5,-1,4,1,3
1529288030648771,4,-1,1,-7,-1,-3,1,4
1529288030662745,1,-7,-2,-4,-6,-2,2,-4
1529288030662745,-4,-5,-8,0,0,-1,0,0
1529288030671690,-4,5,0,3,-3,-1,-5,0
1529288030671690,1,6,6,2,3,3,-7,-1
1529288030685683,5,5,2,-1,2,1,-3,-1
1529288030685683,4,-1,-1,-3,0,4,3,-3
1529288030686678,3,-6,-3,-1,4,-2,4,-4
1529288030686678,2,-13,-11,-2,-1,-1,0,-2
1529288030700643,4,4,6,3,-5,-1,1,-1
1529288030700643,-5,-2,-5,-2,-6,1,-2,1
1529288030708622,-3,1,-2,-2,2,0,-3,1
1529288030708622,0,8,-3,-5,2,2,0,0
1529288030723544,-2,-3,4,3,1,-7,1,2
1529288030723544,0,0,2,7,2,-7,3,0
1529288030731523,4,-3,3,-4,-2,-2,2,-5
1529288030731523,-3,-4,2,1,-6,1,0,-2
1529288030746482,-1,1,-14,-10,-12,-1,-2,1
1529288030746482,-1,3,10,-2,-1,1,0,0
1529288030746482,-2,-5,-1,7,2,-1,-3,-1
1529288030746482,-4,-5,-4,2,6,1,1,-3
1529288030760495,-6,-4,-7,-9,0,0,-2,-2
1529288030760495,-4,-7,-7,-7,-2,-6,-4,1
1529288030768660,2,2,-2,-4,-12,-5,3,0
1529288030768660,4,3,5,4,6,3,0,-2
1529288030783609,1,-2,1,5,-3,-2,-3,-6
1529288030783609,5,0,1,1,0,0,-1,-3
1529288030791563,-6,1,4,-3,3,3,-2,-3
1529288030791563,-9,0,-1,-9,-7,-5,2,5
1529288030806703,-9,1,-1,7,9,-5,-2,3
1529288030806703,-5,-1,-9,-4,2,-3,0,0
1529288030807602,8,-1,-4,6,6,2,0,-2
1529288030807602,4,-3,-7,-1,-2,-2,-2,-5
1529288030820485,6,6,8,2,4,2,-3,1
1529288030820485,0,3,2,-1,-12,-4,0,2
1529288030828883,-4,1,1,4,9,6,2,1
1529288030828883,0,-1,5,0,-3,1,-4,-2
1529288030843077,-3,-3,-4,-5,-8,-4,2,0
1529288030843077,-2,-1,1,3,5,1,0,4
1529288030851917,0,2,-2,-11,-8,1,-3,1
1529288030851917,2,-9,0,1,-6,-3,-2,-1
1529288030865995,-4,-5,-2,1,4,1,-1,-4
1529288030865995,-1,-3,-1,-2,-5,-2,3,-3
1529288030873974,3,1,0,4,4,-3,6,3
1529288030873974,-2,-1,-3,1,6,0,5,-1
1529288030880796,2,6,4,3,-3,3,4,1
1529288030880796,-2,3,-5,-3,0,2,-5,-1
1529288030889000,-4,2,-5,-2,0,-5,-6,2
1529288030889000,1,7,0,-3,-3,-1,-2,0
1529288030902940,0,-4,-1,-4,-6,0,-1,-2
1529288030902940,-3,0,2,-5,-2,1,-1,-7
1529288030911898,-1,-5,-2,-5,-2,-7,-4,-4
1529288030911898,3,-5,-3,3,-7,-8,-3,0
1529288030926041,0,-4,0,1,1,-2,-1,3
1529288030926041,1,-1,6,5,1,1,-5,-5
1529288030934874,0,-4,4,0,4,4,0,2
1529288030934874,0,1,2,0,3,2,2,6
1529288030940820,5,-4,-5,-1,-5,4,0,5
1529288030940820,2,-2,-4,1,2,1,1,3
1529288030955780,-4,-2,0,4,-2,2,-2,3
1529288030955780,-9,-2,1,-2,-3,2,-1,-1
1529288030962762,-3,-2,-3,-1,3,0,2,-1
1529288030962762,1,2,-5,0,2,-4,2,-2
1529288030972749,2,4,-1,-2,0,-3,1,-5
1529288030972749,3,4,-1,-2,2,-3,0,-2
1529288030986237,-1,-2,0,-4,0,-5,-5,-5
1529288030986237,-5,-3,3,0,1,2,-2,-2
1529288030994874,-2,0,4,1,-6,1,-5,0
1529288030994874,0,-2,3,4,-5,-1,-2,3
1529288031000890,-5,-3,-1,-4,-1,-5,-2,-3
1529288031000890,2,-6,1,-3,-2,-4,0,-6
1529288031015851,3,4,-3,0,4,-4,1,-3
1529288031015851,3,5,-3,-3,2,3,1,2
1529288031022798,4,0,-4,-3,-1,3,-1,2
1529288031022798,0,1,-3,-1,0,1,1,4
1529288031032054,1,-6,-2,1,-8,3,-2,-3
1529288031032054,-3,-4,1,3,-1,5,-3,-3
1529288031045019,-4,1,1,1,2,-1,1,-3
1529288031045019,-2,1,2,4,3,-5,0,-2
1529288031055040,-4,2,2,0,0,-6,2,2
1529288031055040,-3,4,-1,-3,3,-1,1,-1
1529288031068958,2,-2,-2,-3,0,5,0,2
1529288031068958,0,0,-3,-5,-7,6,2,1
1529288031075939,-1,-6,-1,-3,-4,-2,-2,0
1529288031075939,2,-3,3,0,0,-9,-8,-2
1529288031082917,0,-1,2,-3,3,-5,0,2
1529288031082917,4,2,0,3,1,-2,1,-1
1529288031091893,-1,0,1,1,-4,1,1,-6
1529288031091893,-3,1,0,-1,-4,2,1,-3
1529288031105856,-3,-3,-5,6,-5,-3,1,1
1529288031105856,0,-2,-5,2,2,-4,0,6
1529288031114833,-6,-1,-5,-1,2,3,4,3
1529288031114833,-4,-4,0,-5,-3,1,-1,2
1529288031129048,-2,-4,2,-1,-4,0,-4,-7
1529288031129048,-2,-6,-1,1,-2,0,-6,-3
1529288031136187,-2,1,-4,-1,1,-2,-2,2
1529288031136187,2,1,-1,-4,3,-3,2,7
1529288031143010,0,3,3,-4,-3,0,0,3
1529288031143010,-4,-3,3,0,-5,-3,0,-4
1529288031152021,2,2,2,0,-3,1,-3,-3
1529288031152021,0,3,-3,0,-2,2,1,-2
1529288031165949,-1,2,-7,-3,2,-1,1,-5
1529288031165949,-2,-3,3,-3,3,-1,-2,0
1529288031175161,0,0,1,0,0,-3,-4,-3
1529288031175161,-1,3,-2,7,0,-2,-5,-3
1529288031188887,3,-2,-4,3,-2,1,-2,-3
1529288031188887,3,-3,-4,-3,0,0,0,-4
1529288031195871,3,-8,-1,-3,-2,2,5,1
1529288031195871,-1,-7,1,1,-1,0,3,-4
1529288031202853,0,-4,-1,0,-1,2,1,0
1529288031202853,0,3,1,1,-5,-3,-3,2
1529288031211826,1,-3,2,-1,-2,-3,-4,5
1529288031211826,0,-1,-3,1,0,-2,-2,0
1529288031225789,-4,5,-2,0,-1,-4,0,0
1529288031225789,-1,0,-1,-4,-1,0,-3,1
1529288031234801,-2,4,-2,-3,4,0,-2,-6
1529288031234801,0,2,1,-4,2,-2,-2,-6
1529288031250045,1,-3,4,-2,-1,0,-1,-9
1529288031250045,3,-1,1,1,2,-1,2,-2
1529288031252068,-1,-3,-4,0,0,-1,6,4
1529288031252068,-5,-5,-4,1,-1,-2,4,2
1529288031263045,-3,1,-1,2,-1,0,-1,2
1529288031263045,-1,0,1,0,1,0,0,0
1529288031272018,1,1,3,0,1,-1,-2,2
1529288031272018,2,3,1,-6,-4,-1,1,4
1529288031286145,-2,-1,-2,-4,-7,1,-6,4
1529288031286145,-4,-1,-7,1,-2,-1,-3,0
1529288031294960,-2,2,-4,1,-1,-1,-1,-3
1529288031294960,0,-4,-5,3,0,-4,-1,-3
1529288031309920,-1,1,-4,1,2,-5,-1,1
1529288031309920,-4,0,-1,-2,-2,0,-1,1
1529288031310914,4,3,-2,-3,-3,-2,-1,3
1529288031310914,7,1,4,-4,-7,1,1,2
1529288031322884,6,0,2,-1,-1,4,1,-2
1529288031322884,1,-1,0,3,-2,-1,0,2
1529288031331859,-5,-4,-1,2,-6,-2,0,-3
1529288031331859,-14,0,-1,-1,-6,1,1,-6
1529288031345824,-7,-4,-1,-2,-3,3,2,-2
1529288031345824,2,-5,0,-3,2,3,-1,-4
1529288031354798,-1,-6,1,2,6,0,-4,-7
1529288031354798,1,-6,-5,-1,5,-3,-5,-3
1529288031369166,-4,1,0,-3,6,-4,1,1
1529288031369166,-3,7,2,-1,5,0,3,2
1529288031370974,5,1,1,0,4,1,4,4
1529288031370974,4,4,0,2,5,1,4,2
1529288031382978,4,5,1,6,2,-2,-2,-1
1529288031382978,3,1,-2,-2,-2,0,0,2
1529288031399896,-3,-2,-1,-1,-1,0,-3,4
1529288031399896,-4,3,2,-4,1,0,-5,5
1529288031405919,1,-3,0,-4,-1,-2,-4,3
1529288031405919,-1,-1,0,0,-2,-4,-1,1
1529288031415033,3,0,-3,-1,-2,-6,6,-2
1529288031415033,9,-2,-2,-1,-1,1,5,3
1529288031429819,13,-2,-1,2,0,0,0,7
1529288031429819,0,-2,0,2,-3,1,-1,2
1529288031430813,-2,1,4,2,-5,0,-8,3
1529288031430813,-3,-1,6,-1,0,3,-5,-3
1529288031451757,-4,0,-1,-6,0,5,0,-10
1529288031451757,-7,-7,-3,-3,-4,0,-1,-4
1529288031453752,-4,-4,-6,0,-1,-2,0,0
1529288031453752,-4,-3,-3,-2,2,-4,-1,3
1529288031465722,-6,-4,-1,-3,-1,-6,-4,1
1529288031465722,0,-1,-1,-3,2,-3,-4,-4
1529288031474999,-4,1,-2,-4,-4,-1,0,-5
1529288031474999,2,1,0,4,-3,-1,0,-3
1529288031489195,-2,-2,1,-2,1,3,6,-4
1529288031489195,3,3,0,0,-3,1,3,-1
1529288031491031,3,3,-2,0,0,-2,1,-4
1529288031491031,-1,-5,2,1,0,-2,1,-2
1529288031503002,-4,0,1,5,-4,-6,0,-1
1529288031503002,-3,-3,0,-2,1,-3,0,0
1529288031512252,-2,2,-2,-3,-2,-2,-2,1
1529288031512252,-2,-2,-4,0,-2,-1,0,2
1529288031534821,-3,-3,-2,-1,-1,-2,-7,1
1529288031534821,-3,-5,-1,1,2,0,-4,2
1529288031536666,-1,0,1,-1,1,-2,2,3
1529288031536666,2,1,-4,1,-2,-1,1,-3
1529288031549606,6,-3,-5,1,-3,5,-2,-1
1529288031549606,5,-2,-5,1,-1,4,-3,2
1529288031550879,2,0,0,-1,-3,1,-7,-2
1529288031550879,-4,8,2,2,-5,-1,-3,-6
1529288031563689,-7,6,-1,-2,2,2,1,-7
1529288031563689,-5,2,-2,-4,2,-2,3,-5
1529288031572759,-2,-2,2,-1,2,-4,-2,1
1529288031572759,-1,-3,4,-1,-1,-4,-1,1
1529288031585847,1,-2,0,0,0,-5,2,-2
1529288031585847,1,1,0,-2,-1,2,3,-4
1529288031594651,2,-1,-4,1,0,5,0,-2
1529288031594651,2,-5,-5,5,-3,2,-2,0
1529288031609644,-2,-1,1,0,0,0,2,5
1529288031609644,-2,0,1,-3,-2,-6,-1,5
1529288031610640,0,-1,-6,-4,-2,-2,-2,2
1529288031610640,1,-3,-3,-1,-1,0,-4,1
1529288031622612,4,-5,0,0,0,0,0,1
1529288031622612,-1,1,-1,-1,-1,0,2,0
1529288031631600,-3,-3,-1,-1,0,-1,1,1
1529288031631600,-1,0,-1,-5,-1,0,-5,-5
1529288031645514,-1,-2,-4,-1,0,-1,-3,-4
1529288031645514,-5,-1,0,-2,2,-2,1,-3
1529288031654494,-2,-2,0,-2,4,-4,3,-2
1529288031654494,1,2,0,-2,2,-2,5,6
1529288031669450,2,2,0,1,-2,0,2,1
1529288031669450,4,1,1,-2,-2,4,-4,2
1529288031671446,-8,2,4,-4,-5,3,-5,3
1529288031671446,-7,-3,0,-1,-2,-5,2,0
1529288031683413,-3,-1,2,-2,-6,-3,-1,-2
1529288031683413,-3,1,-5,5,-7,-4,-4,-10
1529288031692389,1,-1,0,3,3,-3,-6,-5
1529288031692389,-1,-5,3,0,3,-1,-6,0
1529288031705355,-3,2,0,-1,1,-4,2,0
1529288031705355,0,1,-1,-1,0,-2,2,0
1529288031714330,-7,0,-6,1,-1,0,-3,-6
1529288031714330,-8,4,-2,-1,-3,0,-5,-1
1529288031729290,-10,-1,0,0,-1,-1,-7,4
1529288031729290,-5,1,4,-1,-3,-1,1,3
1529288031731286,-3,1,4,-3,-3,-2,6,3
1529288031731286,0,-5,-2,0,0,2,5,-3
1529288031743432,3,-4,-3,-5,0,1,2,-3
1529288031743432,7,-6,-8,-1,2,-7,-2,4
1529288031752411,7,-5,-5,-2,0,-2,0,1
1529288031752411,9,-1,-2,-1,0,6,3,3
1529288031766037,15,2,3,0,-1,5,2,6
1529288031766037,10,3,3,2,1,3,-2,8
1529288031775107,10,2,2,3,3,-1,1,3
1529288031775107,4,4,0,0,4,-1,-1,-3
1529288031789326,5,5,-3,0,2,2,-2,-5
1529288031789326,3,-2,-1,-4,2,7,4,-1
1529288031795963,6,-1,-5,-4,-1,2,3,0
1529288031795963,5,-1,-3,0,0,-3,3,-2
1529288031803111,2,-6,-3,0,3,-1,2,-3
1529288031803111,-4,-6,0,4,2,4,1,-6
1529288031812141,-9,1,1,2,-7,6,4,0
1529288031812141,-10,1,1,-1,-3,-1,3,-2
1529288031825107,-11,0,-1,-2,0,-7,1,0
1529288031825107,-7,2,1,-2,2,-5,-5,-6
1529288031842060,-7,-5,0,0,2,1,-4,-2
1529288031842060,-5,-4,-4,-1,-2,0,-5,1
1529288031849219,0,-3,-4,-2,-4,-6,0,-1
1529288031849219,1,-4,0,-2,0,-3,-1,-3
1529288031856199,3,-2,0,1,0,-2,-3,-8
1529288031856199,0,0,0,1,-5,0,-5,-5
1529288031863365,-6,3,4,-3,-5,2,-1,0
1529288031863365,-3,5,3,-4,-4,-4,3,3
1529288031872160,-3,8,5,0,-3,-3,2,2
1529288031872160,-2,-1,2,-3,0,2,2,1
1529288031885538,-5,0,-1,0,4,2,-5,1
1529288031885538,-3,-7,-4,0,2,3,-4,-3
1529288031894518,-2,-6,-6,-2,0,-2,-1,2
1529288031894518,2,-1,-3,-2,1,-5,-3,4
1529288031908485,1,-3,0,1,-3,-1,-2,1
1529288031908485,-1,-4,0,1,-3,-1,-3,1
1529288031916040,-3,-5,-1,0,1,-2,-1,-2
1529288031916040,-4,0,0,-1,2,0,1,2
1529288031923025,-2,2,-4,0,2,-2,-3,-1
1529288031923025,0,1,-1,2,-2,-1,0,0
1529288031932001,1,1,1,-1,-5,1,2,-3
1529288031932001,-1,1,2,-1,-5,-1,1,-2
1529288031946131,-1,-2,-1,-2,-4,1,1,-1
1529288031946131,-2,-1,-2,-4,3,-1,2,-5
1529288031962089,0,-6,-2,-8,6,3,-2,-2
1529288031962089,0,-4,-1,-5,1,1,0,-3
1529288031969236,-3,-1,-3,0,-4,-5,2,-1
1529288031969236,1,3,-5,7,-8,-5,1,6
1529288031976211,0,1,1,4,-3,-2,-6,1
1529288031976211,1,2,2,3,-1,0,-9,0
1529288031992479,2,-2,3,2,0,-1,-8,-2
1529288031992479,2,1,2,-2,6,-1,1,-1
1529288031994214,1,5,2,-4,2,-1,1,5
1529288031994214,-3,1,-1,-1,5,4,5,3
1529288032005141,-6,4,0,-2,5,3,-1,1
1529288032005141,-4,3,-4,0,-1,1,-5,-4
1529288032014319,-2,-2,-3,-1,-7,-1,-5,-8
1529288032014319,-2,-8,-3,1,-4,-3,-1,-7
1529288032028464,-2,-5,-2,-2,1,-3,5,-3
1529288032028464,-1,1,-4,0,4,-3,2,0
1529288032035611,5,2,-6,-2,2,1,-1,2
1529288032035611,5,0,-1,-2,-3,1,-4,-2
1529288032052400,3,-4,-1,4,-1,2,0,0
1529288032052400,2,-2,0,-1,-2,2,-2,4
1529288032053397,1,1,-2,2,-1,-2,3,-1
1529288032053397,-2,4,-3,-1,-2,1,6,0
1529288032065366,1,1,1,-2,-4,-1,0,-2
1529288032065366,1,0,3,1,-5,2,1,-2
1529288032074574,2,0,-2,1,-1,5,0,1
1529288032074574,-2,0,-3,-5,4,1,-5,2
1529288032088715,2,-1,-3,-4,4,-1,-5,0
1529288032088715,3,-3,0,0,-1,-2,-2,-1
1529288032095551,2,-4,4,0,-4,1,-2,-7
1529288032095551,4,1,0,2,-3,-1,1,-6
1529288032111747,-1,-1,-2,0,-2,2,4,-4
1529288032111747,-3,-3,3,0,0,-3,3,2
1529288032113742,-4,-5,0,-2,0,0,2,3
1529288032113742,1,-1,-3,-3,4,-2,0,1
1529288032125712,4,2,-2,-1,4,-3,0,2
1529288032125712,-1,-2,-2,0,1,1,-1,-4
1529288032134685,-1,-1,-5,-8,-1,-1,4,2
1529288032134685,-2,-4,-2,-1,-2,-2,5,3
1529288032148675,-3,1,0,3,-5,1,-1,4
1529288032148675,-3,4,0,1,0,1,-2,2
1529288032155810,-3,2,3,4,2,-5,-3,-3
1529288032155810,-1,-3,-3,-5,-2,-6,-4,-3
1529288032171626,-3,-7,-7,-2,0,2,4,-6
1529288032171626,0,-5,3,1,0,2,-2,-6
1529288032173581,1,-2,3,1,-3,1,-3,2
1529288032173581,-3,3,1,-1,-5,-3,-3,3
1529288032185549,-2,1,2,2,-4,-6,-3,2
1529288032185549,-1,-4,-6,-4,-3,1,1,-2
1529288032194525,1,-4,-3,0,1,3,2,-2
1529288032194525,-1,0,-2,3,-1,3,-1,-1
1529288032208668,-1,4,-3,0,-1,3,0,-2
1529288032208668,1,4,-3,-1,2,-2,-2,0
1529288032215652,-2,1,-3,-1,1,-4,-1,1
1529288032215652,4,2,2,-1,1,-1,-3,-2
1529288032231426,-2,2,4,-2,-5,-5,-1,-2
1529288032231426,-3,0,0,-3,0,-3,0,5
1529288032233421,-6,-1,2,-1,4,-3,1,2
1529288032233421,-3,-2,3,-4,-1,2,1,3
1529288032245390,-3,1,-2,-4,2,5,-2,-4
1529288032245390,1,-2,-2,-2,-4,-1,-3,-5
1529288032254366,-2,0,0,3,-4,-2,-4,-5
1529288032254366,0,-4,0,4,3,1,-4,-5
1529288032269727,1,-5,3,1,3,-3,-2,-5
1529288032269727,-3,1,-2,1,6,-2,2,-4
1529288032277304,3,1,-4,-1,4,-7,2,-1
1529288032277304,3,1,-1,-2,-1,-4,4,2
1529288032292264,-1,-4,0,1,-4,1,1,0
1529288032292264,-1,1,-3,-3,-8,0,1,-1
1529288032293261,1,1,4,0,-5,0,-1,-2
1529288032293261,-2,-1,2,1,0,-4,-2,1
