timestamp,emg1,emg2,emg3,emg4,emg5,emg6,emg7,emg8
1529306294899307,0,0,2,-1,-1,-2,-3,0
1529306294899307,-2,-4,-4,-1,0,-1,-2,0
1529306294901301,0,-1,0,-1,-1,-1,-1,0
1529306294901301,-4,-3,0,-3,-3,-1,-1,-1
1529306294901301,1,3,-3,-1,0,-2,0,-2
1529306294901301,1,3,0,0,-3,1,1,0
1529306294904295,-3,-6,-2,0,0,1,0,-6
1529306294904295,3,6,6,3,1,0,-2,2
1529306294912278,0,2,2,1,3,2,5,8
1529306294912278,2,2,1,0,-1,-1,0,0
1529306294921249,1,4,-2,-1,-1,-2,0,-2
1529306294921249,-3,-8,-8,-2,-3,0,0,-1
1529306294927233,3,0,-1,-1,-2,-2,-1,-2
1529306294927233,-7,-6,-5,0,1,-1,-5,-14
1529306294941194,2,8,6,0,-2,1,1,15
1529306294941194,2,-2,-1,1,0,-1,-1,-2
1529306294950171,-4,-5,-7,-3,-1,0,-1,0
1529306294950171,-3,-5,2,5,1,2,0,-2
1529306294958174,1,-3,-5,-5,-2,2,-2,-1
1529306294958174,-1,5,0,0,-2,-3,-1,0
1529306294972112,-1,1,-1,-1,-1,-1,-3,-3
1529306294972112,-6,-7,-6,-6,-2,-3,-2,-1
1529306294981089,1,10,6,4,2,-1,-1,-5
1529306294981089,3,0,-1,-2,-1,2,2,0
1529306295019984,3,1,0,2,3,1,2,3
1529306295019984,-2,-2,-1,-3,-3,-2,1,-1
1529306295020982,-9,-13,-9,-4,-2,-3,-1,-4
1529306295020982,0,5,7,0,0,0,1,-2
1529306295021979,6,4,3,0,-2,-2,0,7
1529306295021979,3,-3,3,7,5,2,1,2
1529306295023975,1,4,3,-3,-2,-1,0,-1
1529306295023975,-2,-1,-1,2,1,2,-1,-1
1529306295031954,-3,4,7,4,0,0,-3,-6
1529306295031954,-4,-5,-6,-6,-4,-2,-3,-1
1529306295038935,0,-2,1,0,-1,0,-2,1
1529306295038935,1,0,1,3,2,-1,-1,0
1529306295045915,-2,0,-1,-3,-3,-2,-2,-5
1529306295045915,0,-1,-2,-2,-2,-2,-1,-2
1529306295062869,-3,-3,1,2,1,2,-1,-3
1529306295062869,4,1,-5,-7,-5,-1,1,2
1529306295068854,1,5,5,8,7,2,3,2
1529306295068854,-4,-3,-2,-2,0,-3,-1,0
1529306295077829,2,4,3,1,-2,-1,-1,0
1529306295077829,-3,-7,-4,-1,2,1,0,-1
1529306295091791,-1,-5,-6,-10,-8,-3,-2,-1
1529306295091791,1,1,-2,1,1,1,-1,0
1529306295098773,0,2,2,1,1,0,-3,0
1529306295098773,-2,-1,1,3,0,2,-1,0
1529306295107749,-1,-4,-3,-3,0,0,-2,-1
1529306295107749,3,3,-1,-4,-5,-4,-3,0
1529306295120716,-2,-3,-3,-8,-9,-8,-2,-2
1529306295120716,-1,1,1,12,12,3,0,0
1529306295128694,-3,-4,-2,-2,-4,-3,-2,-1
1529306295128694,-1,-1,0,1,6,2,-3,-6
1529306295137670,3,-2,-5,-2,-1,-3,-1,5
1529306295137670,2,3,6,-2,-2,1,1,-1
1529306295151633,-2,-2,-5,-6,-12,-6,-3,-1
1529306295151633,-1,1,0,0,-3,1,2,-2
1529306295158613,0,-1,-1,5,6,3,2,-2
1529306295158613,-3,-2,-2,-4,-4,-3,-3,0
1529306295165597,-2,-3,-4,1,2,-1,-2,-1
1529306295165597,-3,-2,2,-1,-2,-2,-2,0
1529306295180556,-4,-3,-2,-2,0,-1,2,-2
1529306295180556,1,1,-1,1,-5,-7,-2,-1
1529306295188532,-1,3,3,0,2,3,2,1
1529306295188532,-3,-5,-4,-9,-8,-2,-2,-3
1529306295197510,2,0,3,9,11,3,1,3
1529306295197510,3,-2,-3,-6,-3,-2,1,1
1529306295211472,-3,-3,-1,1,-2,-7,-3,-4
1529306295211472,-5,-5,0,0,3,8,3,1
1529306295218454,-4,-1,-2,-5,-12,-6,-7,-9
1529306295218454,5,1,2,-4,-2,-1,6,13
1529306295226435,-4,-2,-2,3,9,4,-1,-2
1529306295226435,1,1,-1,-1,0,-2,1,3
1529306295241394,-1,0,1,3,4,0,-2,-4
1529306295241394,-3,-3,-4,-3,-7,-1,-1,-4
1529306295248376,-1,-7,-3,-7,-4,2,2,0
1529306295248376,2,6,5,11,3,-4,-3,-3
1529306295257349,0,2,0,-5,-8,-5,-1,1
1529306295257349,-2,-1,-3,-2,4,2,-2,-5
1529306295271311,2,4,3,2,1,3,0,2
1529306295271311,0,2,-1,-5,-3,-2,0,-2
1529306295278294,0,0,0,3,1,-4,-2,-1
1529306295278294,-3,-2,-1,-2,0,0,-1,0
1529306295286271,-1,-2,-4,-3,-1,-1,1,-4
1529306295286271,1,2,2,4,3,0,0,0
1529306295301234,2,2,1,-2,-1,2,0,5
1529306295301234,-2,-2,-3,-3,-5,-3,-3,-5
1529306295308216,0,0,-1,0,4,-1,-3,0
1529306295308216,-7,-10,-7,-3,-5,-4,-3,-5
1529306295317190,11,15,8,3,1,4,4,2
1529306295317190,-1,-2,-1,5,-3,1,0,-1
1529306295332149,-1,0,1,-5,-1,0,-1,-3
1529306295332149,0,-1,-2,-2,1,1,3,6
1529306295338137,-2,-5,-1,1,5,2,2,-3
1529306295338137,-2,-3,-2,-1,-6,-2,-1,-2
1529306295346113,0,0,1,4,1,-3,-2,-3
1529306295346113,-2,2,2,0,-3,-1,-1,3
1529306295361074,1,3,0,-1,-1,2,-1,0
1529306295361074,-3,-1,1,-2,2,0,1,1
1529306295368059,-6,-3,-2,3,2,1,-3,-2
1529306295368059,2,3,4,6,10,2,0,-2
1529306295383014,-2,-4,-1,-3,-4,-1,-1,0
1529306295383014,-4,0,1,1,-3,-8,-7,-6
1529306295391991,2,-2,0,1,-2,1,6,11
1529306295391991,5,8,1,2,-1,-1,-3,-9
1529306295398981,0,-3,-2,-1,3,2,2,10
1529306295398981,-2,-1,-1,-5,-7,-6,-3,-6
1529306295405952,-4,-4,-2,-3,0,1,-2,-2
1529306295405952,-1,0,1,0,-5,-2,0,2
1529306295421038,-1,-3,-3,-3,1,-1,-3,-5
1529306295421038,1,-1,1,2,0,0,-5,-1
1529306295429015,0,-1,-1,-4,-7,-3,0,-1
1529306295429015,1,-1,2,3,4,1,-2,-1
1529306295443976,-2,-2,-4,-4,-1,-1,-1,-5
1529306295443976,0,0,1,4,4,1,1,3
1529306295451953,-1,2,1,2,-3,-2,-2,1
1529306295451953,-1,2,1,0,0,1,-3,-2
1529306295458935,-2,-1,-2,-1,-4,-1,-1,1
1529306295458935,-1,0,-4,-6,0,-1,1,1
1529306295465917,0,-1,1,2,-1,4,-1,-2
1529306295465917,-2,-4,-4,-4,-8,-7,-5,-1
1529306295480877,1,4,4,4,-2,-3,-1,1
1529306295480877,0,0,-2,-3,0,0,-1,-2
1529306295488855,-1,-2,-5,-4,1,1,0,0
1529306295488855,-2,-5,-4,1,-3,-5,1,0
1529306295503816,-3,1,1,2,5,3,1,-4
1529306295503816,-1,4,6,9,4,-2,-1,-2
1529306295511793,-2,-3,-1,-4,-8,-2,-3,-2
1529306295511793,6,2,0,-4,4,5,8,12
1529306295518775,-6,-7,-2,1,-4,-7,-2,-3
1529306295518775,0,-2,-2,-5,-3,-1,-5,-3
1529306295525763,0,-2,1,1,2,1,-2,-4
1529306295525763,0,1,0,0,1,1,4,8
1529306295540717,-3,-9,-1,1,3,2,2,8
1529306295540717,0,7,1,-2,-1,1,-2,-7
1529306295548696,0,-4,-4,-5,-9,-2,6,2
1529306295548696,-6,-3,-3,2,12,2,-7,-19
1529306295563656,0,-3,-3,-7,-5,-4,-3,10
1529306295563656,2,-1,1,3,8,2,1,1
1529306295571635,-1,1,-2,-3,0,0,-3,-4
1529306295571635,0,5,1,-3,-3,1,0,1
1529306295578616,-7,-5,-5,-3,-8,-2,-4,-13
1529306295578616,1,-5,0,3,7,6,7,5
1529306295585597,3,4,3,3,1,-1,3,5
1529306295585597,-2,-3,-3,-5,-6,-4,-3,-1
1529306295600556,0,-3,-3,2,2,-5,-4,-7
1529306295600556,1,7,5,-5,-9,-1,-3,3
1529306295608535,2,-2,-1,1,6,2,0,1
1529306295608535,0,-1,-3,-2,-7,-1,-3,-2
1529306295623496,1,1,-3,-6,-8,-5,0,-2
1529306295623496,-4,-5,-2,2,-5,-3,0,-1
1529306295631474,1,9,6,-3,2,3,0,-1
1529306295631474,0,0,2,5,4,6,1,1
1529306295638456,0,2,0,-6,-6,-4,-1,-1
1529306295638456,-2,-6,-10,-4,2,1,0,0
1529306295654069,4,3,4,7,0,-2,-2,-1
1529306295654069,-1,-5,-7,-9,-6,-4,-1,-2
1529306295677044,4,5,5,4,1,1,2,0
1529306295677044,-4,-3,-5,-3,4,0,-1,-2
1529306295678006,-3,-6,-3,-8,-3,0,-1,-1
1529306295678006,1,0,-1,-1,-6,-5,-1,0
1529306295683037,0,1,-4,4,6,7,2,-1
1529306295683037,0,1,8,2,1,-3,-3,-1
1529306295691969,0,2,4,10,7,-1,-1,0
1529306295691969,-1,-2,2,-3,-7,-2,-1,0
1529306295698950,0,0,-2,-2,10,5,0,-1
1529306295698950,-4,-1,-1,3,-4,-1,-3,1
1529306295713935,-2,1,2,3,3,-5,-5,-3
1529306295713935,0,2,0,-3,-4,-6,-5,-1
1529306295720892,-2,0,2,5,-5,-6,-1,-1
1529306295720892,1,0,2,3,1,4,1,0
1529306295728870,0,-1,-1,-3,-3,-3,-2,-1
1529306295728870,0,0,2,1,1,-3,-2,-2
1529306295743831,2,2,-1,-2,-3,-5,-3,0
1529306295743831,0,-4,-6,-8,-4,-2,0,1
1529306295751809,-3,-1,-1,3,9,2,2,0
1529306295751809,0,2,2,-3,1,0,1,0
1529306295758790,-3,-2,-2,-3,-2,6,2,-1
1529306295758790,-2,-5,-10,-8,-8,-7,-4,-5
1529306295773751,0,0,2,1,2,5,2,1
1529306295773751,-1,-5,-4,-3,5,3,3,0
1529306295780769,-2,1,1,-2,-5,-4,-2,0
1529306295780769,-1,-5,-7,-6,0,-1,0,-1
1529306295788746,-1,-2,-2,-6,-3,-2,-2,-2
1529306295788746,1,0,3,10,3,-1,-2,0
1529306295803671,0,-1,-2,-4,-7,-4,0,-1
1529306295803671,0,3,3,1,0,-3,-3,-3
1529306295811685,-2,-4,-3,-4,-3,-5,-3,1
1529306295811685,-3,-2,-5,-6,-1,0,-2,1
1529306295818649,1,4,9,9,14,6,3,1
1529306295818649,0,-1,-1,-2,-1,-1,0,-1
1529306295834593,1,1,0,-2,-8,-4,-1,-3
1529306295834593,0,1,2,3,-1,-3,-3,2
1529306295840571,-3,-2,-3,-5,-4,-4,-2,-2
1529306295840571,2,1,2,4,6,4,2,-1
1529306295848550,-2,1,0,3,-2,-2,-1,-1
1529306295848550,0,-3,-2,1,0,1,2,4
1529306295863548,1,-2,-2,-3,4,3,1,3
1529306295863548,2,1,2,7,3,0,-3,0
1529306295871488,-9,-12,-5,-5,-8,-4,-2,-8
1529306295871488,1,14,-1,-7,-7,-1,-9,-17
1529306295878503,13,2,4,8,10,7,10,23
1529306295878503,6,7,1,1,-1,4,10,8
1529306295894446,-1,0,1,1,2,0,0,1
1529306295894446,-9,-4,-2,1,2,3,1,-4
1529306295901430,5,5,-1,-5,-5,-1,0,-15
1529306295901430,-1,1,3,2,2,-3,-8,5
1529306295908416,4,2,-1,-1,-1,0,2,4
1529306295908416,-6,-8,0,0,-1,-3,-4,-6
1529306295923350,-1,4,3,3,2,-1,-2,-5
1529306295923350,10,-2,-2,-2,-2,4,7,12
1529306295931329,-5,-2,1,0,2,-1,-2,-6
1529306295931329,-4,-6,0,2,4,-1,-4,-3
1529306295938312,-12,-2,-3,-4,-1,2,1,-1
1529306295938312,0,1,1,1,-3,0,1,-4
1529306295954316,-1,-2,-2,-6,-9,-3,-6,-7
1529306295954316,5,-2,0,-2,-3,-2,8,12
1529306295961504,2,-2,-2,3,5,-1,-1,1
1529306295961504,1,-2,-3,-7,-4,-1,2,6
1529306295968252,-1,1,0,6,6,0,-1,0
1529306295968252,-1,-2,-1,-3,6,4,1,-7
1529306295983437,-7,-5,-1,-4,-16,-8,-12,-12
1529306295983437,-2,-4,-5,-5,-1,-6,-5,-1
1529306295992381,-2,-5,-4,-2,0,3,8,2
1529306295992381,5,6,4,2,-1,-3,-17,-3
1529306296006396,1,2,2,4,5,-2,1,-3
1529306296006396,-9,-11,-7,-11,-3,-2,-2,-5
1529306296014138,-3,-3,2,7,1,-1,-1,-3
1529306296014138,8,7,0,0,0,4,10,14
1529306296029308,-10,-15,-10,-14,-7,-5,-12,-17
1529306296029308,0,13,6,12,4,-3,-7,-2
1529306296030064,6,13,7,7,4,-3,7,15
1529306296030064,-1,-4,-3,-5,-2,8,4,-8
1529306296043521,-4,-1,-1,1,-3,-1,1,2
1529306296043521,3,1,0,-3,6,11,6,5
1529306296052354,-6,-6,-6,-7,-6,-8,-10,-6
1529306296052354,6,7,5,7,13,2,6,5
1529306296066456,-3,-5,-6,-10,-20,-14,-5,-3
1529306296066456,-7,-5,2,4,2,3,-4,-13
1529306296075194,4,4,-3,-3,-1,3,-1,3
1529306296075194,-4,-8,-2,3,3,2,2,1
1529306296088401,-1,2,1,2,2,-3,-4,-7
1529306296088401,1,2,3,2,-8,-3,3,5
1529306296097428,-4,-11,-12,-13,1,1,-2,-5
1529306296097428,4,11,8,13,4,-2,4,6
1529306296103622,-3,0,-1,-5,-4,1,0,0
1529306296103622,-2,-4,-7,-5,-1,-1,-1,-3
1529306296112393,-3,-1,2,3,3,-1,-2,-2
1529306296112393,-4,-7,1,-2,-12,-9,1,0
1529306296126576,8,10,7,12,13,3,4,7
1529306296126576,-1,1,2,3,2,-2,0,-4
1529306296135313,1,0,-5,-5,-5,0,-1,-1
1529306296135313,-1,-4,-5,-7,-7,-4,-3,-6
1529306296148739,1,-5,-2,1,0,4,1,3
1529306296148739,-3,0,3,-1,-2,-3,0,-4
1529306296157718,2,3,0,-1,1,0,1,-1
1529306296157718,-3,-3,-1,-1,-2,-1,-1,1
1529306296163959,-2,-3,-3,0,0,-3,-6,-2
1529306296163959,-1,-3,1,2,4,2,4,-1
1529306296172679,4,5,-3,-9,-3,-1,1,3
1529306296172679,-5,-1,-1,0,1,0,1,-2
1529306296185642,-4,-3,-5,-5,-1,-2,-3,0
1529306296185642,3,0,-1,0,-2,-2,-5,5
1529306296194657,-2,0,1,2,-3,-6,-6,-5
1529306296194657,-1,-6,0,3,-2,1,-2,-4
1529306296208946,3,4,-3,-6,3,7,8,16
1529306296208946,-6,-5,-6,-6,-6,-10,-8,-8
1529306296217571,0,0,0,-4,-3,2,3,3
1529306296217571,0,-1,1,4,4,0,-2,-3
1529306296223847,-1,-4,1,-2,-4,-2,-3,-4
1529306296223847,0,3,0,1,1,-2,-3,0
1529306296232824,2,-2,-3,-2,2,5,4,2
1529306296232824,-2,-2,-3,-5,-3,-1,-4,0
1529306296246882,2,1,4,3,-3,-4,1,0
1529306296246882,0,4,6,2,1,2,2,0
1529306296255254,0,0,1,2,3,-2,0,-1
1529306296255254,-2,-1,-4,-4,-7,-4,-5,-8
1529306296269362,1,1,1,3,3,2,5,9
1529306296269362,-3,-3,-4,-3,2,0,-1,-6
1529306296277681,1,1,2,1,-9,-3,-2,2
1529306296277681,1,-2,-3,0,8,3,3,5
1529306296283703,-3,-1,-1,0,-7,1,-4,-13
1529306296283703,1,-3,-2,-3,-1,-3,2,6
1529306296292945,1,0,-1,-4,-4,-6,-3,-2
1529306296292945,-3,-1,-5,-4,-1,-2,-2,-1
1529306296306172,0,-2,0,1,4,3,2,-1
1529306296306172,-2,-1,-2,1,-5,-6,-5,-5
1529306296314886,-2,-3,1,2,-2,0,-1,-4
1529306296314886,2,1,-3,-5,2,-2,-1,2
1529306296328849,0,4,2,1,4,2,0,-2
1529306296328849,-2,-1,-1,-5,-10,0,1,0
1529306296337826,-1,-4,-1,3,7,1,0,2
1529306296337826,1,0,1,1,-8,-3,0,-1
1529306296343810,1,0,-1,-3,-3,-1,0,4
1529306296343810,1,-2,-2,3,8,1,-1,0
1529306296352798,0,0,-2,-4,-9,-4,-6,-5
1529306296352798,-2,0,0,3,3,3,3,6
1529306296365750,-2,-2,-2,-4,-5,-2,-3,-1
1529306296365750,-4,-4,-4,-1,2,3,1,-3
1529306296374775,1,1,3,4,9,5,3,3
1529306296374775,-2,-1,-4,-7,-9,-4,-1,-2
1529306296388689,1,-3,-5,-4,3,-1,2,2
1529306296388689,-2,1,7,6,-1,2,1,-2
1529306296397665,1,1,-1,2,5,5,1,1
1529306296397665,1,0,2,-2,-1,4,3,-1
1529306296403649,0,2,5,7,6,-1,1,1
1529306296403649,0,-2,-2,0,-4,-5,-2,-3
1529306296412625,0,0,5,7,4,4,0,2
1529306296412625,-1,0,-4,-6,-1,-4,-2,-2
1529306296425590,0,1,1,-1,2,5,2,0
1529306296425590,1,2,5,0,-2,-1,1,0
1529306296434567,-1,-1,1,1,-1,0,-1,-1
1529306296434567,0,0,-2,1,0,-3,-1,-1
1529306296448529,1,-1,-5,-1,1,3,0,3
1529306296448529,-1,0,-2,-3,-5,-3,-4,-1
1529306296457513,-2,-2,-5,-7,-5,-6,-3,0
1529306296457513,-1,-2,4,2,2,0,-1,-1
1529306296463489,3,3,8,14,5,3,5,-1
1529306296463489,1,0,-3,-8,-11,-2,-1,2
1529306296472478,1,-1,-1,-1,1,-2,-1,0
1529306296472478,-1,-2,-1,2,1,1,-3,-5
1529306296486428,0,-1,-4,-9,-4,-6,-1,9
1529306296486428,-5,-1,-4,-3,-2,-2,-5,-8
1529306296501388,0,-2,3,6,4,4,3,5
1529306296501388,-2,1,0,0,-3,-2,-3,-2
1529306296508369,-2,-4,-5,-9,-8,-3,-2,-3
1529306296508369,1,0,-1,-1,6,3,1,-8
1529306296517348,-3,-2,-5,-5,-6,-1,-3,2
1529306296517348,-7,-2,3,8,9,3,2,-10
1529306296523330,1,-3,-4,-5,-5,-1,7,12
1529306296523330,-3,-4,-1,-3,3,1,-4,-12
1529306296532314,9,-1,0,-3,-2,2,16,20
1529306296532314,5,1,0,-1,-1,-7,-9,10
1529306296546268,-3,-8,-5,1,-2,-2,-4,-8
1529306296546268,-5,-4,-1,2,1,1,2,-3
1529306296555244,-4,-9,-7,-6,-5,-4,-2,-16
1529306296555244,8,5,1,-2,-4,-2,3,15
1529306296569207,-1,-2,-1,-3,4,-1,-7,-11
1529306296569207,2,1,1,-2,5,2,1,8
1529306296577184,-1,2,-1,-4,-12,-6,-4,-9
1529306296577184,-5,-3,-3,-4,-4,0,2,-3
1529306296583169,-3,-3,-1,0,-5,-5,-3,-3
1529306296583169,1,1,-1,-3,-3,5,2,0
1529306296592145,-3,0,3,3,5,-3,-5,-9
1529306296592145,-1,-5,-2,-7,-4,0,1,5
1529306296606108,-4,-1,1,4,7,0,0,-4
1529306296606108,0,0,1,6,0,-1,2,2
1529306296615096,-4,1,-1,-5,-4,0,-5,-7
1529306296615096,2,-2,5,12,6,-1,2,0
1529306296628049,-2,-3,-2,-1,-1,1,-6,-13
1529306296628049,-7,1,4,2,2,2,13,26
1529306296638023,1,0,3,3,2,0,-6,-10
1529306296638023,0,0,-6,-9,-4,1,1,2
1529306296643009,0,3,4,2,0,2,4,3
1529306296643009,-3,-6,-8,-6,-7,-6,-5,-10
1529306296651986,3,6,4,4,7,1,-4,-1
1529306296651986,-3,-4,-3,-4,0,-1,3,1
1529306296665995,-1,1,2,2,-5,-3,-3,2
1529306296665995,-1,-1,1,4,-7,-3,-2,-5
1529306296674925,7,4,0,-1,0,0,7,11
1529306296674925,1,1,-1,-4,-3,-3,-4,-6
1529306296689169,1,-2,-3,-3,2,4,1,5
1529306296689169,4,3,3,1,-2,-6,-6,-7
1529306296698125,-4,-7,-5,1,3,4,3,5
1529306296698125,-1,0,1,2,-6,-4,1,-3
1529306296704112,0,2,-1,-2,0,1,1,-1
1529306296704112,2,-4,-3,3,6,-2,-3,1
1529306296713089,-6,-1,-3,-3,-9,-1,-1,-4
1529306296713089,-4,-2,-2,0,2,2,0,3
1529306296725787,2,-2,-2,-4,-3,-1,-2,0
1529306296725787,2,3,1,4,9,1,-5,-4
1529306296734766,4,1,2,0,-3,-1,2,8
1529306296734766,-4,0,-1,2,-1,-3,-2,-7
1529306296748729,-2,0,3,7,5,-1,-2,1
1529306296748729,4,4,0,-4,-7,-3,-4,6
1529306296757702,-3,-3,-3,-6,-3,0,-1,-1
1529306296757702,-3,-1,3,3,2,-1,-4,-6
1529306296764408,6,7,1,6,2,-2,1,2
1529306296764408,-3,-1,2,-4,0,1,-1,-10
1529306296773358,1,1,2,0,1,0,4,15
1529306296773358,-2,-2,0,-2,-8,-4,-6,-9
1529306296786381,-1,-2,-2,0,-1,2,5,15
1529306296786381,0,0,0,-2,-3,1,-1,-6
1529306296795129,1,3,4,5,1,-2,-5,-6
1529306296795129,-1,-1,-3,-1,3,2,1,-3
1529306296808854,-5,-5,-6,-5,1,-3,-8,-8
1529306296808854,4,5,1,3,-3,-1,2,4
1529306296815838,-6,-4,-2,0,3,4,3,0
1529306296815838,3,0,-2,-3,-4,-1,1,0
1529306296833043,0,0,-1,-4,-4,-2,-1,-2
1529306296833043,2,0,1,1,2,2,0,3
1529306296833789,-3,-2,-1,3,3,-3,-7,-10
1529306296833789,0,1,-1,-1,-9,1,3,10
1529306296846617,-1,-3,-5,-14,-4,-2,1,-2
1529306296846617,-4,-3,0,4,3,1,2,4
1529306296855380,0,2,-2,-3,-3,-4,-1,-4
1529306296855380,1,0,1,2,3,2,0,4
1529306296869574,-2,-1,-1,-3,-4,2,1,0
1529306296869574,1,0,-1,-4,-2,-1,2,-1
1529306296876770,1,3,1,1,0,-1,-7,-9
1529306296876770,2,1,0,-3,1,-1,1,7
1529306296892770,1,0,0,2,0,-1,-1,1
1529306296892770,-1,-2,0,-1,4,0,0,3
1529306296894513,-3,-3,-1,-2,-4,2,0,-2
1529306296894513,1,-2,-4,-5,0,-2,0,-5
1529306296906479,0,1,6,9,1,-2,2,-1
1529306296906479,3,-1,-4,-3,3,2,3,0
1529306296915037,-3,-1,-3,-5,-3,-5,-3,0
1529306296915037,-1,0,0,-2,-3,2,-1,-2
1529306296929184,0,2,1,-1,0,-1,-3,-4
1529306296929184,-4,-7,-5,1,-4,-4,-3,-3
1529306296936158,0,2,-1,-3,3,2,1,1
1529306296936158,-5,-3,-1,1,2,0,-2,-5
1529306296953160,-1,4,-1,-2,-2,1,1,3
1529306296953160,-7,-4,-2,0,-2,-1,-7,-8
1529306296954195,5,0,-4,-2,0,0,3,12
1529306296954195,-4,-2,0,1,7,0,-1,-6
1529306296966392,-2,-2,-2,-3,-1,-1,-2,-4
1529306296966392,0,-2,-1,0,-2,0,-1,1
1529306296975100,-2,-5,-1,0,0,0,-2,-1
1529306296975100,7,6,1,-3,-2,-2,-1,-1
1529306296989313,-1,-3,-2,-3,-1,-3,0,-3
1529306296989313,1,5,0,-6,-3,0,2,4
1529306296996353,-2,-4,0,1,0,-2,-3,-2
1529306296996353,-3,-1,-4,-3,0,-1,0,1
1529306297012629,-4,-3,1,3,0,-1,-7,-13
1529306297012629,2,4,0,-4,-3,-1,3,12
1529306297014310,-1,0,1,1,0,0,1,-1
1529306297014310,-1,-6,-3,-1,-2,1,1,0
1529306297026605,1,3,-1,-2,-4,-2,-1,2
1529306297026605,-3,-2,-2,2,4,2,-2,-3
1529306297035254,-1,-1,0,1,-3,-2,-1,2
1529306297035254,-1,3,0,-1,-4,-3,-4,0
1529306297049010,1,-1,1,1,-1,0,-3,0
1529306297049010,0,-1,0,-3,-2,1,0,0
1529306297058089,-2,-3,-3,-2,1,1,2,1
1529306297058089,-1,0,4,4,2,1,-1,-2
1529306297073194,-4,-2,-3,-1,1,0,-3,-4
1529306297073194,4,-1,-1,-1,-2,0,1,4
1529306297074009,1,-1,-2,-1,-1,-1,0,3
1529306297074009,2,0,-1,0,-1,-1,-1,-1
1529306297086343,-2,-1,1,1,2,0,1,2
1529306297086343,-2,-1,-1,-2,-2,-3,-3,-6
1529306297094965,-2,-3,0,-1,-3,-10,-1,-3
1529306297094965,0,0,0,0,0,-9,-1,-1
1529306297110015,-2,-4,1,0,2,-2,3,2
1529306297110015,2,2,-1,-1,0,-3,0,0
1529306297116725,2,3,0,0,-2,3,-2,-1
1529306297116725,-1,0,-1,0,-1,6,0,-1
1529306297132332,1,-5,-2,-1,-1,3,0,-1
1529306297132332,1,4,0,1,-1,4,0,1
1529306297134326,-4,-2,-1,1,-3,3,0,-1
1529306297134326,1,2,0,2,-1,1,-1,-3
1529306297146540,2,4,2,2,2,3,0,3
1529306297146540,1,-2,0,-2,-1,0,1,0
1529306297155269,-2,0,2,0,1,0,-2,-5
1529306297155269,0,-3,0,0,3,2,3,1
1529306297169495,-2,-1,-4,-4,-4,-2,-2,-4
1529306297169495,-7,-16,-6,-2,-2,-3,0,0
1529306297176478,7,18,9,1,-2,0,-1,1
1529306297176478,-2,-4,-1,-2,-1,-2,0,3
1529306297193206,-3,1,-1,-3,-2,-1,-2,-1
1529306297193206,-5,-4,-2,0,-1,-2,0,-5
1529306297194167,-4,-6,-4,0,1,2,1,-5
1529306297194167,-6,-9,-4,-2,1,1,1,2
1529306297206412,9,11,2,4,3,2,2,4
1529306297206412,-2,-2,0,0,0,-1,-4,-6
1529306297215409,0,-4,-2,0,-2,-2,-3,1
1529306297215409,-2,1,0,-1,-1,0,0,-3
1529306297229612,-2,-4,-4,-1,0,-3,-1,-2
1529306297229612,0,-1,0,-2,-1,-2,0,-2
1529306297236593,-7,-9,-5,-1,-1,-1,0,0
1529306297236593,4,10,8,2,0,0,0,1
1529306297252572,5,-3,-1,0,-3,1,2,6
1529306297252572,1,8,3,1,1,-2,-1,-1
1529306297254305,-4,-7,-2,-2,-1,-1,0,-2
1529306297254305,-2,-3,-4,-3,-1,-4,-3,-5
1529306297266534,-1,-2,1,0,0,-2,-3,1
1529306297266534,-2,-1,0,-2,-1,-1,-1,-2
1529306297275249,1,-3,-4,-2,0,-1,0,-1
1529306297275249,1,3,3,1,-1,-1,0,2
1529306297289941,-1,-3,-1,-1,-1,-1,0,4
1529306297289941,0,-2,-3,-3,-2,-3,-2,0
1529306297296581,1,-2,-1,3,2,-3,-1,-2
1529306297296581,1,0,-3,-2,0,0,-1,-3
1529306297312589,0,-2,0,-2,-3,-2,-2,-1
1529306297312589,-1,-2,1,1,-1,0,-1,0
1529306297314817,0,3,-1,-1,-1,-1,-2,2
1529306297314817,-5,-4,-5,-5,-3,0,-1,-3
1529306297326058,-3,-1,-2,-1,0,3,2,-2
1529306297326058,2,2,-1,-1,-1,2,2,0
1529306297334720,0,0,0,-1,-2,-4,-2,-1
1529306297334720,2,1,3,3,1,1,1,0
1529306297349682,-2,1,-2,0,0,-3,0,0
1529306297349682,-2,-7,-4,0,-1,0,0,-1
1529306297356785,2,10,8,6,3,3,3,2
1529306297356785,-5,-8,-7,-5,-3,-1,-3,-1
1529306297372863,-2,-1,0,2,0,-2,-1,-2
1529306297372863,-1,1,-1,0,1,-1,-1,0
1529306297373887,-1,-5,-5,-4,-2,-1,0,1
1529306297373887,2,0,2,2,0,1,1,1
1529306297386139,-1,1,0,-1,-1,1,1,0
1529306297386139,-2,-2,-4,-2,-2,-3,-2,-3
1529306297395281,-1,1,-1,-1,0,3,-2,-2
1529306297395281,-2,-1,-1,-1,0,-2,-2,-2
1529306297409253,-1,-1,-1,-2,-1,1,-1,-2
1529306297409253,-1,3,1,0,0,1,1,1
1529306297416279,1,-3,-2,-1,-1,-2,1,1
1529306297416279,3,1,1,0,-1,-1,-1,0
1529306297433243,-2,-2,0,1,0,-1,-2,-3
1529306297433243,1,3,-1,0,0,1,1,0
1529306297434179,-2,-1,-1,-3,0,0,-2,-1
1529306297434179,-2,0,-2,0,0,-1,1,1
1529306297446835,0,-1,3,-1,2,1,2,-1
1529306297446835,-1,-3,-3,-3,-1,-1,-3,-1
1529306297454915,-2,-2,-1,-4,-2,-1,2,-2
1529306297454915,1,-2,-1,1,1,4,4,3
1529306297469990,1,1,2,1,2,-1,0,1
1529306297469990,2,3,4,5,4,0,0,-2
1529306297476267,2,0,-2,-2,1,1,-2,0
1529306297476267,-2,-2,-2,-2,-2,-1,-1,-3
1529306297493185,-1,1,-1,-1,-1,0,1,0
1529306297493185,0,-2,-1,-2,-4,-1,-2,0
1529306297494875,0,0,1,0,0,0,0,-2
1529306297494875,1,0,0,1,0,-1,2,0
1529306297506269,-2,-2,-2,-1,-2,0,0,-2
1529306297506269,-2,-2,0,-2,-1,-2,-2,1
1529306297515076,-3,-2,1,0,-2,-3,-2,0
1529306297515076,-2,1,0,-2,-2,-2,-3,-2
1529306297530039,-1,-1,-1,-2,0,1,-1,-1
1529306297530039,-1,0,-1,-1,0,-1,-2,-1
1529306297536178,0,-1,-1,1,-1,1,-1,-1
1529306297536178,1,-1,1,0,1,1,-4,0
1529306297552145,-1,-3,0,0,-2,-4,-4,0
1529306297552145,0,0,0,0,-1,0,2,1
1529306297559126,2,0,-2,0,-1,1,0,-1
1529306297559126,-1,-1,0,1,0,0,0,0
1529306297575721,1,-3,-2,0,-1,-2,0,0
1529306297575721,0,0,1,0,-1,0,-1,1
1529306297577060,0,-1,-2,-1,1,-2,0,-1
1529306297577060,0,0,-2,0,-1,0,0,1
1529306297589687,-2,0,-1,0,-1,-2,1,0
1529306297589687,0,0,-1,0,0,-1,1,0
1529306297595938,-1,-2,0,0,-1,1,0,-1
1529306297595938,1,-2,1,-1,-1,0,-1,-3
1529306297612185,-2,0,-1,-2,-2,0,-1,1
1529306297612185,-1,-1,-1,0,0,1,-1,1
1529306297618878,-1,0,0,-1,0,0,0,1
1529306297618878,0,-1,0,-1,-1,-2,-3,-1
1529306297625859,-1,-2,-3,1,0,0,-1,-3
1529306297625859,-3,-1,-1,-1,-2,-4,-2,-3
1529306297634835,0,-2,1,1,0,0,0,0
1529306297634835,-1,-2,-1,-1,1,-1,-1,1
1529306297649975,0,1,-1,-1,-1,0,1,-1
1529306297649975,2,0,0,0,1,-1,-1,-1
1529306297656039,1,-1,-1,0,0,-1,-3,-1
1529306297656039,1,-2,0,0,1,1,0,-2
1529306297672284,-1,-1,-1,-2,0,1,0,-2
1529306297672284,0,-1,0,0,-2,-2,1,0
1529306297678140,0,1,0,-2,0,0,-1,-1
1529306297678140,-1,0,-3,-2,-1,-1,-1,0
1529306297686560,-1,0,-3,-1,-2,-2,-2,-1
1529306297686560,0,-2,0,-1,0,0,1,-2
1529306297695095,-1,1,0,1,-1,1,1,-2
1529306297695095,-1,-2,-1,1,-1,-1,0,1
1529306297709373,-2,-1,0,-1,-1,0,-1,-1
1529306297709373,-1,0,0,1,-1,1,0,1
1529306297716277,0,-2,0,-1,-1,-1,0,-1
1529306297716277,-1,-1,-1,-1,0,1,2,-1
1529306297731998,1,1,1,0,0,2,1,0
1529306297731998,-1,-2,-1,-2,-1,0,1,-1
1529306297739359,-1,-2,-1,-1,0,-1,-1,-1
1529306297739359,-1,0,-1,-2,0,-1,-2,-2
1529306297755670,0,-1,0,-1,0,-2,-2,-2
1529306297755670,0,-1,-2,-2,1,0,-1,-1
1529306297756416,0,-2,0,1,0,1,0,0
1529306297756416,1,1,-1,0,-1,-1,0,0
1529306297769617,-1,1,-2,-1,-1,-1,0,-1
1529306297769617,-1,0,-1,0,0,1,0,-2
1529306297776611,-1,-1,0,-1,-1,-2,-1,1
1529306297776611,-1,0,-1,-1,-1,0,-1,0
1529306297791617,-1,-1,-1,-1,1,1,-1,2
1529306297791617,-1,-2,0,1,-1,-2,-3,1
1529306297798498,-1,-2,-1,-1,0,-1,-1,0
1529306297798498,-1,0,0,-1,0,0,1,0
1529306297815037,-2,-3,-1,0,0,-1,-1,-2
1529306297815037,0,0,-2,-2,1,-1,-2,-1
1529306297816034,-1,-1,-1,-1,-2,-1,-1,-1
1529306297816034,-2,1,0,-2,-2,-1,0,-1
1529306297828999,2,-1,-1,-3,-1,0,0,0
1529306297828999,1,-1,0,-1,0,1,2,1
1529306297836406,-1,1,-1,0,-1,-1,-2,-3
1529306297836406,-1,-1,-2,-1,-1,-1,-2,0
1529306297852003,-2,0,0,-1,-2,0,-3,0
1529306297852003,-1,0,0,-2,-1,0,-1,0
1529306297859224,1,1,0,-1,0,1,-2,0
1529306297859224,0,-2,-2,0,-1,-1,0,0
1529306297875204,1,-2,-1,-2,0,-1,0,-3
1529306297875204,-1,-1,-3,-1,1,-1,-1,-1
1529306297876938,-1,-1,-1,0,-1,-1,-1,0
1529306297876938,0,0,-1,0,-2,-1,0,0
1529306297889946,-1,0,0,0,-1,0,1,0
1529306297889946,0,1,-1,0,-1,0,-1,-3
1529306297896452,-1,-1,1,-1,-1,-1,-1,-1
1529306297896452,-2,-1,-1,-1,1,1,-1,-1
1529306297911762,0,0,1,1,-2,0,3,2
1529306297911762,1,1,1,0,-2,-1,1,-1
1529306297918470,-1,-1,-2,0,-1,-1,-3,0
1529306297918470,-1,1,-1,-2,0,-1,-1,-1
1529306297935594,1,-1,-1,-1,1,0,0,-1
1529306297935594,-2,0,-1,0,-1,-1,1,-1
1529306297936435,-1,0,-1,-2,0,-1,2,-1
1529306297936435,1,1,-1,-1,-1,-2,-2,0
1529306297948701,-1,-3,1,-1,0,-3,-3,-1
1529306297948701,-2,0,0,-1,-2,0,-1,1
1529306297957676,-1,-1,0,-2,-1,-1,-1,1
1529306297957676,-1,-1,-1,-1,-2,0,-1,0
