timestamp,emg1,emg2,emg3,emg4,emg5,emg6,emg7,emg8
1528184950039989,-2,1,-2,-2,-3,-1,-2,0
1528184950039989,-2,0,1,-2,-3,0,-2,-1
1528184950043938,3,0,1,1,1,0,0,1
1528184950043938,-5,-2,1,1,-1,-1,1,-2
1528184950044937,-4,-1,-6,-2,-2,-1,-1,0
1528184950044937,1,1,-1,-2,-1,-2,-1,-2
1528184950046932,0,-1,0,-1,-1,-2,0,-1
1528184950046932,1,-1,0,-2,-2,-2,-3,-3
1528184950049950,8,0,2,1,0,-2,-1,1
1528184950049950,3,-1,-2,-1,-1,-2,-1,-2
1528184950057901,-19,-2,-3,-1,-3,0,-2,0
1528184950057901,-4,-2,-2,-1,-2,1,-3,-1
1528184950074858,4,0,0,-1,0,-1,1,-2
1528184950074858,-1,-1,-2,1,1,-1,-1,-1
1528184950079843,3,1,1,-3,1,-2,-1,-1
1528184950079843,5,-1,-2,0,2,0,0,0
1528184950089816,-7,-2,-1,0,-1,-2,-1,-3
1528184950089816,1,0,2,0,-1,0,1,-1
1528184950110762,-3,-2,-11,-3,-1,-1,0,-1
1528184950110762,-1,0,-2,-3,-2,-1,0,-3
1528184950111757,0,0,1,0,-1,-1,-2,-1
1528184950111757,-5,-3,-1,-2,-2,1,-2,-1
1528184950157635,12,3,-4,0,-2,0,0,3
1528184950157635,3,0,2,-3,0,0,0,0
1528184950158634,-7,-1,0,0,0,-1,-1,-3
1528184950158634,5,-2,-3,-1,0,-2,0,2
1528184950159630,-3,-1,1,-1,-3,-2,-2,0
1528184950159630,-1,-2,-2,0,2,-1,0,-2
1528184950161624,3,1,-2,-1,-2,-1,0,1
1528184950161624,10,1,-2,-2,-1,-1,-2,-3
1528184950169609,-28,-3,0,-1,0,-1,-1,-2
1528184950169609,4,-1,-1,0,0,-1,-1,-2
1528184950176585,0,-3,0,-1,-2,1,-2,0
1528184950176585,-6,-1,1,-1,-2,-3,-2,-2
1528184950184565,6,-1,-7,-2,-1,0,-2,-1
1528184950184565,-6,1,-2,2,-1,0,-2,-3
1528184950199523,-6,-3,-3,-2,-2,-2,-1,-1
1528184950199523,5,-2,4,1,2,0,-1,0
1528184950206504,-9,-3,1,0,-1,0,0,-4
1528184950206504,0,-2,0,-3,-3,-2,-3,2
1528184950230440,3,1,1,2,2,0,0,-3
1528184950230440,-4,0,-5,-2,-2,-1,-1,0
1528184950231438,3,-3,1,1,0,1,-2,-2
1528184950231438,6,0,-2,-2,0,-2,-1,-3
1528184950253379,-8,-2,-2,0,-2,-1,-1,-1
1528184950253379,-4,-2,-2,-1,-2,1,-3,-3
1528184950254377,-1,1,2,-1,0,-1,-1,0
1528184950254377,6,0,-2,1,-1,-1,0,-1
1528184950267343,7,3,0,-2,0,-1,-3,-1
1528184950267343,-17,-4,-2,-4,-2,0,0,-1
1528184950268339,4,1,-1,-2,-1,-3,1,-2
1528184950268339,5,0,2,0,-2,0,1,3
1528184950290280,-2,-4,0,-1,-1,-1,0,0
1528184950290280,-2,-1,1,0,0,-3,-1,-2
1528184950291278,1,-2,-2,-2,0,-3,-2,-1
1528184950291278,-8,-4,-3,-1,-1,-3,-2,-3
1528184950305273,-2,-2,-4,1,-2,-1,-1,0
1528184950305273,0,0,2,1,-2,-1,-1,-1
1528184950306266,0,-2,-2,-2,0,0,-1,-1
1528184950306266,-5,-2,-3,-4,-1,0,-1,-1
1528184950327181,3,0,-4,-2,0,-2,-3,-1
1528184950327181,1,-2,-1,-1,-1,-2,-1,-2
1528184950328179,0,-3,-3,-2,-1,-1,-1,-2
1528184950328179,-4,-2,2,1,0,0,-1,-1
1528184950351123,-1,-2,-2,-2,0,-1,0,-1
1528184950351123,14,0,-7,-3,-3,-2,-2,-1
1528184950351123,-14,-3,-4,-2,-4,-2,-1,-1
1528184950351123,-2,0,-7,-3,-1,0,1,-1
1528184950365080,-3,-4,4,-1,-2,-2,-2,-1
1528184950365080,4,-1,-3,-2,0,0,1,0
1528184950366109,8,6,19,2,0,-2,-1,0
1528184950366109,-3,1,-12,-4,-1,-2,-2,-2
1528184950387021,1,-1,-3,0,-1,-2,-2,-2
1528184950387021,-6,0,0,2,0,-1,-2,0
1528184950388018,5,1,-6,-1,-2,-1,0,-2
1528184950388018,-5,-3,-14,-1,0,0,0,1
1528184950410959,0,4,13,2,-1,-1,0,0
1528184950410959,-2,8,16,-1,0,-1,-2,0
1528184950411965,-4,-6,-13,-4,-2,-1,-2,-2
1528184950411965,4,4,7,-2,-1,0,-1,-1
1528184950424922,-4,-8,-13,3,-3,-2,1,-2
1528184950424922,-5,-2,5,-1,-2,-1,-1,-2
1528184950425920,0,0,2,1,1,0,0,1
1528184950425920,14,1,4,-4,-3,-2,0,3
1528184950447859,-12,2,0,-5,1,1,-1,-3
1528184950447859,-29,-9,-7,-1,-2,-1,0,-3
1528184950447859,5,-1,-7,-2,-1,-1,-1,-1
1528184950447859,-10,-4,-1,1,-2,-1,-2,-4
1528184950470834,1,-1,0,-1,1,0,-1,0
1528184950470834,10,1,0,0,-1,-1,1,1
1528184950471795,-1,-2,-7,0,0,1,-1,-3
1528184950471795,-3,-4,-8,-2,-2,-1,-1,-1
1528184950484761,5,0,5,2,1,-1,-1,-2
1528184950484761,1,2,6,2,0,-1,0,-1
1528184950485758,1,-1,0,-1,-3,0,1,1
1528184950485758,-3,-3,-2,-1,0,1,-1,-1
1528184950507724,0,2,10,4,-3,-2,1,0
1528184950507724,-1,-7,-39,-7,0,1,-2,-2
1528184950508722,0,-1,2,0,4,-1,-1,-1
1528184950508722,-3,2,7,0,-1,-2,-3,-2
1528184950530637,-2,-1,-6,-1,-1,-1,0,0
1528184950530637,1,1,8,3,-3,-3,-2,-2
1528184950531634,-1,2,3,-1,-3,-2,-2,1
1528184950531634,1,-6,-10,2,1,-1,-1,-3
1528184950544602,-2,1,1,-11,-1,0,-1,-1
1528184950544602,1,-1,-2,-4,-3,-4,-3,0
1528184950552581,-1,-4,-6,3,-14,-6,-5,-1
1528184950552581,0,4,0,-5,8,3,3,2
1528184950567565,2,2,1,-5,-6,-1,-4,-2
1528184950567565,1,3,0,2,-8,-8,0,-2
1528184950568537,-7,-15,-33,-5,9,-2,-8,-7
1528184950568537,1,3,37,13,-4,-2,2,3
1528184950590477,2,2,-20,2,16,17,2,3
1528184950590477,-1,1,0,-7,-14,-7,-6,-1
1528184950591475,-1,-6,1,-2,-3,-8,7,2
1528184950591475,-2,8,-1,10,4,23,2,-4
1528184950604440,-5,-26,-43,-7,21,8,2,-3
1528184950604440,1,6,24,-8,-8,-2,-3,0
1528184950612419,8,12,29,6,-17,-22,-14,-2
1528184950612419,-5,-15,-45,-6,-10,-14,-4,-3
1528184950627379,-10,-5,41,-10,1,7,6,-1
1528184950627379,-4,2,-21,8,7,8,0,-3
1528184950628376,-11,-13,2,-29,-20,-23,-9,-2
1528184950628376,10,11,-9,18,4,-1,-3,0
1528184950650344,24,28,0,-5,-4,-7,1,7
1528184950650344,4,0,21,-4,14,28,7,3
1528184950651319,-7,-28,3,-14,-3,3,-2,-3
1528184950651319,-20,-7,4,8,-6,0,-6,-3
1528184950664307,-7,6,5,-10,-16,-17,-7,-10
1528184950664307,5,3,-9,17,15,12,5,4
1528184950672260,-5,13,5,0,8,11,8,1
1528184950672260,6,5,0,-20,-1,-10,-8,-1
1528184950687271,-5,-13,0,20,-7,-15,-2,1
1528184950687271,0,6,-5,22,26,13,5,0
1528184950688217,-3,-19,-18,8,12,-17,-3,1
1528184950688217,-4,-5,12,-37,-33,4,3,-6
1528184950711168,8,7,-8,-11,-25,-5,-5,2
1528184950711168,-10,-25,-9,1,5,-9,-5,-5
1528184950711168,14,21,4,23,7,15,5,4
1528184950711168,-8,-18,13,3,-7,-8,-6,-2
1528184950724123,-6,-6,-14,-20,-16,-11,1,-2
1528184950724123,-3,2,1,19,-6,-2,-5,-2
1528184950732152,7,16,1,-2,31,32,13,7
1528184950732152,5,16,12,20,33,29,10,6
1528184950748057,1,-7,-3,0,-12,-11,-2,-5
1528184950748057,-10,-22,-4,-17,-24,-16,-6,-4
1528184950748057,1,19,4,6,-7,-17,-5,-6
1528184950748057,3,-2,-6,-14,-2,6,1,-2
1528184950777978,-3,-7,2,21,12,0,-3,6
1528184950777978,-1,0,-5,-22,-26,-26,-8,-6
1528184950778975,-2,-6,-7,-4,-10,-18,-11,-2
1528184950778975,2,2,8,19,-2,-5,7,1
1528184950783962,1,4,1,27,21,23,10,0
1528184950783962,-2,7,8,-21,-16,-1,-7,-5
1528184950792981,4,2,2,-20,-13,12,2,-2
1528184950792981,-2,12,-3,-21,-6,-13,-1,0
1528184950807946,-3,-11,-1,17,12,-1,-3,-1
1528184950807946,-6,-11,-5,-10,-15,-7,-2,3
1528184950807946,-2,-5,-4,-8,7,-2,0,-2
1528184950807946,4,6,2,18,-5,-7,-4,0
1528184950830855,-6,-7,-7,-24,-4,2,2,-2
1528184950830855,4,8,-1,-19,-2,4,3,-1
1528184950831833,-3,-5,-6,19,19,6,0,-1
1528184950831833,-4,-5,0,-17,-19,-27,-8,-3
1528184950844797,2,4,1,-19,-8,25,4,3
1528184950844797,1,0,-4,29,17,-14,-4,-2
1528184950852778,-3,-2,-11,-42,-18,4,0,-4
1528184950852778,-1,-6,0,12,32,11,6,3
1528184950867771,-2,-2,0,3,-37,-28,-12,-4
1528184950867771,-2,-2,-3,-19,18,2,3,-3
1528184950868974,-1,2,0,25,15,33,2,-3
1528184950868974,-7,-17,-3,6,-5,-3,-1,-4
1528184950890675,1,17,8,-3,5,2,-3,0
1528184950890675,7,1,-5,11,3,-7,0,1
1528184950891672,-5,-2,1,-19,-23,-18,-7,-3
1528184950891672,-2,-10,-10,-41,-32,-10,-5,-1
1528184950904886,-4,-3,1,30,29,-3,-2,-5
1528184950904886,2,5,1,12,-6,17,1,0
1528184950912616,0,0,2,21,30,24,13,5
1528184950912616,-1,5,-5,0,10,0,-2,-9
1528184950927594,3,-8,-1,-35,-11,-2,-1,6
1528184950927594,-6,-10,-2,12,-17,-14,-3,2
1528184950928574,1,-1,-2,11,8,2,-3,-1
1528184950928574,3,8,13,8,-9,-9,-9,1
1528184950951610,-5,-9,-9,-14,-4,-3,-3,-7
1528184950951610,5,4,-4,6,16,14,5,3
1528184950951610,-4,-3,5,-10,-19,-14,-9,-2
1528184950951610,0,3,-5,2,11,2,4,1
1528184950973714,-4,-3,-2,-2,0,4,-1,-3
1528184950973714,10,7,14,-5,3,-4,0,2
1528184950974699,-3,-4,-12,0,-6,-2,-1,0
1528184950974699,-4,-1,2,5,3,1,-2,-2
1528184950987913,-1,1,10,16,11,-5,-6,0
1528184950987913,-5,-3,-3,14,-2,7,4,-2
1528184950988907,2,1,10,-4,-14,-20,-4,-4
1528184950988907,1,-1,-11,-7,16,10,1,2
1528184951010606,-1,-4,-26,-1,0,-2,1,1
1528184951010606,0,-3,1,8,0,-8,-4,-2
1528184951011589,1,6,7,-3,-6,2,6,1
1528184951011589,-1,-11,1,-1,-2,-3,-1,2
1528184951033538,1,3,-3,-1,-3,0,0,-3
1528184951033538,-5,-10,-11,-25,-11,-10,-6,-4
1528184951034538,6,15,-11,4,-5,-1,-2,0
1528184951034538,-5,-6,14,9,10,5,2,-2
1528184951046497,2,5,5,16,-7,-2,0,-2
1528184951046497,-3,-1,-2,-16,22,19,4,-1
1528184951055473,2,-3,12,1,-13,-11,-7,-2
1528184951055473,-1,-1,-13,-11,-12,-3,-2,-1
1528184951071562,-6,-7,-2,0,23,-1,-3,-3
1528184951071562,2,3,11,17,-6,2,3,2
1528184951072426,-5,-5,-4,2,3,2,0,-3
1528184951072426,0,-2,-9,-26,-9,-7,-6,1
1528184951093370,-4,-3,10,-6,-19,-7,-1,-2
1528184951093370,4,9,-10,-5,2,-4,-3,-2
1528184951094387,-8,-9,0,11,1,-7,-4,-1
1528184951094387,3,0,-4,-8,-6,-2,1,-1
1528184951107564,2,7,0,33,2,2,0,1
1528184951107564,-2,0,3,-38,-12,2,1,2
1528184951116332,-10,-14,-3,-31,-17,-21,-3,-3
1528184951116332,3,9,-5,8,11,10,1,-3
1528184951129537,-1,-4,7,-1,6,11,2,1
1528184951129537,3,-4,-25,2,-3,-7,-7,-3
1528184951138294,1,-1,6,-5,-5,-2,-2,-2
1528184951138294,-2,-1,2,3,-5,-5,-7,-1
1528184951153227,2,-1,-4,-3,7,6,3,1
1528184951153227,-8,-2,9,10,-1,1,-1,-3
1528184951155460,-6,-6,-7,-3,3,5,2,-3
1528184951155460,-3,-3,-2,8,-4,-11,-3,-4
1528184951176364,0,5,-1,-11,-8,-6,-9,-4
1528184951176364,-3,-8,-4,2,-3,-3,-1,-2
1528184951177164,-1,3,7,11,9,5,2,0
1528184951177164,-1,-2,-2,6,-3,5,2,0
1528184951189134,-7,-5,1,-16,-5,-3,3,-2
1528184951189134,2,3,-5,-10,-8,-7,-4,-1
1528184951198108,1,0,-9,-24,-6,10,2,-2
1528184951198108,2,1,6,8,-4,-4,-5,0
1528184951221466,3,6,2,10,-4,-3,-3,-1
1528184951221466,-5,-15,-4,-13,-6,0,2,0
1528184951222363,8,24,10,3,2,4,2,1
1528184951222363,-14,-26,-11,-8,0,-1,-1,-1
1528184951235862,12,6,-6,-7,-3,-3,-2,-7
1528184951235862,-2,-10,8,6,4,1,-13,-23
1528184951237596,-12,-13,-40,10,4,-5,-33,-42
1528184951237596,-4,13,9,-5,1,3,12,20
1528184951249582,43,23,33,16,15,15,-2,52
1528184951249582,-71,-40,-29,-5,-5,-10,-30,-6
1528184951258575,64,9,9,-4,-8,-11,26,-17
1528184951258575,-77,-42,-23,13,10,15,66,-76
1528184951272746,126,37,20,-6,0,-6,-19,53
1528184951272746,92,92,33,11,12,28,111,127
1528184951279790,-128,-33,-38,-4,-5,-5,-24,-72
1528184951279790,103,7,65,5,-5,-9,87,127
1528184951296240,-128,-49,-46,-7,6,14,-3,-128
1528184951296240,-66,-12,-8,-8,-7,-20,-99,-128
1528184951297242,31,-68,53,6,-4,-4,13,123
1528184951297242,40,73,-73,-18,-10,-16,-88,-43
1528184951309598,-45,-39,-33,-11,-6,-14,-58,-81
1528184951309598,2,-29,75,21,10,1,7,-12
1528184951335195,29,56,-45,-10,5,24,53,68
1528184951335195,-6,-97,-25,-9,-6,0,-15,79
1528184951336225,7,82,60,2,-1,-6,7,-29
1528184951336225,-43,-6,-5,3,-2,-5,21,-17
1528184951347424,34,32,17,23,20,15,-2,-36
1528184951347424,-11,59,8,-7,-7,-7,12,-25
1528184951356970,22,-63,-43,-20,1,5,-10,-27
1528184951356970,36,36,-48,-12,14,22,10,-30
1528184951357953,8,-51,68,45,25,15,32,107
1528184951357953,3,36,7,4,-19,-7,-36,-73
1528184951369923,-5,36,15,-29,-58,-49,-3,33
1528184951369923,6,-23,-23,6,34,17,10,32
1528184951378636,6,-2,17,11,11,6,-17,-42
1528184951378636,-1,4,-21,-15,-8,-18,-23,-44
1528184951392912,-11,-14,4,27,3,8,24,30
1528184951392912,11,-6,1,-17,0,8,5,6
1528184951399674,-13,41,-26,-22,-17,-8,-29,-45
1528184951399674,-47,-51,24,6,-10,-17,-9,-8
1528184951415801,5,-4,-22,-1,20,21,24,27
1528184951415801,4,13,5,14,-13,-15,-21,3
1528184951417532,-20,-13,-21,-25,1,-5,-9,-30
1528184951417532,8,41,20,2,-3,-12,-7,-5
1528184951439026,-15,-49,-7,9,-9,-17,4,11
1528184951439026,3,-3,-37,-26,10,22,0,-8
1528184951439722,-3,4,11,19,-5,-3,0,-4
1528184951439722,2,1,7,-7,-4,2,0,7
1528184951452705,13,24,35,44,34,8,10,9
1528184951452705,-13,-9,-14,-3,-14,-2,-2,9
1528184951459669,-16,-42,-31,-25,-6,-15,-9,-16
1528184951459669,8,15,-17,-1,-3,19,-4,2
1528184951475941,-8,15,11,36,46,10,10,6
1528184951475941,9,-22,9,-7,-45,-27,-4,2
1528184951477665,7,22,10,-26,6,-1,3,-4
1528184951477665,-6,-18,-6,14,-5,6,-4,-6
1528184951498802,-11,-15,-18,-44,-20,-2,0,7
1528184951498802,16,16,25,15,1,-8,3,8
1528184951500559,-1,13,-2,36,1,3,-6,-15
1528184951500559,-13,-29,4,-9,34,15,-1,-1
1528184951520988,7,-4,0,-10,-34,-14,-5,5
1528184951520988,-5,-8,-23,-33,13,3,-4,-2
1528184951521823,-4,1,-12,-27,-20,-9,-7,-7
1528184951521823,-3,-5,9,5,6,0,0,-1
1528184951536030,-3,0,5,15,-5,6,4,-2
1528184951536030,1,7,0,-29,-8,-6,-3,-2
1528184951536783,-3,-5,-8,13,0,-6,-7,-4
1528184951536783,-11,-2,3,-3,2,0,-2,-5
1528184951558849,4,6,-2,10,10,9,-2,5
1528184951558849,-6,-15,16,20,1,-11,2,1
1528184951559729,6,23,6,-3,-2,8,-1,-1
1528184951559729,-4,-13,-1,8,24,18,8,4
1528184951572339,-6,-6,3,33,15,-3,0,1
1528184951572339,9,15,15,31,14,6,0,7
1528184951580776,-7,-14,-5,-43,-37,-6,4,1
1528184951580776,5,3,-3,25,27,0,-6,-4
1528184951595739,6,-1,7,-20,-18,-8,-3,1
1528184951595739,-13,3,-2,22,-5,-5,-3,-7
1528184951597754,17,7,7,8,15,5,4,1
1528184951597754,-7,-10,-9,-8,-7,-2,2,6
1528184951618389,-13,5,-5,-19,-3,3,4,-20
1528184951618389,44,3,20,13,-9,-9,-12,-21
1528184951620122,-98,-17,-5,-3,1,-4,-24,-27
1528184951620122,24,30,-14,-13,-17,-13,-33,28
1528184951632093,-19,19,17,11,9,23,76,-51
1528184951632093,15,-56,-22,-20,-21,-19,-46,98
1528184951641185,58,45,-6,27,19,10,23,-22
1528184951641185,-92,-81,-19,-6,-6,5,74,23
1528184951656461,100,85,19,-8,6,17,106,96
1528184951656461,-79,72,-4,1,-3,-8,-91,-75
1528184951657176,-63,-93,-22,1,5,-1,62,5
1528184951657176,38,47,100,15,2,6,7,-58
1528184951678087,-1,-15,-51,-34,-27,-20,-5,-65
1528184951678087,-35,-32,-35,-1,4,8,4,-64
1528184951680081,94,3,-29,-15,-23,-35,-96,-40
1528184951680081,-71,-40,8,4,9,6,-56,-28
1528184951692300,40,1,-9,9,5,6,-25,25
1528184951692300,36,69,59,-16,-17,-18,8,30
1528184951701026,-40,-12,-54,-7,-4,5,-4,-30
1528184951701026,39,-49,-33,16,3,5,4,-18
1528184951724022,-72,-49,-28,-30,3,3,-34,20
1528184951724022,-12,-35,-28,21,11,12,14,-30
1528184951724962,38,43,43,15,-5,-7,21,11
1528184951724962,17,27,-28,-49,-30,-9,15,33
1528184951737952,-22,-7,39,18,-4,-13,-47,5
1528184951737952,24,-20,13,-7,-11,-27,27,4
1528184951739922,-1,23,13,58,53,14,17,37
1528184951739922,-2,-16,-16,-6,-17,3,-13,6
1528184951751889,-10,-2,-14,-41,-50,-26,-29,-42
1528184951751889,12,7,4,-27,10,22,32,27
1528184951760866,-10,5,14,12,-1,-18,-8,21
1528184951760866,-15,23,-5,-3,-2,-17,-22,-27
1528184951775882,25,-10,-9,3,10,0,-8,-4
1528184951775882,-5,-4,-7,-2,-35,-11,19,10
1528184951776823,-8,-6,10,-35,-19,12,-12,-2
1528184951776823,24,9,-5,5,-22,-6,1,-7
1528184951797814,-23,-22,-2,-9,10,-4,-3,39
1528184951797814,-6,-14,-14,12,13,2,1,-5
1528184951799801,3,5,6,-12,-15,5,4,-4
1528184951799801,15,33,24,24,10,14,10,5
1528184951811784,-10,-13,-10,25,29,6,-14,-7
1528184951811784,-12,-7,-8,-28,8,4,7,14
1528184951820705,14,-5,8,-9,-23,-10,-3,-11
1528184951820705,2,12,-27,-21,7,8,6,2
1528184951835719,-7,4,0,14,9,5,-7,-5
1528184951835719,7,-6,0,22,6,2,2,2
1528184951837714,2,14,17,-29,-6,-2,5,10
1528184951837714,-1,3,-2,10,7,-6,-7,10
1528184951858662,1,1,-17,-4,7,-6,-9,-22
1528184951858662,3,3,11,14,1,13,3,0
1528184951859617,-8,-7,2,49,16,-1,1,8
1528184951859617,4,12,6,-58,-23,-1,-7,-4
1528184951880597,-1,-7,5,-12,-17,-2,1,-3
1528184951880597,0,-2,-7,-19,-9,-2,6,-3
1528184951882542,1,4,-5,24,25,4,-4,6
1528184951882542,-1,-4,-3,-3,-13,-11,2,-1
1528184951895506,-2,4,15,7,-3,-6,-7,-1
1528184951895506,-4,3,-2,8,3,1,4,-3
1528184951897501,3,-3,2,-38,1,2,1,3
1528184951897501,-1,1,-4,5,0,0,-2,-2
1528184951917447,-5,-3,-12,-26,-11,-3,-6,1
1528184951917447,-5,-5,-3,6,23,7,10,-1
1528184951925426,-2,0,-1,3,-13,-3,-4,0
1528184951925426,-2,-7,0,29,13,0,-1,1
1528184951931410,14,8,0,36,11,4,2,-4
1528184951931410,7,4,-4,3,-3,-1,-1,11
1528184951941397,-6,-1,-2,-34,-6,4,9,-6
1528184951941397,1,-1,8,14,11,0,2,6
1528184951955346,14,6,8,18,0,3,5,10
1528184951955346,-81,4,8,-17,-10,-9,-21,-67
1528184951957346,35,-17,-14,2,-7,-1,6,46
1528184951957346,-8,12,4,12,10,-1,-35,-66
1528184951978285,1,-11,-7,-13,-6,-1,13,91
1528184951978285,-32,-11,-28,2,2,6,6,-21
1528184951980279,24,-11,15,-2,-13,-11,-6,-21
1528184951980279,-10,-13,-11,5,14,8,6,7
1528184951992247,-94,2,-8,-16,-12,-13,-11,-100
1528184951992247,58,-17,5,14,-1,1,30,75
1528184952008205,-45,1,-28,1,3,16,47,75
1528184952008205,-4,13,2,-7,2,2,8,18
1528184952016183,27,-62,-4,-14,-17,-19,-10,-102
1528184952016183,11,78,40,17,9,-9,-36,-64
1528184952017181,-5,-29,3,-16,-10,0,-43,44
1528184952017181,-44,-9,-21,-11,-7,-12,22,28
1528184952038125,35,30,7,-19,-14,2,4,39
1528184952038125,0,-82,6,-4,-18,-33,-24,-91
1528184952044110,64,33,34,13,6,6,12,66
1528184952044110,-10,40,-47,-4,18,14,-18,-40
1528184952061063,-4,-20,48,33,20,14,9,43
1528184952061063,73,-16,-62,-52,-32,-10,12,-23
1528184952062172,-66,-18,-4,25,10,7,-23,-48
1528184952062172,81,10,-5,-10,-11,-8,27,28
1528184952075329,-5,49,27,31,20,2,-12,47
1528184952075329,35,15,-20,-25,-17,-8,-17,52
1528184952077323,-72,2,-7,21,12,9,5,-107
1528184952077323,-20,-43,18,1,-10,-19,2,-30
1528184952098514,30,-2,19,4,2,11,2,-126
1528184952098514,-24,-35,5,1,4,12,16,127
1528184952100536,118,68,-20,-11,13,8,1,55
1528184952100536,13,-1,9,-2,-23,-14,-11,-41
1528184952112475,26,25,-9,5,14,11,-15,-1
1528184952112475,-43,-9,5,-5,-32,-5,18,-14
1528184952121438,-50,-42,14,3,26,1,-6,-3
1528184952121438,1,24,10,4,8,11,1,-36
1528184952136456,31,-1,-30,-8,-9,-6,9,113
1528184952136456,-23,-21,8,5,3,3,3,19
1528184952137165,20,7,-20,-14,-24,-20,-8,4
1528184952137165,68,5,20,3,4,-2,-9,-17
1528184952158352,-21,-21,-31,-10,-20,-5,17,0
1528184952158352,-1,13,19,8,32,13,-17,-23
1528184952160102,20,8,10,16,-9,-13,-10,-20
1528184952160102,-37,-20,-14,-10,15,14,14,78
1528184952172073,-11,-18,-43,-11,-19,-16,-25,-58
1528184952172073,30,35,-15,1,2,-3,-10,-60
1528184952181053,12,-36,-33,5,-1,3,16,23
1528184952181053,-42,10,-24,2,20,13,-3,-34
1528184952195253,45,11,-1,-13,-10,-12,0,32
1528184952195253,-39,-6,9,14,4,-3,5,-29
1528184952202234,0,14,22,-6,-12,-9,-6,-17
1528184952202234,-51,-17,11,-4,-17,-17,-11,-44
1528184952226285,1,-8,-15,-22,2,13,6,-18
1528184952226285,14,16,15,21,19,21,3,54
1528184952226972,-26,-1,5,-11,-7,-1,-2,-41
1528184952226972,8,-13,15,13,-3,-21,-12,16
1528184952231913,-11,-10,-13,-19,-2,10,1,6
1528184952231913,13,13,7,15,19,14,12,-11
1528184952240903,-4,-5,1,-6,2,2,-3,0
1528184952240903,17,5,-1,5,-6,-7,-12,-23
1528184952254885,-24,-1,8,5,-12,-6,0,-13
1528184952254885,-3,0,-5,-9,-2,-10,-5,33
1528184952261831,-18,5,5,1,1,-2,-1,-6
1528184952261831,13,-15,3,-3,-11,-4,8,25
1528184952277788,-4,7,-1,4,5,-1,-5,6
1528184952277788,2,5,-1,-9,-12,-6,-6,-18
1528184952279793,-3,-3,-3,-2,3,-4,-3,-35
1528184952279793,10,-3,-16,-5,-8,5,0,13
1528184952291750,-17,2,11,0,3,-3,-2,-9
1528184952291750,-2,6,-6,-4,-4,-7,-2,4
1528184952308705,1,6,7,2,5,4,5,-11
1528184952308705,7,-12,-9,7,11,7,2,21
1528184952315779,-26,-8,2,-2,-5,-8,-6,1
1528184952315779,1,11,-4,2,-3,-1,3,6
1528184952321915,4,11,-15,-14,-12,-6,-3,8
1528184952321915,-2,-10,4,-7,-9,-3,-2,4
1528184952346623,-5,6,3,14,26,11,0,-8
1528184952346623,-5,-8,6,2,-4,-3,-2,-6
1528184952347635,-18,-6,-5,-3,-4,-5,-2,-21
1528184952347635,4,8,12,4,-7,0,0,18
1528184952352633,-3,-3,-1,-14,-4,0,2,3
1528184952352633,5,1,1,11,5,-3,0,1
1528184952360878,3,8,1,-16,-9,3,1,-14
1528184952360878,4,-14,2,-2,10,0,2,27
1528184952375924,-7,-6,4,3,-8,-8,-4,-1
1528184952375924,7,2,3,11,6,2,0,4
1528184952382053,-3,-13,-15,-9,-10,4,-2,-9
1528184952382053,2,10,-2,9,13,4,2,2
1528184952398429,0,-4,1,-5,-33,-9,-2,2
1528184952398429,-2,-5,2,-9,18,-1,-1,0
1528184952400065,-2,-6,-7,17,9,0,-2,-4
1528184952400065,4,5,0,-20,-5,0,1,-3
1528184952421358,-3,0,4,8,1,5,0,6
1528184952421358,-4,-12,-8,-19,-19,-7,-5,-14
1528184952422007,14,14,6,-19,-16,-6,1,7
1528184952422007,-4,-14,-3,16,14,3,-2,4
1528184952435302,-1,1,-2,3,-1,-1,-2,-1
1528184952435302,-5,-3,0,13,8,6,1,-4
1528184952442215,13,7,2,-4,2,1,1,0
1528184952442215,-2,4,3,3,-3,-2,-2,0
1528184952458018,-5,-10,-4,-6,0,-2,-2,-5
1528184952458018,3,10,0,-2,-7,-1,-1,-3
1528184952472133,-7,-12,-4,3,10,0,2,1
1528184952472133,2,3,-6,-4,-1,1,-2,-1
1528184952480848,-6,-4,8,-8,-3,2,0,-1
1528184952480848,0,-3,3,-3,1,1,1,-1
1528184952481857,-5,-5,9,11,2,-1,0,-2
1528184952481857,1,-2,2,9,7,0,-3,0
1528184952502790,-1,5,-8,-4,7,-3,-3,0
1528184952502790,2,6,20,10,-5,2,2,3
1528184952504789,-9,-9,5,-23,-17,-8,-5,-6
1528184952504789,-1,-2,-18,13,0,1,-1,-4
1528184952518752,22,1,2,-16,-3,-4,-2,1
1528184952518752,-54,-4,-27,3,-9,-11,-5,-6
1528184952526141,-2,3,11,19,4,5,4,-1
1528184952526141,5,-1,1,2,0,0,-1,-1
1528184952526141,-11,-7,-11,-11,4,2,-1,-2
1528184952526141,24,-1,-6,4,-3,2,1,2
1528184952535703,-4,-1,-11,9,6,-7,-4,-3
1528184952535703,-1,-6,-5,-14,-28,-1,0,5
1528184952548002,1,3,-1,20,21,-1,0,0
1528184952548002,5,-5,0,-22,-12,-5,-1,-2
1528184952555081,-9,-9,-2,12,12,9,1,-4
1528184952555081,10,20,1,-21,14,9,4,0
1528184952570600,-3,-6,10,1,-6,0,0,1
1528184952570600,-2,-15,0,-9,-7,-5,-2,-3
1528184952576586,0,3,-3,-2,-17,-12,-6,-1
1528184952576586,-7,-7,-15,-4,2,-8,-1,-2
1528184952584833,-4,8,17,0,-1,-1,0,0
1528184952584833,2,0,-7,11,10,6,2,1
1528184952593557,3,9,27,-6,-1,7,3,4
1528184952593557,-2,-8,3,5,1,-2,-1,0
1528184952607536,-7,-5,-6,-9,-1,-3,-1,0
1528184952607536,2,-3,-2,9,2,-1,1,0
1528184952614516,21,5,6,7,6,0,-1,-1
1528184952614516,-10,4,13,-40,-20,-4,-2,0
1528184952630480,-5,-1,3,14,1,-5,-2,-3
1528184952630480,3,-2,-4,-1,1,2,0,1
1528184952637464,-13,-12,-13,1,8,8,1,-1
1528184952637464,10,2,8,13,0,-11,-3,-1
1528184952653382,5,2,-7,-5,-6,6,0,-4
1528184952653382,-14,2,6,-6,8,8,2,2
1528184952654417,10,-2,-9,-4,-4,-8,-5,5
1528184952654417,11,3,-14,0,-7,-5,4,2
1528184952667355,-6,-3,-7,-8,-1,-5,0,0
1528184952667355,2,6,3,7,4,4,-1,-2
1528184952674325,0,0,5,-4,-3,-4,-1,-6
1528184952674325,-6,-10,-5,8,3,6,-2,2
1528184952690282,-3,-2,8,-7,-1,-1,-1,-2
1528184952690282,9,7,1,-3,-3,0,0,1
1528184952697264,-10,-3,-4,1,-5,-9,-4,-5
1528184952697264,-2,-4,19,-2,-4,2,-1,0
1528184952713223,3,-4,-7,7,7,2,-2,0
1528184952713223,6,4,-4,-13,-6,-3,0,0
1528184952719256,-9,-1,-9,-8,-7,-5,-4,-4
1528184952719256,-4,-3,2,8,2,1,-1,-4
1528184952727474,1,13,-6,1,1,1,1,1
1528184952727474,0,-7,1,-7,-4,-5,-1,-2
1528184952734484,-1,-3,1,1,1,2,-3,-2
1528184952734484,-3,2,-4,0,-3,-13,-2,-2
1528184952750430,2,8,10,-5,-3,3,-1,0
1528184952750430,-3,-7,-16,4,5,5,-2,-2
1528184952757549,3,5,-3,-10,-4,-4,1,-2
1528184952757549,-3,-3,-8,-1,-2,5,1,8
1528184952773610,1,5,21,-1,-7,-11,-2,-1
1528184952773610,2,4,9,6,1,-9,-3,0
1528184952779600,-2,-5,-10,-2,2,3,-1,-3
1528184952779600,-1,2,0,-1,4,11,1,-3
1528184952787568,-4,-8,2,5,5,6,4,0
1528184952787568,5,5,0,-4,-8,-14,-2,1
1528184952796316,4,15,13,0,4,6,1,5
1528184952796316,-6,-16,-7,-3,-3,-7,-1,-4
1528184952810252,-2,3,-6,-1,-3,-3,-5,-5
1528184952810252,-4,-3,13,-2,-5,2,2,-2
1528184952817505,-4,-11,-11,-9,-4,-5,-6,-2
1528184952817505,-1,9,9,3,2,-1,-3,-2
1528184952833902,-6,-10,-7,0,0,-5,-4,-4
1528184952833902,-1,-2,-6,-3,-1,-1,-1,-2
1528184952835672,-3,-10,-14,-1,-3,0,0,2
1528184952835672,-3,1,1,-2,-5,-3,-4,-4
1528184952847688,-1,-1,-18,-4,-6,-16,-4,-1
1528184952847688,-2,-1,11,0,7,20,0,-10
1528184952855837,7,4,-2,2,5,3,5,5
1528184952855837,-8,-14,7,-2,-8,-4,-5,-5
1528184952870766,0,-1,-18,-2,-1,-5,0,-1
1528184952870766,0,0,-11,-2,-6,-4,-3,-1
1528184952876779,-5,-6,-1,2,3,-1,1,-6
1528184952876779,4,9,1,-1,-4,-3,-2,-3
1528184952892960,-2,0,3,2,-1,4,1,3
1528184952892960,0,-4,-7,-2,1,-5,-3,0
1528184952894719,-1,-5,-6,-4,-3,2,-2,-2
1528184952894719,-2,2,5,-1,-1,-4,-2,-2
1528184952916646,0,-3,-3,-1,1,1,-1,-1
1528184952916646,1,2,2,1,3,0,1,2
1528184952918653,-1,-5,-6,-2,-3,-6,-1,-1
1528184952918653,2,4,12,-1,-3,0,-1,-3
1528184952930857,5,-5,-8,-4,1,6,-1,2
1528184952930857,-30,-1,4,1,-2,-2,1,0
1528184952937698,12,3,-5,-3,-3,-6,-1,4
1528184952937698,4,0,-19,-2,2,2,-1,-6
1528184952954063,-19,-7,21,-1,-2,2,0,-2
1528184952954063,14,2,-5,-2,-2,-3,-2,9
1528184952954870,-7,-4,0,-2,0,-2,-1,-1
1528184952954870,0,4,-11,1,5,3,1,-4
1528184952967137,10,5,3,1,-2,-3,-1,-2
1528184952967137,-7,-5,3,-2,-5,-13,-4,-6
1528184952975813,6,8,1,1,5,14,4,5
1528184952975813,7,-20,-6,-1,-1,-2,-2,-4
1528184952990936,-23,-3,-1,0,-1,0,-1,4
1528184952990936,9,-4,-5,1,-1,-1,0,3
1528184952997101,-5,-3,-1,-1,-4,-8,-3,-5
1528184952997101,11,13,-1,-2,-2,3,-1,2
1528184953014053,-3,-16,-9,-1,-2,3,1,-2
1528184953014053,3,2,-5,-3,-3,-6,-4,-3
1528184953014711,-9,-5,2,0,0,-2,-2,-4
1528184953014711,-11,1,3,-2,0,-4,-1,-1
1528184953026684,4,-3,-4,0,-1,0,1,1
1528184953026684,2,4,-1,-1,-1,4,-1,-3
1528184953035738,-2,-1,3,2,-2,-3,-1,-5
1528184953035738,-2,-1,1,0,-1,0,0,4
1528184953058829,0,3,-6,-2,2,1,-1,-2
1528184953058829,1,-4,-1,-4,-2,1,-3,-5
1528184953059624,0,-6,-2,-2,-3,-5,-1,-4
1528184953059624,-10,-6,-5,-1,-2,-2,-1,7
1528184953073789,12,12,0,-1,0,0,-2,0
1528184953073789,-4,-7,-1,-1,0,-1,-1,-2
1528184953075728,-6,-5,0,0,1,-3,-2,-3
1528184953075728,2,5,5,1,0,0,-1,-1
1528184953087548,0,-2,-2,-3,-2,0,-1,-4
1528184953087548,3,-2,2,-1,-1,-1,-1,0
1528184953096718,-1,6,-1,-1,2,-2,0,1
1528184953096718,-5,-5,-3,0,0,0,-2,0
1528184953110453,-1,-2,-5,-2,-2,-2,3,-1
1528184953110453,-2,-2,-2,-3,-3,-3,-3,-4
1528184953117440,4,6,1,2,-1,0,-3,-3
1528184953117440,2,-2,5,1,0,0,-2,0
1528184953134022,-11,0,0,0,-2,0,-1,2
1528184953134022,-3,-6,1,-3,0,1,0,1
1528184953134682,-2,4,3,1,1,1,2,-1
1528184953134682,8,0,2,0,2,1,2,-1
1528184953147641,6,5,2,-2,-1,-1,-1,0
1528184953147641,3,4,-2,-2,2,0,0,1
1528184953155620,1,0,0,-1,0,-1,-4,0
1528184953155620,-2,11,5,1,-2,-3,-3,0
1528184953169584,-2,-9,1,-3,1,-1,1,1
1528184953169584,-3,0,-9,0,-2,0,-1,-1
1528184953176564,-2,-10,-5,-5,-2,-2,-1,0
1528184953176564,3,12,-6,-2,0,2,0,-7
1528184953193531,-2,-2,0,0,0,1,3,5
1528184953193531,2,-18,3,2,2,2,0,0
1528184953194623,-3,9,-2,1,-1,-2,-6,-2
1528184953194623,0,-11,-1,-1,-2,-4,-6,-3
1528184953207670,-4,1,-15,-1,-1,0,3,-2
1528184953207670,-12,-4,0,-1,-1,-1,4,1
1528184953215830,17,-6,4,-2,-5,-2,-2,-1
1528184953215830,0,16,2,-1,1,1,-3,0
1528184953230799,5,-3,1,0,-2,0,-9,-5
1528184953230799,-16,-3,-4,-2,-2,-2,4,-7
1528184953237005,-1,-9,-2,-1,-1,-1,0,1
1528184953237005,11,15,0,0,2,4,9,0
1528184953253963,21,8,3,-1,-2,-5,-13,-11
1528184953253963,-14,1,-2,-2,-1,0,5,7
1528184953254717,14,0,2,2,1,0,2,15
1528184953254717,-17,-8,-7,-3,-3,-1,2,-7
1528184953267720,14,-1,0,-1,0,-2,-3,12
1528184953267720,-3,1,2,2,0,1,-8,-10
1528184953275855,18,-1,0,-2,0,-3,3,-2
1528184953275855,-18,-10,-2,-2,-3,-2,-4,2
1528184953290875,-18,1,-1,-1,2,2,4,-4
1528184953290875,12,3,0,0,-2,-1,-5,3
1528184953297619,-6,0,-1,-2,-3,-1,1,-4
1528184953297619,-2,-6,-2,-3,-2,-3,-2,1
1528184953313636,2,-6,5,1,-1,0,-1,2
1528184953313636,-17,4,-8,-3,-2,-1,-2,-18
1528184953314616,-8,0,1,0,-3,-3,-4,-2
1528184953314616,-3,-6,-7,-1,1,1,0,-3
1528184953326584,-1,-2,7,0,0,-1,1,0
1528184953326584,23,7,-2,0,1,0,-1,9
1528184953335827,-2,7,0,-1,-2,-2,-1,-2
1528184953335827,-26,-19,-6,0,-1,-4,-4,-5
1528184953350791,4,1,-6,-1,-2,-1,0,2
1528184953350791,-12,-14,1,0,-1,0,-4,-12
1528184953357619,13,15,0,-1,2,1,0,15
1528184953357619,15,3,3,-1,-1,-1,3,3
1528184953372721,-4,-3,-6,0,-1,1,-1,3
1528184953372721,3,8,1,2,1,0,0,-1
1528184953379701,-16,-19,-5,-2,-3,-1,-2,-10
1528184953379701,2,-2,-3,-2,-1,-1,0,-7
1528184953387545,-2,-4,-1,-1,0,-2,-1,8
1528184953387545,-5,0,-2,-2,-2,-4,-5,-6
1528184953395959,-11,0,0,0,0,0,0,-3
1528184953395959,37,3,-1,-2,-2,-2,-2,5
1528184953417887,-56,-10,-6,0,-3,-1,-5,-18
1528184953417887,13,-1,2,2,1,2,9,15
1528184953424424,-7,-4,-1,-2,-2,0,0,0
1528184953424424,-10,-8,2,-2,-2,-2,-2,-5
1528184953441367,26,12,-2,1,1,1,3,4
1528184953441367,-1,-12,0,-1,-2,-1,-4,-2
1528184953443093,-17,-7,-2,-1,1,1,0,-3
1528184953443093,2,-7,2,0,2,-1,0,4
1528184953463623,17,6,1,-2,-2,-3,1,0
1528184953463623,-2,7,1,0,-1,-2,-1,1
1528184953465265,-5,-6,-6,-4,-4,-2,-1,-4
1528184953465265,-8,0,1,-3,-2,0,-2,-3
1528184953477318,-5,-5,-2,-2,-1,-2,-2,-2
1528184953477318,0,2,0,1,1,-2,-3,-2
1528184953486215,29,7,0,-2,-1,-1,-1,7
1528184953486215,-32,-8,-6,-3,-3,-3,-3,10
1528184953508437,-14,5,5,0,0,-1,2,-14
1528184953508437,25,-6,0,-1,-2,0,-1,5
1528184953510145,-23,-4,-3,0,1,-1,-3,-5
1528184953510145,12,4,-2,0,-3,0,0,4
1528184953523335,1,-10,-4,-1,0,0,0,2
1528184953523335,-1,1,1,-1,-2,-2,-2,-2
1528184953525104,-10,-2,-4,-3,-1,0,1,-3
1528184953525104,13,4,2,0,1,-1,-2,-1
1528184953537072,-2,-2,-6,-5,-4,-4,-5,-4
1528184953537072,13,4,-1,-1,0,1,5,6
1528184953546049,-4,-2,-1,-1,-3,-2,-2,-1
1528184953546049,-3,3,0,-1,-1,-1,1,-6
1528184953561008,2,1,-1,-1,1,1,-3,0
1528184953561008,11,-1,-3,-2,0,1,-1,3
1528184953562276,-30,-1,-1,0,-1,-1,-1,-6
1528184953562276,3,-10,-2,-1,-2,-1,0,-1
1528184953582953,3,0,-4,-2,-2,0,0,-2
1528184953582953,12,-2,-3,-2,-1,-3,0,7
1528184953584944,-20,-2,2,2,2,-1,-5,-27
1528184953584944,-1,0,-5,-3,-3,-2,-1,-1
1528184953605152,-1,-4,-2,0,1,2,0,-6
1528184953605152,-28,-6,1,-1,-1,1,0,2
1528184953605888,18,17,-1,-2,1,0,3,7
1528184953605888,-14,-18,-6,-3,-2,-1,-5,-5
1528184953620111,-13,-5,4,0,-1,0,-2,-3
1528184953620111,-8,-1,-2,0,-1,1,-1,-3
1528184953620847,7,-4,1,1,2,-2,0,6
1528184953620847,7,11,4,2,-1,-1,-2,-3
1528184953642973,10,-9,-5,-1,-2,-3,3,6
1528184953642973,-8,1,-4,0,-2,-2,-2,-4
1528184953643787,1,-2,3,0,-1,-1,-2,2
1528184953643787,6,3,1,0,0,0,2,1
