timestamp,emg1,emg2,emg3,emg4,emg5,emg6,emg7,emg8
1528452819003938,0,-2,-2,0,1,-2,-2,0
1528452819003938,-2,-3,-3,-1,-2,-1,-1,0
1528452819004944,0,3,2,1,0,0,0,-1
1528452819004944,-1,-1,-2,-1,-1,-1,0,-1
1528452819005933,-1,-3,-3,-1,-1,-1,0,-1
1528452819005933,0,0,-3,0,-1,0,0,0
1528452819006931,-1,-1,0,-2,-2,0,0,-1
1528452819006931,0,1,4,3,-2,0,-2,0
1528452819014937,-1,1,-1,-3,0,-1,-1,0
1528452819014937,-2,0,-2,-1,-1,0,0,-2
1528452819019898,-1,-3,-4,0,1,-1,0,1
1528452819019898,0,0,1,0,1,0,-1,1
1528452819029871,-1,2,2,1,-2,1,0,0
1528452819029871,-2,-2,-1,0,-1,-1,0,-1
1528452819052807,0,-3,-3,-1,-1,-2,-1,-1
1528452819052807,-2,0,-3,-3,0,-2,0,0
1528452819055800,0,2,0,1,0,-1,0,0
1528452819055800,0,-1,-1,-1,0,-1,0,-2
1528452819058792,-1,0,-2,0,-1,0,0,-1
1528452819058792,-1,-1,0,0,2,0,0,-2
1528452819073753,1,-2,-1,-2,-1,-1,0,-1
1528452819073753,0,-1,-1,-2,0,-1,0,0
1528452819081730,-1,0,-1,-1,0,-1,0,0
1528452819081730,-1,-1,-1,-2,-2,-2,-1,-1
1528452819087715,-1,-1,-3,1,-1,0,-1,-1
1528452819087715,2,1,-2,2,-1,-2,1,0
1528452819135616,-1,-4,0,-2,-1,-1,1,0
1528452819135616,-1,2,-1,-2,0,0,-2,-2
1528452819136583,1,1,-1,0,-1,0,1,-3
1528452819136583,0,-1,-1,1,0,-1,-1,0
1528452819138586,-1,-2,-1,0,0,-2,-1,0
1528452819138586,0,2,1,0,-2,0,1,0
1528452819142569,0,0,-2,-1,-1,-1,-2,0
1528452819142569,0,-3,-3,-3,-1,0,0,-1
1528452819147554,1,2,0,0,0,-1,-2,-2
1528452819147554,-1,-2,-1,1,-1,-1,-2,-3
1528452819156531,-1,-2,-2,-1,0,-1,-2,-1
1528452819156531,-3,1,2,0,1,0,-1,-1
1528452819162515,1,0,1,0,0,-1,0,0
1528452819162515,-2,-3,-1,-2,-2,-2,-1,-1
1528452819178472,-2,-2,0,-1,3,3,-1,-1
1528452819178472,1,0,0,-1,-1,-3,-2,-1
1528452819185455,-1,0,-2,-1,-1,0,0,-1
1528452819185455,-1,-2,-1,0,0,-1,-1,0
1528452819194431,0,0,-1,-1,-1,-1,-2,-2
1528452819194431,-1,-2,-1,0,0,0,-1,-1
1528452819208392,-1,-2,-2,-1,-1,0,-1,-1
1528452819208392,0,0,0,0,0,1,0,1
1528452819215374,-1,0,-1,0,0,-1,1,0
1528452819215374,-2,-1,0,1,0,-2,1,0
1528452819222408,-1,-1,-1,0,-1,-1,-1,-1
1528452819222408,0,1,0,-1,2,0,1,-1
1528452819237316,-1,-1,0,0,-1,0,0,0
1528452819237316,-1,0,0,-2,-2,-2,-2,-1
1528452819254271,-1,-1,-1,-1,1,0,1,-1
1528452819254271,-2,-1,2,-1,-1,1,-1,-1
1528452819255268,-1,-2,0,1,-1,-1,-1,0
1528452819255268,2,-1,-3,0,-2,-1,0,0
1528452819268233,-1,-2,-2,1,0,0,-2,-1
1528452819268233,-1,0,-2,0,0,-1,1,0
1528452819275215,-1,0,-2,-1,-2,-1,-2,-1
1528452819275215,0,-1,0,-1,-1,0,0,1
1528452819282205,-2,-1,0,-1,-2,0,0,0
1528452819282205,2,-2,0,0,-1,-1,0,-1
1528452819297155,-1,-1,-1,-1,-1,-2,-2,0
1528452819297155,-1,0,-4,-4,-3,1,-1,-1
1528452819305133,0,-1,-1,-2,-1,0,-2,-1
1528452819305133,0,0,0,0,0,-2,-1,2
1528452819314109,0,0,0,2,-2,1,1,-1
1528452819314109,-1,-1,-1,-2,-1,-1,0,-1
1528452819328072,-1,0,-1,-2,-1,0,1,0
1528452819328072,-1,-1,-2,0,-1,1,0,0
1528452819335053,0,0,0,-1,0,0,0,0
1528452819335053,-1,0,-1,-1,0,-1,-2,1
1528452819343032,1,0,0,0,-2,-2,0,0
1528452819343032,-1,0,0,-2,-1,-1,-2,-1
1528452819357992,1,1,-1,-1,0,-2,0,0
1528452819357992,-2,0,0,0,0,1,1,-2
1528452819364974,-1,-1,-2,-2,-1,0,-1,0
1528452819364974,0,1,-1,-1,-1,-1,-1,-2
1528452819373951,-3,-3,-2,-2,0,-1,0,-1
1528452819373951,-1,-1,0,0,1,1,-1,0
1528452819387929,0,1,-1,-1,0,-2,0,-1
1528452819387929,-1,-2,-1,1,-3,-1,0,0
1528452819394894,0,-2,0,-1,-1,-1,0,-1
1528452819394894,1,-2,-1,0,-2,-1,-1,0
1528452819402874,-1,-1,0,0,-1,-1,-1,0
1528452819402874,-2,-1,-2,-2,0,1,0,0
1528452819417839,0,0,-1,-1,-1,0,0,0
1528452819417839,-1,0,0,-1,-2,0,-1,0
1528452819424853,0,0,0,-1,-1,0,-3,-2
1528452819424853,0,0,-1,0,-1,-3,1,-1
1528452819433789,0,0,0,-1,-2,-1,-1,-1
1528452819433789,-2,0,-1,0,1,-1,0,0
1528452819447794,-1,1,-1,1,0,-2,1,1
1528452819447794,-2,-1,-1,-1,-1,1,-1,-1
1528452819454771,-3,-1,-1,0,-3,-2,-1,1
1528452819454771,0,1,0,1,0,-2,-1,-1
1528452819462754,-1,0,-1,0,0,-1,0,0
1528452819462754,0,-1,-2,0,2,0,-1,1
1528452819485651,0,-1,-1,-1,-1,-1,-1,0
1528452819485651,-1,-2,-1,-1,-1,0,-3,0
1528452819486648,1,-1,-1,0,-1,-1,-2,-1
1528452819486648,0,-2,0,0,0,-2,-1,-1
1528452819499613,-2,1,-2,-1,0,1,-2,-1
1528452819499613,1,-2,0,-1,0,-2,0,0
1528452819508641,0,0,-1,-1,-2,-3,-1,0
1528452819508641,0,-1,-1,-2,-1,-5,-2,0
1528452819514612,-1,0,0,0,-2,3,0,-1
1528452819514612,-2,-2,-2,-1,-1,0,-1,-2
1528452819522554,-2,-1,-2,0,-1,2,-2,0
1528452819522554,0,-1,-5,0,-3,-2,-1,0
1528452819537565,-2,-2,-1,-2,0,0,-1,-1
1528452819537565,-3,0,-1,1,-1,0,-1,-1
1528452819545490,0,0,0,0,1,0,0,-2
1528452819545490,-1,-1,0,-1,-2,1,0,1
1528452819560451,-1,0,-2,1,1,-1,-1,-1
1528452819560451,-1,-3,0,-1,-1,-1,0,-1
1528452819568430,-1,0,-1,-2,-1,0,0,-1
1528452819568430,-2,-1,-1,1,-1,1,0,0
1528452819575421,0,-2,-1,0,-2,-1,0,0
1528452819575421,0,0,-1,-1,0,-1,0,0
1528452819582395,-1,-1,-1,-1,0,1,-1,-1
1528452819582395,0,-1,0,-2,-2,-1,1,0
1528452819605331,1,-1,-1,0,-1,-1,0,0
1528452819605331,-2,0,-2,-2,-1,-1,-1,-1
1528452819606341,1,-2,-1,0,-1,-1,-1,0
1528452819606341,-1,-1,-1,1,0,0,-1,-1
1528452819620291,0,0,-1,-2,0,-2,-1,0
1528452819620291,1,0,-1,0,0,-1,-1,0
1528452819628270,-1,0,0,-1,-2,1,1,-1
1528452819628270,0,-1,-1,0,0,-2,-1,-1
1528452819635287,-1,0,-1,0,-3,-2,-1,0
1528452819635287,0,0,0,-1,-1,-2,-1,-1
1528452819642233,-1,0,-1,1,0,0,0,0
1528452819642233,0,0,-2,-1,-2,0,-1,0
1528452819657232,0,-3,-2,-1,0,-1,1,0
1528452819657232,1,0,0,-1,1,2,-1,-2
1528452819665198,-1,-2,-1,-1,-1,-2,-1,0
1528452819665198,-1,0,-1,-2,0,1,1,-1
1528452819680132,-3,0,0,0,1,-4,-2,2
1528452819680132,-2,-1,-1,0,-1,2,1,0
1528452819688110,-2,-1,-2,-1,0,-1,-1,-1
1528452819688110,-1,0,0,-2,-1,-1,-2,-1
1528452819695128,1,-2,-1,-1,-2,0,-1,-2
1528452819695128,0,-1,-2,0,-1,-3,1,-2
1528452819702125,-1,-2,0,-1,-1,0,-1,-2
1528452819702125,-1,-3,-2,-2,0,0,-2,0
1528452819717034,-2,-1,0,-2,-3,-3,0,-2
1528452819717034,-1,-2,0,-1,0,-1,-1,-1
1528452819725051,-1,-1,-1,-1,-1,1,-1,-1
1528452819725051,-1,-1,1,-1,-1,-2,-1,1
1528452819741966,0,-1,0,1,-1,1,-1,-3
1528452819741966,-1,1,1,0,-1,-1,-2,-1
1528452819747951,-1,0,-1,1,0,-1,0,1
1528452819747951,-1,-1,1,1,-1,-1,0,-1
1528452819754965,-1,1,0,-2,0,0,-1,0
1528452819754965,1,-1,-1,-2,0,-1,0,1
1528452819762944,-1,-2,1,0,1,-3,0,1
1528452819762944,0,-2,-2,-1,-1,1,0,-1
1528452819777871,-1,-1,-1,0,-1,0,-1,0
1528452819777871,1,0,-1,0,0,-2,-1,0
1528452819792831,-1,-1,-1,1,-1,-2,-2,-1
1528452819792831,0,1,0,-1,-1,-1,-1,-2
1528452819799838,-1,0,1,0,2,1,0,-1
1528452819799838,-2,-1,-1,1,-1,0,0,1
1528452819807829,-1,0,-2,-1,0,0,0,0
1528452819807829,1,0,-1,-1,-1,-1,0,-1
1528452819814792,-1,-2,0,0,0,-3,-2,-2
1528452819814792,-1,-2,-3,-1,-1,-1,-1,0
1528452819830730,2,-1,0,-2,0,-1,0,-1
1528452819830730,-3,-1,0,0,-3,-1,-2,1
1528452819837711,0,0,-1,0,1,-2,0,2
1528452819837711,-1,-1,0,0,0,0,-2,-1
1528452819844693,1,-2,0,-1,-1,2,-1,-3
1528452819844693,0,0,0,1,-1,-3,-2,-1
1528452819859651,0,-2,0,-2,-2,0,-1,1
1528452819859651,0,0,0,0,0,-1,0,-2
1528452819868627,0,-1,-3,0,-1,0,0,0
1528452819868627,-1,-2,-2,-1,-1,1,-1,-2
1528452819882590,-1,0,-2,-1,-1,0,-1,-1
1528452819882590,-1,-1,-1,-1,-1,1,-1,1
1528452819890571,-1,0,-1,0,-1,-2,0,1
1528452819890571,1,-3,-1,0,1,1,1,-1
1528452819897550,2,-3,-1,0,-2,0,0,1
1528452819897550,0,-1,0,0,-2,-3,-2,-1
1528452819904531,0,0,1,-1,0,0,0,-1
1528452819904531,-1,-1,-1,-1,-1,-2,-1,-2
1528452819920488,-1,-1,-2,-2,1,0,-2,-2
1528452819920488,0,0,-1,0,-2,-1,-2,0
1528452819928468,-1,-1,0,0,-2,-2,-2,0
1528452819928468,0,1,-1,-1,1,0,0,0
1528452819935449,-1,0,-1,0,-2,0,0,0
1528452819935449,-1,-1,0,0,0,-1,2,-1
1528452819950408,-2,0,-3,0,-1,-2,-1,-1
1528452819950408,-2,-2,1,-2,0,1,0,0
1528452819957390,1,-1,0,0,-2,0,0,-1
1528452819957390,-1,-2,-1,-2,-2,0,-1,-1
1528452819965368,-1,-2,-1,1,0,-1,-1,-1
1528452819965368,0,-2,-2,1,0,-1,-2,-1
1528452819980328,-1,-1,-1,-1,-1,0,-1,0
1528452819980328,-1,0,0,-2,1,-1,-2,1
1528452819988307,2,-2,-3,0,-1,-4,-1,0
1528452819988307,0,-1,-1,-1,-1,-4,-1,-1
1528452820002271,0,-1,-2,-1,1,4,2,-2
1528452820002271,0,0,-1,0,-1,1,-1,-2
1528452820010254,-2,-1,-1,-2,0,1,1,0
1528452820010254,-1,-1,1,-2,-2,-2,0,1
1528452820017247,-1,-2,0,0,0,-2,-2,0
1528452820017247,-2,-2,-1,0,1,1,-1,1
1528452820025209,-2,3,0,-1,0,-1,-2,-1
1528452820025209,0,0,-2,1,-2,1,-2,-1
1528452820040169,0,-2,1,-1,-1,-1,-2,-1
1528452820040169,-1,0,-1,0,-1,-1,-1,-1
1528452820048171,-1,-2,0,-2,-1,-2,0,-2
1528452820048171,-1,0,0,0,0,-1,0,0
1528452820055181,-1,0,0,-1,0,-1,0,0
1528452820055181,-1,-1,-2,0,-1,-2,-1,0
1528452820071139,2,0,0,-4,-1,0,-3,0
1528452820071139,0,-2,-1,-1,-1,-1,0,-1
1528452820094025,-1,-3,-1,1,0,2,1,-1
1528452820094025,-1,0,0,-1,0,0,1,-1
1528452820095059,-1,-1,0,0,-1,0,-1,0
1528452820095059,-1,0,-2,-2,-1,0,0,0
1528452820100010,-2,1,0,-1,0,-3,-1,-1
1528452820100010,0,-1,0,-2,0,-1,-1,-1
1528452820108131,-1,-3,-2,1,-1,-1,-1,-2
1528452820108131,-3,0,0,0,-1,0,1,-1
1528452820123111,-1,1,-1,-1,-2,-1,0,1
1528452820123111,-1,-2,0,1,-3,-2,0,0
1528452820130929,1,1,0,-1,-1,-1,1,-1
1528452820130929,0,-1,-2,0,0,1,-1,0
1528452820146030,-1,0,-2,-1,0,0,-1,-1
1528452820146030,-2,-1,-2,-1,0,-1,-2,2
1528452820147029,-2,0,-2,-1,-1,-1,-2,0
1528452820147029,-1,-1,-1,-1,-1,0,0,-2
1528452820161870,1,-3,-2,0,-2,-3,-1,-2
1528452820161870,0,1,-2,-1,0,-1,-1,1
1528452820168146,-1,-2,0,-1,1,2,1,0
1528452820168146,-2,-1,-1,2,-1,1,2,-1
1528452820183095,-1,-1,-2,0,-2,-1,-1,0
1528452820183095,-1,1,-1,-1,-2,-1,0,-1
1528452820191319,-1,-2,-1,-1,-2,-3,0,0
1528452820191319,2,0,-1,-1,0,-3,0,0
1528452820205910,0,0,1,-1,-1,-2,0,0
1528452820205910,0,-3,-1,-1,-1,-2,0,-1
1528452820206743,-1,-1,-1,-2,0,0,0,2
1528452820206743,0,-1,-2,-1,1,-1,-3,0
1528452820236663,-1,-2,-2,0,-1,0,-3,-1
1528452820236663,2,-1,-2,0,-1,0,0,-2
1528452820237660,1,-2,-1,-1,-1,0,0,-3
1528452820237660,-1,2,-1,-2,-2,0,0,0
1528452820242647,-2,1,-1,-2,-1,1,-1,0
1528452820242647,0,1,1,-1,0,0,-1,-2
1528452820250955,-1,-2,-2,1,0,0,-1,0
1528452820250955,-1,-2,-1,-1,0,0,-1,0
1528452820265767,-3,0,1,0,-2,-3,-1,-1
1528452820265767,0,-2,-1,-1,0,-1,-1,-1
1528452820266921,0,-1,0,0,-2,0,0,1
1528452820266921,0,-2,-2,0,0,-2,-1,-1
1528452820279889,-1,0,-2,-2,0,0,0,-3
1528452820279889,-1,-1,-1,-1,-2,-1,0,0
1528452820288062,0,0,-2,-1,0,0,0,-1
1528452820288062,-1,-3,1,-1,0,-1,0,0
1528452820302240,-1,-1,-2,-1,1,-1,1,0
1528452820302240,1,-1,-2,0,1,0,1,-1
1528452820310594,-1,0,-3,-1,0,-1,-2,-1
1528452820310594,-2,0,0,1,-1,-1,0,-1
1528452820325602,-1,-1,-2,0,-2,-1,0,0
1528452820325602,0,-1,0,-2,-1,0,0,0
1528452820326609,0,-2,0,1,-2,-1,-1,0
1528452820326609,0,-1,0,0,1,-1,0,-1
1528452820340588,-1,0,0,-1,0,0,-2,0
1528452820340588,-1,0,0,0,0,-2,-1,-1
1528452820348536,-1,0,-3,-1,-2,0,1,0
1528452820348536,0,-1,-1,-2,-1,-1,0,0
1528452820362637,0,-3,0,1,-1,-2,1,-1
1528452820362637,-1,0,0,-1,-2,-1,-1,-1
1528452820370616,0,0,0,0,-2,0,-2,1
1528452820370616,0,0,-1,-1,1,-1,0,0
1528452820385437,0,-1,0,0,0,0,-2,0
1528452820385437,0,-2,0,0,0,-1,0,1
1528452820386434,-2,0,-2,-1,-1,-2,-1,-1
1528452820386434,1,0,-1,-1,-1,0,-1,-2
1528452820400398,0,-1,-2,1,-1,0,0,-3
1528452820400398,-1,-1,-2,-2,-1,-2,-3,-3
1528452820408505,0,-1,-1,1,1,-1,0,0
1528452820408505,1,0,-1,0,-3,1,0,2
1528452820431460,1,-3,0,-1,-2,-2,0,-2
1528452820431460,-1,0,-3,-1,0,0,0,0
1528452820432312,-1,0,0,0,-1,-1,0,-2
1528452820432312,-1,-1,1,-1,-1,-1,0,-1
1528452820445483,1,-1,-2,0,-2,0,-2,0
1528452820445483,0,-1,-2,1,-1,0,-1,-2
1528452820446482,0,-1,1,-2,-1,0,-1,-2
1528452820446482,0,0,-1,0,1,0,1,-1
1528452820459825,-1,-2,-2,-2,-1,-1,-1,0
1528452820459825,-1,0,0,-2,0,1,0,2
1528452820468798,-1,1,0,-1,1,1,0,-1
1528452820468798,0,0,-1,-1,0,-3,-1,-1
1528452820482916,-1,-1,-1,-1,1,-1,-1,-2
1528452820482916,-1,-2,0,2,-1,-1,-2,-2
1528452820491097,-2,-1,-2,-3,-1,0,0,1
1528452820491097,-2,-1,-1,-2,-1,0,1,1
1528452820506243,-1,0,0,1,0,-2,-1,-1
1528452820506243,-1,-1,-2,-2,0,0,0,0
1528452820506243,1,0,-1,-1,-1,-2,0,-1
1528452820506243,0,0,-1,0,-1,0,-1,-2
1528452820520364,0,-1,-1,-2,0,0,-1,0
1528452820520364,-2,0,1,-1,1,-1,0,-1
1528452820528186,-1,-1,0,-1,-2,-2,-2,-1
1528452820528186,-2,1,-1,-2,-1,0,-2,-1
1528452820542150,-1,0,0,-1,-2,0,0,1
1528452820542150,-1,-1,1,0,-1,0,-1,1
1528452820551282,-1,-3,0,0,-1,0,-2,0
1528452820551282,-2,-1,0,0,-2,-1,0,1
1528452820565312,1,0,1,-1,0,-1,-1,-2
1528452820565312,-2,-2,-2,0,1,0,0,0
1528452820566299,-1,0,0,1,1,-1,1,0
1528452820566299,0,-1,-2,-1,0,-1,-1,-1
1528452820589435,-1,0,-1,0,-1,-1,0,0
1528452820589435,-1,-1,-1,-1,-2,-2,-1,1
1528452820589435,-1,-2,-2,0,1,-1,0,-1
1528452820589435,-2,0,-1,-1,0,0,-3,-1
1528452820602380,0,-2,-2,0,0,-1,0,-1
1528452820602380,-2,1,-1,-2,-3,0,-1,-1
1528452820610750,0,-1,-1,-2,0,0,-1,-2
1528452820610750,0,-1,-2,0,0,0,-3,-1
1528452820624882,-1,-1,-2,-3,-1,-1,0,-2
1528452820624882,0,-1,0,0,-2,-1,-1,0
1528452820640736,0,-1,0,-1,-4,-1,0,0
1528452820640736,-2,-1,-2,0,-2,-2,0,-2
1528452820641833,-1,0,0,1,-2,1,-1,-1
1528452820641833,-1,-1,-2,0,0,-1,-1,-2
1528452820648787,-2,-2,0,0,1,1,0,-1
1528452820648787,0,-3,-2,0,-2,-1,-1,-1
1528452820662676,1,-1,0,-1,0,-1,0,-1
1528452820662676,0,-1,0,0,-1,-1,0,0
1528452820671621,-2,0,-2,-1,0,0,0,-1
1528452820671621,0,-1,1,0,0,0,0,-2
1528452820685669,0,-1,-1,0,0,-1,0,-1
1528452820685669,0,1,-2,1,-1,0,-1,0
1528452820694567,-2,-1,-2,0,-1,-1,-1,-1
1528452820694567,0,0,-2,-1,0,-1,0,-1
1528452820700644,-2,-1,-2,-3,0,-1,-1,0
1528452820700644,-1,0,0,-1,0,-2,0,-1
1528452820708746,0,1,0,-2,-1,0,-2,-1
1528452820708746,0,0,-1,-1,-1,0,0,-1
1528452820722792,-1,-1,0,0,-1,-2,-1,0
1528452820722792,-1,-1,-1,-3,-2,0,-1,-1
1528452820731632,-2,1,0,-1,0,1,1,0
1528452820731632,-1,-2,0,-4,-1,-1,0,0
1528452820744598,1,0,1,-4,-1,0,-1,-2
1528452820744598,-1,-1,0,6,0,-1,-1,-3
1528452820754639,0,-1,0,2,0,-1,0,-1
1528452820754639,0,-1,-1,-11,-4,-2,-2,-1
1528452820759605,-3,-1,-5,-19,-6,0,-1,0
1528452820759605,0,-1,3,30,5,0,0,-1
1528452820792498,0,-2,0,15,2,-1,-1,0
1528452820792498,-1,-1,-3,-6,-2,0,0,1
1528452820792498,0,1,4,-2,1,0,0,0
1528452820792498,1,0,-12,-44,-9,-1,0,1
1528452820794478,1,0,-2,8,-2,0,2,-1
1528452820794478,-2,-2,13,51,5,0,-1,-1
1528452820804802,-1,-2,-2,-17,-3,0,-1,0
1528452820804802,-2,-3,-3,-13,-2,0,-1,-1
1528452820813625,-1,-2,-4,9,6,2,-2,-2
1528452820813625,1,0,-6,-8,-2,-1,0,-1
1528452820820603,0,2,7,4,0,-1,0,0
1528452820820603,-1,1,0,5,-4,-1,0,-1
1528452820829582,1,-1,-4,-25,-9,-1,-1,1
1528452820829582,-1,-1,-3,-2,0,-1,-2,0
1528452820842536,-2,-1,-3,7,2,-1,-3,-1
1528452820842536,0,-1,-1,-5,1,0,0,-1
1528452820851718,1,-1,1,0,0,-1,-2,-1
1528452820851718,-3,-1,1,-1,1,-1,1,-1
1528452820864714,0,-1,-3,-2,-1,-2,-1,-1
1528452820864714,0,-2,0,-4,-2,-1,-1,0
1528452820873662,-1,0,-1,-3,0,0,-1,-2
1528452820873662,-1,0,-1,7,3,0,-1,-1
1528452820879646,-1,-2,-3,8,1,0,0,0
1528452820879646,-1,-1,5,9,3,-1,0,0
1528452820888817,0,-1,1,0,-2,-1,-1,-1
1528452820888817,1,-2,-3,-14,-4,-1,-2,0
1528452820902807,-2,-2,-3,2,-1,1,0,0
1528452820902807,-1,-2,-1,4,0,-1,-1,-1
1528452820911833,-1,0,0,-6,-5,-1,0,0
1528452820911833,0,-1,-3,-8,-3,-2,-1,0
1528452820924955,1,0,-1,8,-1,-1,-2,-1
1528452820924955,0,-1,0,3,0,0,1,-1
1528452820933795,-1,1,0,-4,-1,-2,0,-1
1528452820933795,1,-1,1,-1,0,-1,0,-1
1528452820948735,1,0,-1,3,0,-2,1,-1
1528452820948735,-2,-2,-4,-4,-2,0,-2,-1
1528452820950729,0,0,0,-4,0,-2,-1,-1
1528452820950729,-1,1,5,8,0,-1,1,0
1528452820962854,0,0,2,-3,0,-1,-1,-1
1528452820962854,-1,-1,-1,0,0,-1,-1,-1
1528452820971674,-1,-3,-4,-3,-1,-2,0,0
1528452820971674,-1,-2,-4,-8,-2,0,0,1
1528452821000629,0,0,2,0,-2,-1,-1,1
1528452821000629,1,1,0,2,-1,-2,0,-1
1528452821010704,-3,-1,-2,0,-2,0,-2,-1
1528452821010704,-1,0,-4,-4,-1,-2,-2,-2
1528452821012702,-1,-1,-3,2,-2,-3,0,0
1528452821012702,1,-2,1,0,1,-2,-1,-1
1528452821015661,-1,1,1,-2,0,1,0,0
1528452821015661,-1,-1,-7,-3,-1,-1,-1,-1
1528452821022675,-1,0,-1,-3,-2,-1,-3,-1
1528452821022675,0,0,1,1,-1,-1,-1,0
1528452821031523,0,-2,-1,0,-5,0,-1,0
1528452821031523,-1,0,4,0,1,1,-1,0
1528452821044874,-2,-2,-4,1,0,-1,-1,-1
1528452821044874,-1,-2,0,-1,1,0,0,-1
1528452821053852,0,-2,0,2,-1,-2,-2,-1
1528452821053852,0,0,-2,-2,-4,-1,-2,0
1528452821068035,-1,1,-1,-1,0,-1,-1,1
1528452821068035,0,-1,0,1,0,-2,0,0
1528452821076979,-1,-2,-1,0,1,1,0,-1
1528452821076979,0,-1,1,-4,0,-2,1,0
1528452821082963,0,-2,0,0,-2,1,-1,0
1528452821082963,-1,-1,-2,-1,-2,1,0,-1
1528452821091940,-1,-1,-1,-1,0,-1,0,-1
1528452821091940,-2,-1,0,1,0,-3,0,0
1528452821104914,-2,-1,-2,0,1,1,-1,0
1528452821104914,-2,-1,-1,0,0,1,-1,0
1528452821129852,0,0,-1,0,-2,0,-2,-1
1528452821129852,-1,1,-1,-3,-2,-1,-2,-1
1528452821130835,1,-1,2,-1,0,-2,0,-1
1528452821130835,-1,1,0,1,-1,1,0,-1
1528452821132829,-1,1,0,-2,0,0,0,-1
1528452821132829,-2,-2,-1,-2,0,1,0,-4
1528452821142806,0,-1,0,-1,1,-1,-1,-1
1528452821142806,1,-1,1,0,-1,-2,0,0
1528452821151780,0,-2,-1,0,0,0,-2,1
1528452821151780,0,-3,-2,-2,-2,0,-1,0
1528452821164802,-2,1,0,-2,-1,0,1,-1
1528452821164802,-1,-3,-1,-1,-2,-1,0,-1
1528452821173721,0,0,-2,-1,0,-1,-1,-1
1528452821173721,-1,-1,-1,0,0,0,-2,-1
