timestamp,emg1,emg2,emg3,emg4,emg5,emg6,emg7,emg8
1528442770568791,0,-1,0,0,0,0,-1,1
1528442770568791,-1,-2,0,0,0,-2,-2,0
1528442770575763,-2,1,-2,-3,-4,1,0,0
1528442770575763,1,0,0,0,0,-2,-1,0
1528442770582753,0,-1,-1,-1,-3,0,0,-2
1528442770582753,-1,0,1,0,3,-1,-1,-1
1528442770599672,1,0,2,1,0,-4,1,-1
1528442770599672,-2,1,0,0,0,-1,0,-1
1528442770605693,-2,-2,-2,-1,-1,0,1,-1
1528442770605693,0,0,-1,-1,-2,1,-1,-1
1528442770614632,-2,0,-1,-2,0,0,1,-1
1528442770614632,0,-1,-1,-2,-1,0,-3,0
1528442770628595,1,0,-1,-1,0,0,0,-1
1528442770628595,-1,-2,-1,0,-1,0,0,0
1528442770635615,-1,-2,0,-1,-1,-1,-2,0
1528442770635615,0,0,-1,1,1,-1,1,0
1528442770643555,-1,0,0,-4,-5,-2,0,1
1528442770643555,0,1,-1,0,-2,0,-2,-1
1528442770659513,-1,0,-2,0,0,0,-1,-1
1528442770659513,-1,-3,-3,2,3,1,-1,-1
1528442770665529,-1,0,0,-4,-7,-1,-1,0
1528442770665529,-2,1,2,-1,0,-1,-1,1
1528442770674472,-2,-1,0,0,-2,0,0,0
1528442770674472,0,-2,-2,1,1,-2,0,-1
1528442770688485,-3,-1,-1,0,0,1,-2,0
1528442770688485,0,-3,-1,-2,-2,0,1,0
1528442770695467,-1,1,-1,-1,0,1,-2,1
1528442770695467,-1,-2,-1,-1,-1,0,-1,-1
1528442770703395,-1,1,-1,0,1,-3,-1,-2
1528442770703395,-1,-2,1,-1,-2,-1,0,0
1528442770718356,-1,-1,-1,-1,-1,-1,0,-2
1528442770718356,-1,-1,-1,-2,-1,-2,0,0
1528442770725383,-2,-2,-1,0,2,-1,0,-1
1528442770725383,1,1,0,-3,-3,-1,1,0
1528442770741314,-1,-1,-1,3,4,1,0,-1
1528442770741314,0,-1,-1,-7,-10,-1,0,-4
1528442770742292,-1,0,-1,3,2,0,-2,-1
1528442770742292,-1,-1,-2,1,2,0,-2,0
1528442770755256,0,-1,-2,-2,-2,0,-2,0
1528442770755256,1,-1,-1,1,1,3,-1,1
1528442770763269,0,2,1,-1,1,-2,-2,-2
1528442770763269,-2,0,-1,1,-1,-1,0,-1
1528442770778225,1,0,2,-2,-2,-3,0,0
1528442770778225,-1,0,0,1,2,-1,-1,-1
1528442770785209,0,-3,-2,-4,-1,2,1,0
1528442770785209,-1,-1,-3,1,1,-1,-1,-1
1528442770795165,0,-2,0,-2,-1,-1,2,-1
1528442770795165,-2,0,-1,0,1,0,-1,0
1528442770801169,-1,0,-1,2,1,0,-1,2
1528442770801169,0,-1,-1,1,0,1,-3,-1
1528442770816093,-1,-1,1,0,-4,-1,-2,0
1528442770816093,0,0,2,1,1,1,-2,-1
1528442770823113,1,-1,1,-2,0,-1,-2,1
1528442770823113,0,-2,-2,1,2,-1,0,0
1528442770846014,0,0,-1,-6,-4,0,-2,-2
1528442770846014,-1,-1,-2,1,-2,0,-2,0
1528442770847011,-1,0,-1,3,1,-2,0,0
1528442770847011,-1,1,0,-2,-2,1,-1,-2
1528442770854990,0,-1,-1,2,1,3,-2,0
1528442770854990,-2,0,0,0,0,1,0,1
1528442770860974,-2,-3,-2,-1,-2,-1,0,-1
1528442770860974,1,-1,0,-2,-1,-1,-3,0
1528442770875954,-2,2,0,0,1,-2,-2,-1
1528442770875954,-1,0,-1,-2,0,1,0,-2
1528442770882916,0,0,-1,-1,0,0,-1,1
1528442770882916,-3,-2,-1,-2,0,0,0,0
1528442770897883,-1,-1,0,-1,-2,-1,1,-1
1528442770897883,-1,0,0,-1,0,-2,-1,-1
1528442770905854,-2,1,-2,2,4,3,-1,-1
1528442770905854,-1,0,1,-5,-4,-1,-1,0
1528442770914830,-3,-2,-1,-3,-6,-1,1,-1
1528442770914830,-1,-2,1,1,-2,1,-2,0
1528442770920860,0,-2,0,-1,-2,0,1,0
1528442770920860,0,0,0,3,0,-2,1,-3
1528442770935817,0,0,-3,1,0,2,-3,0
1528442770935817,-1,-1,-1,-1,-3,-2,-2,2
1528442770942763,1,2,0,1,0,-1,0,-1
1528442770942763,-1,0,-1,0,1,0,0,-1
1528442770957715,-2,-1,-3,-3,-1,-1,-1,0
1528442770957715,0,-2,-1,3,2,-2,1,0
1528442770965737,-1,-2,-1,-2,0,0,0,0
1528442770965737,-1,0,0,-1,-2,1,0,0
1528442770975692,0,-1,1,3,2,0,-1,-2
1528442770975692,0,0,-1,-1,0,0,0,-1
1528442770988675,-1,-1,-2,-1,-2,-2,0,-1
1528442770988675,0,2,-2,0,0,-1,-1,2
1528442770995647,0,0,0,0,1,-2,-1,1
1528442770995647,-1,0,-1,-5,-4,1,0,1
1528442771019605,1,-2,-2,-1,-2,-1,-2,-2
1528442771019605,-1,-3,-2,0,1,0,-1,0
1528442771021597,0,2,-1,1,-1,-1,-2,-1
1528442771021597,-3,0,1,1,3,-3,0,-1
1528442771025534,-1,-3,-1,-2,-4,-2,-1,0
1528442771025534,0,-2,-3,-2,-1,0,-1,-1
1528442771040552,-1,-2,-1,-1,0,0,0,-1
1528442771040552,-2,-2,0,-2,-2,1,-1,0
1528442771048522,0,0,0,0,0,0,1,-2
1528442771048522,-1,-1,-2,0,1,-1,-1,-3
1528442771063488,-1,-1,-2,-1,0,-2,-1,-1
1528442771063488,1,-1,-2,-1,-2,0,-1,-1
1528442771064432,0,1,1,0,-1,-1,-2,0
1528442771064432,-1,0,0,-1,-2,-1,-2,0
1528442771078392,-1,1,-2,-2,0,-1,0,1
1528442771078392,-1,-3,-2,2,2,-2,3,0
1528442771094405,-2,-2,-2,-8,-7,-2,0,0
1528442771094405,-2,-1,-2,0,-1,0,-2,0
1528442771100387,-1,-2,1,0,1,-1,0,1
1528442771100387,0,-1,1,-1,-1,0,-1,0
1528442771109321,-2,-2,-4,1,2,1,0,-1
1528442771109321,0,-1,1,0,0,-3,1,-2
1528442771124322,1,1,1,-1,-1,-1,0,0
1528442771124322,0,2,-1,0,-1,-2,-2,-1
1528442771124322,0,0,1,0,-1,0,-1,0
1528442771124322,-1,-2,-3,-3,-2,-1,0,0
1528442771138233,-2,-4,-3,1,1,0,-1,-2
1528442771138233,-2,1,0,-2,-2,-1,-2,-2
1528442771154238,-2,-3,0,0,2,-1,0,1
1528442771154238,-2,0,1,0,-2,1,-1,1
1528442771156185,1,0,-1,0,0,0,-2,0
1528442771156185,-1,2,-1,-3,-1,-2,-2,0
1528442771177129,-2,1,-2,1,0,-3,-4,-2
1528442771177129,0,-4,-2,-2,0,-1,-1,0
1528442771178153,-3,-1,-2,-2,-2,2,-1,-1
1528442771178153,1,0,1,6,4,0,0,0
1528442771191145,-2,1,0,-7,-3,-1,-2,0
1528442771191145,1,2,0,2,3,-2,1,-2
1528442771198133,-1,0,1,-2,-8,-4,-2,-3
1528442771198133,-2,-2,-1,-4,-1,0,0,0
1528442771215272,-1,1,0,2,0,0,0,0
1528442771215272,1,-1,1,0,1,0,-1,-2
1528442771217024,0,0,0,-3,1,1,-2,0
1528442771217024,0,-1,-2,-1,0,-1,-1,-2
1528442771229552,-1,-1,-1,-1,-1,0,1,0
1528442771229552,-1,-1,0,-3,-2,-1,-1,0
1528442771236387,1,-1,0,0,2,-2,0,-1
1528442771236387,-1,-1,-2,-2,-3,1,-1,-3
1528442771243730,1,1,5,3,2,-1,-1,-1
1528442771243730,-1,2,-1,0,-3,3,-2,-1
1528442771257998,-2,-3,-3,-4,-1,-1,0,0
1528442771257998,-3,-3,-3,-1,-1,-1,-1,1
1528442771265980,-3,-2,-2,-1,-2,0,-1,-1
1528442771265980,-1,-3,-1,-1,1,0,-1,1
1528442771274956,1,5,3,1,1,1,-2,1
1528442771274956,2,1,-1,-2,0,0,0,0
1528442771296898,-3,-3,-1,-3,-3,1,-1,1
1528442771296898,-5,-3,-2,-1,-1,-1,-2,-2
1528442771298692,0,-3,-4,0,1,-2,0,-1
1528442771298692,-3,-2,-1,3,3,-1,-1,1
1528442771311660,1,1,0,-6,-3,1,-2,-2
1528442771311660,-1,-2,-3,2,-1,1,-1,-2
1528442771318645,-2,-1,0,1,-1,0,0,-2
1528442771318645,0,0,-1,0,0,-1,0,-2
1528442771325908,1,-2,-1,1,1,-1,0,-2
1528442771325908,-2,0,0,-1,-3,-3,0,-2
1528442771341140,-2,-1,0,-2,-1,-2,-1,0
1528442771341140,-2,-1,0,0,-2,0,-1,0
1528442771349553,-2,2,-3,1,2,1,1,1
1528442771349553,-2,2,1,0,-1,-4,-2,-2
1528442771364309,-1,0,1,0,-1,-1,1,-2
1528442771364309,-1,0,-2,-3,-2,-1,0,0
1528442771371289,2,-1,-2,2,5,-1,0,1
1528442771371289,-1,0,1,-8,-7,-1,0,1
1528442771378271,0,-3,0,1,1,0,0,1
1528442771378271,-2,-3,0,-1,-2,-2,1,-2
1528442771385252,0,0,-1,0,-2,-2,-1,-1
1528442771385252,-2,-2,-2,2,3,-1,-2,-1
1528442771401448,2,0,0,0,-2,-2,1,-1
1528442771401448,-1,0,-2,-1,-2,1,-1,-1
1528442771409189,-1,-1,-1,0,-5,0,-2,-2
1528442771409189,1,2,0,1,2,0,1,1
1528442771424185,0,-2,-1,0,2,-1,-1,-2
1528442771424185,1,0,1,-5,-5,-1,-1,0
1528442771424185,-1,1,1,0,-1,-2,1,1
1528442771424185,0,-2,-1,-2,-2,0,0,0
1528442771438744,-2,0,-3,0,-2,-2,-3,1
1528442771438744,-1,-2,1,0,2,2,-1,-1
1528442771446561,0,0,-2,0,-4,2,0,-2
1528442771446561,-1,0,2,0,-2,0,1,0
1528442771461459,0,1,-2,0,0,-6,-2,0
1528442771461459,-2,0,-2,0,-1,-2,-3,1
1528442771469343,-2,-3,-1,-3,0,-1,-2,-1
1528442771469343,0,1,-1,-1,0,0,-1,-1
1528442771484801,-1,0,-4,0,-3,2,0,-2
1528442771484801,-1,0,1,-2,0,-2,0,0
1528442771491777,-3,-1,-2,3,0,-1,1,-2
1528442771491777,-1,-3,-1,1,1,2,-1,-1
1528442771498758,-2,-2,0,-3,-3,1,-1,1
1528442771498758,0,-3,-3,0,-3,-2,-3,-2
1528442771505736,0,-1,-1,0,1,-1,-2,-1
1528442771505736,2,-1,-1,-4,-3,0,-3,0
1528442771520696,-3,0,-2,-2,-1,0,-1,-3
1528442771520696,-1,-1,0,2,1,-2,0,-1
1528442771529448,-1,-1,-1,-2,0,0,-1,0
1528442771529448,-1,-2,-1,-1,0,0,0,0
1528442771543955,-1,0,0,-1,-1,0,2,-2
1528442771543955,1,-2,0,0,-1,0,0,0
1528442771544955,-1,-2,-2,-3,-1,3,2,-1
1528442771544955,-1,0,-1,-1,0,-1,-2,1
1528442771566244,0,-1,-1,1,2,2,1,1
1528442771566244,-1,0,-1,-4,-4,0,0,-3
1528442771567210,-1,1,1,1,-3,0,-2,-1
1528442771567210,0,1,1,2,1,-1,0,-2
1528442771580756,-1,-2,-2,-1,-1,0,-1,-2
1528442771580756,1,0,-2,2,0,-1,1,2
1528442771588762,-1,-2,-1,0,3,0,-2,-3
1528442771588762,0,1,0,-5,-8,0,-2,-1
1528442771603988,3,1,-2,0,0,0,-1,0
1528442771603988,-1,-1,-3,0,-2,0,-1,-3
1528442771604722,1,1,0,0,3,1,1,-1
1528442771604722,1,0,2,-1,-5,-2,-1,-1
1528442771619991,-4,-4,1,-2,-1,0,-2,1
1528442771619991,-2,2,0,-1,1,0,-1,-1
1528442771626010,-2,-4,-3,-2,-2,-2,-1,0
1528442771626010,2,2,-1,2,3,-3,1,-3
1528442771641191,-1,3,2,-1,-2,0,1,-1
1528442771641191,-1,-2,-1,-3,-1,1,0,1
1528442771649501,0,2,-1,0,-1,-2,-1,0
1528442771649501,-2,-3,-4,1,1,0,-1,0
1528442771664602,-1,-1,0,-1,-1,-2,0,-2
1528442771664602,0,1,2,2,1,-1,0,-1
1528442771664602,0,0,0,-3,-5,0,-1,-1
1528442771664602,-1,0,-2,0,0,-1,0,0
1528442771678963,2,-1,-1,-2,-1,-3,-1,1
1528442771678963,-1,-3,-2,0,0,0,1,-2
1528442771686131,1,0,-1,-2,-1,-1,-3,0
1528442771686131,-2,-2,0,-2,-2,1,-3,-1
1528442771709830,1,-2,-3,0,0,0,-1,-1
1528442771709830,0,2,1,1,-2,-2,0,1
1528442771710556,-1,1,1,-5,-4,-1,-2,-1
1528442771710556,-1,-2,-2,1,1,2,1,-2
1528442771724612,1,0,0,0,1,0,0,0
1528442771724612,-1,0,0,-1,0,0,0,-1
1528442771725530,-1,-2,-1,3,3,0,0,0
1528442771725530,-2,-1,-1,-5,-2,0,0,1
1528442771738744,-1,3,-1,-3,-4,-1,-1,-1
1528442771738744,1,-1,0,-1,-1,-1,-2,-2
1528442771745725,-1,0,0,0,0,-2,1,-1
1528442771745725,-2,-3,-1,2,3,-1,0,-4
1528442771760456,-3,-1,0,0,1,-1,-2,0
1528442771760456,1,0,0,-4,-3,-2,-2,-1
1528442771769643,0,-1,-2,1,1,-2,0,-1
1528442771769643,0,-3,0,0,-1,-1,-2,2
1528442771783701,-3,1,2,0,0,1,-1,1
1528442771783701,0,1,-1,1,0,1,0,-2
1528442771784701,0,0,0,-1,-1,0,0,0
1528442771784701,0,0,-2,-3,-1,-1,0,0
1528442771799974,-2,-4,-4,1,-1,-1,-2,-4
1528442771799974,-2,-5,-2,-1,-1,-2,-2,0
1528442771806221,-2,3,1,-1,-1,0,-1,-3
1528442771806221,1,4,0,3,0,-1,0,1
1528442771821175,1,-1,0,-1,0,0,-2,0
1528442771821175,-2,-1,-3,-1,-3,-2,-2,-1
1528442771829474,-1,-3,1,2,-1,1,0,-2
1528442771829474,-1,3,0,-1,0,-1,-1,-1
1528442771852446,-1,-2,-2,-3,-3,0,-1,-1
1528442771852446,1,-2,0,-2,-5,-1,0,0
1528442771853645,0,-1,-2,0,0,-2,-1,-2
1528442771853645,-3,0,-2,1,0,0,-1,0
1528442771858426,-1,-2,-1,3,2,0,-2,-1
1528442771858426,-2,4,2,-2,-2,-1,-1,-1
1528442771873769,-2,-3,-3,0,0,2,-1,-1
1528442771873769,0,-3,1,-3,-2,-1,-1,0
1528442771880998,1,0,-1,0,-1,-1,-1,0
1528442771880998,-2,0,1,1,2,-2,0,-3
1528442771888992,-1,-1,-3,0,0,-2,0,1
1528442771888992,-1,-1,-2,-3,0,-2,1,-2
1528442771903512,-1,1,2,-1,-2,0,1,-1
1528442771903512,-1,-2,-1,-1,2,0,-1,0
1528442771911485,-3,0,-2,-2,-3,1,-2,-1
1528442771911485,1,-1,-1,0,-1,-2,-1,-2
1528442771918465,-3,-1,-2,1,3,-1,-1,-1
1528442771918465,-1,1,1,-5,-7,0,-3,0
1528442771926454,2,2,2,-3,3,0,1,0
1528442771926454,-1,0,0,1,0,-2,-1,-2
1528442771941380,-1,-2,-3,-1,-2,-1,-2,-2
1528442771941380,-1,-2,-3,-1,2,2,-1,-1
1528442771949128,1,-5,-1,-3,-2,-1,-1,3
1528442771949128,-1,-2,-1,0,1,1,-1,-2
1528442771963093,-1,2,2,-1,-1,0,0,-1
1528442771963093,-4,-2,-3,0,1,-1,2,0
1528442771972084,-2,0,-1,-1,-2,-2,-1,-2
1528442771972084,-1,-1,-1,-1,-1,-1,-2,-1
1528442771987057,1,-3,-2,-1,0,-1,2,1
1528442771987057,1,1,-1,-2,1,0,0,-1
1528442771987057,-1,1,0,1,0,2,-1,-1
1528442771987057,-1,-2,-3,-2,0,1,-1,2
1528442772001219,-1,0,0,0,0,-2,-2,-2
1528442772001219,1,3,0,9,3,-1,0,2
1528442772016505,-3,-1,-2,-11,-10,-3,2,0
1528442772016505,0,-1,-2,0,1,1,-1,-1
1528442772023790,-2,-2,0,-2,-3,-2,-2,1
1528442772023790,2,2,0,0,0,-1,1,1
1528442772040191,-1,1,0,2,1,1,-3,-1
1528442772040191,-1,-2,-2,0,-1,-1,-2,-1
1528442772047145,1,-1,1,-2,0,1,-1,-1
1528442772047145,-3,-4,-2,-1,1,0,-1,-1
1528442772047145,0,-4,-1,1,1,-2,-2,-1
1528442772047145,-2,2,-1,0,-3,0,0,-1
1528442772062733,-1,-3,-1,-1,0,-1,0,-1
1528442772062733,2,-3,-3,-2,-1,-1,-1,2
1528442772069246,-1,2,1,-1,-1,-1,-2,0
1528442772069246,1,0,0,1,1,-2,1,-1
1528442772092138,-2,0,-1,-2,-2,-2,-1,-3
1528442772092138,-2,-5,-4,-1,-2,1,0,0
1528442772092933,-1,-1,-1,0,3,0,0,0
1528442772092933,0,2,2,-6,-8,-1,0,0
1528442772115136,-2,2,-1,2,1,2,0,1
1528442772115136,-3,-2,1,-3,-4,0,-2,-2
1528442772116155,2,-3,-5,2,5,0,0,-1
1528442772116155,-1,0,-2,-1,-4,-2,-1,-1
1528442772121441,0,-3,-3,-2,-1,-2,1,1
1528442772121441,0,-2,1,0,2,-2,-1,0
1528442772129417,3,1,2,3,2,-2,1,0
1528442772129417,-1,-2,-1,-3,-5,-1,-2,1
1528442772143409,-1,-2,-3,-3,-1,0,-1,1
1528442772143409,-1,1,3,1,-1,-2,-1,0
1528442772151648,0,-1,-2,1,-1,-2,0,-1
1528442772151648,0,-1,1,-3,0,-1,-2,0
1528442772166366,-1,-1,-1,2,-2,0,-2,-2
1528442772166366,-3,-1,-2,-1,3,-1,0,0
1528442772167345,-2,-1,-3,-4,-8,0,-2,1
1528442772167345,0,-2,-2,1,3,-1,1,-1
1528442772181448,0,0,1,5,3,0,1,1
1528442772181448,2,1,1,-6,-3,1,-1,0
1528442772189290,-2,-2,1,1,-1,1,0,-2
1528442772189290,-3,-3,-1,2,1,0,-1,1
1528442772203696,0,-1,1,0,-1,-1,-2,-1
1528442772203696,0,0,-2,0,-1,0,-2,1
1528442772212078,-1,2,-1,-1,-1,0,-1,1
1528442772212078,-1,0,0,2,1,0,0,-3
1528442772234616,-1,-2,-2,-3,0,-1,-2,-1
1528442772234616,-1,-1,1,0,-2,1,-1,-2
1528442772235614,-1,0,-1,-1,1,-1,-1,0
1528442772235614,0,0,2,2,3,-2,-1,0
1528442772240632,-2,2,-1,-2,0,1,-2,1
1528442772240632,-1,-1,-2,-1,-2,-2,0,-1
1528442772248624,0,0,0,0,-1,-1,-1,-3
1528442772248624,0,1,-2,-2,1,2,-1,1
1528442772263594,1,-1,-1,1,0,-7,-2,1
1528442772263594,-2,-2,0,-4,-7,-1,-2,-1
1528442772271566,0,0,0,0,-1,-1,-1,1
1528442772271566,1,0,1,4,4,0,1,1
1528442772286478,0,2,0,-6,-6,-1,2,-1
1528442772286478,1,-1,-3,1,0,1,2,-1
1528442772287521,2,-2,-2,-1,-1,-2,-1,-1
1528442772287521,-3,-2,-2,-2,-4,-1,0,0
1528442772300488,-1,-2,0,-1,0,1,-2,-1
1528442772300488,-2,-1,-2,0,0,-1,-2,-2
1528442772309416,-2,-1,-1,-2,0,1,-2,-1
1528442772309416,0,-2,0,0,1,0,-1,-1
1528442772323433,-1,-2,0,-1,-4,0,0,-1
1528442772323433,-1,0,-2,0,1,-2,-1,0
1528442772339340,1,3,1,-1,1,-1,0,-1
1528442772339340,-1,-3,-3,0,-2,-1,0,-3
1528442772346374,-2,-1,-1,0,1,2,0,0
1528442772346374,-1,-1,-1,0,1,0,-1,1
1528442772347315,-1,-2,0,-4,-4,-1,-1,-1
1528442772347315,0,2,2,-1,0,-2,-1,2
1528442772369260,-1,0,0,-2,-2,-5,-1,-1
1528442772369260,1,-1,-1,2,-1,2,0,0
1528442772370254,-1,-3,-2,-2,0,0,0,1
1528442772370254,-1,-1,-4,-2,-2,0,-1,-1
1528442772383272,0,1,-2,4,3,0,-1,-1
1528442772383272,-1,-2,0,-8,-6,-1,-3,-1
1528442772391199,-2,-3,-1,-1,-1,-1,-1,0
1528442772391199,1,-1,1,0,-1,1,-2,0
1528442772406202,0,0,-1,-1,0,2,2,1
1528442772406202,-4,-2,0,-1,0,-2,-1,-1
1528442772407155,-1,0,-1,-1,0,2,1,-1
1528442772407155,0,3,4,-1,0,2,1,0
1528442772421160,0,-1,-2,-3,-1,-2,-2,-1
1528442772421160,1,0,-2,1,0,-1,-1,-2
1528442772429153,0,0,-2,1,2,0,0,-1
1528442772429153,-3,-1,-3,-2,-3,0,0,0
1528442772452035,0,-1,0,-1,-2,-1,-1,-2
1528442772452035,0,-2,-1,-1,1,0,0,1
1528442772453033,-2,-1,-1,1,-2,-4,-4,-1
1528442772453033,-1,-2,-2,-1,1,-1,-3,-2
1528442772465998,-3,1,2,-1,-5,2,-1,0
1528442772465998,-1,1,-1,2,4,-2,1,1
1528442772466994,-1,1,0,-1,-2,-1,1,-1
1528442772466994,-1,-1,-1,0,-1,0,0,0
1528442772481003,-1,-1,-2,1,0,-3,-1,-2
1528442772481003,-1,-1,0,1,-1,0,0,-2
1528442772488981,0,0,0,2,3,0,0,1
1528442772488981,-2,-4,-1,-3,-2,-1,0,-1
1528442772502946,1,-1,-2,0,0,-1,0,0
1528442772502946,-1,-1,2,2,1,2,0,-1
1528442772511874,-1,2,0,-4,-5,-1,-1,2
1528442772511874,0,-2,1,8,5,-1,0,-3
1528442772526835,-1,-2,-3,-8,-6,0,0,1
1528442772526835,-2,-1,0,1,0,1,-2,0
1528442772526835,-1,-4,-1,0,1,1,-2,-1
1528442772526835,0,0,-1,-1,1,0,-2,-1
1528442772540798,-2,0,0,4,3,0,0,-1
1528442772540798,0,2,-1,-1,0,-3,0,-1
1528442772550000,0,0,-1,-2,0,-2,0,0
1528442772550000,-1,-2,0,0,-6,1,-3,-2
1528442772563319,1,-3,-2,1,0,-1,1,-1
1528442772563319,1,-1,-1,-4,-2,0,0,-1
1528442772571293,0,0,-1,-1,2,1,-1,1
1528442772571293,1,1,-2,-3,-1,-3,-1,0
1528442772586217,1,-2,-2,0,-2,0,0,-1
1528442772586217,-2,1,3,-1,-1,0,-1,-2
1528442772587172,-1,-2,-1,-2,-2,-1,-1,0
1528442772587172,-3,1,-1,-2,1,0,0,0
1528442772601394,0,0,2,-1,-1,-1,-3,1
1528442772601394,-3,-1,-2,4,4,1,-1,0
1528442772609113,-1,-1,-1,-4,-4,-2,0,-2
1528442772609113,0,-2,-3,-2,0,-1,1,1
1528442772623076,-1,0,-1,1,2,-1,-1,0
1528442772623076,1,0,1,-2,0,-2,-1,1
1528442772631102,0,-1,0,2,1,1,1,-2
1528442772631102,-1,-2,0,0,1,-2,-1,-2
1528442772647015,0,0,-1,-6,-8,-2,-1,-1
1528442772647015,0,-1,-1,4,3,-1,-3,1
1528442772647015,-2,-1,0,-2,-2,2,-1,-2
1528442772647015,0,0,-3,-1,-3,0,0,-2
1528442772660981,-2,0,0,1,0,0,0,-1
1528442772660981,1,-3,-1,-3,-4,-2,2,1
1528442772669009,-2,0,1,1,0,-1,-2,0
1528442772669009,-2,-1,-4,-2,-1,-2,-2,0
1528442772682971,-2,2,1,2,2,2,1,0
1528442772682971,-1,-3,0,-3,-3,1,-2,0
