timestamp,emg1,emg2,emg3,emg4,emg5,emg6,emg7,emg8
1528444486157013,1,1,-1,-2,-1,0,-1,-1
1528444486157013,-1,-1,-1,-2,0,0,0,-2
1528444486161000,0,0,0,-1,-2,0,-1,-3
1528444486161000,0,-1,-1,0,-1,-1,-2,-1
1528444486161999,-2,-1,-1,0,-1,-2,-1,0
1528444486161999,0,-1,-1,0,-2,-1,-2,-1
1528444486165987,-1,0,-1,-2,-2,-1,-2,1
1528444486165987,-3,0,-1,-2,-1,1,0,-2
1528444486167983,-2,-2,-2,-1,-2,1,-1,-2
1528444486167983,-1,-1,-2,0,0,-1,-3,-1
1528444486178954,-2,-1,-2,1,2,-2,-3,-3
1528444486178954,-2,0,0,-1,-2,-1,-2,0
1528444486192916,-1,-2,-1,0,-1,-1,0,-1
1528444486192916,-3,0,-1,-1,-3,-1,-2,-1
1528444486198900,-3,-1,0,-1,-1,-2,1,-1
1528444486198900,-1,0,-3,-2,-1,-4,0,-3
1528444486206879,-1,-1,-2,0,0,-1,-1,0
1528444486206879,0,-1,-1,0,0,-1,0,-2
1528444486227823,-1,-2,0,-1,-1,0,0,-2
1528444486227823,0,-2,-1,-2,-1,-2,-2,-2
1528444486228819,-2,0,-1,-2,-1,-2,-1,-1
1528444486228819,0,0,-2,-1,-1,-2,-1,0
1528444486274698,0,0,-1,-1,0,-2,-1,-1
1528444486274698,-1,-1,-1,-1,0,-2,1,-1
1528444486275694,-1,-1,-1,-2,-1,0,-2,-1
1528444486275694,-1,-1,-3,-1,0,0,-1,1
1528444486276693,-2,-1,1,-2,-2,-1,0,-1
1528444486276693,0,-2,-2,-1,-1,-1,0,0
1528444486279685,0,0,-2,0,-3,-1,-1,0
1528444486279685,0,-2,1,-1,-2,-2,-1,-1
1528444486286672,-1,-3,-1,-1,-1,-1,-1,-2
1528444486286672,-1,-2,-1,-1,-1,-2,-2,-2
1528444486303636,-1,-1,0,-1,0,-1,-2,-1
1528444486303636,-1,0,-1,-1,-1,-1,0,-2
1528444486304619,-1,0,-2,-1,-1,0,0,-2
1528444486304619,-1,0,0,0,-2,0,-1,0
1528444486316586,-1,-1,0,-1,-1,-1,-1,-1
1528444486316586,-1,-2,-1,0,-1,-1,-2,-2
1528444486324565,0,0,-2,-1,-2,-2,-2,0
1528444486324565,-1,-1,0,0,-1,-2,-1,-1
1528444486347502,1,-1,1,0,-2,-1,2,0
1528444486347502,-1,-1,-1,-1,-2,-1,0,-1
1528444486348501,0,-1,-2,-1,1,-1,0,-1
1528444486348501,-1,-1,-1,-1,-2,-1,-1,-2
1528444486362462,-3,0,0,-1,1,-2,-2,-1
1528444486362462,-1,-1,0,-1,-2,-2,0,-2
1528444486363459,1,-2,0,0,1,0,-1,-2
1528444486363459,-1,1,-1,-1,-2,-1,-1,-2
1528444486385401,-1,-2,-1,-1,0,-2,-1,-2
1528444486385401,0,-1,-2,1,-1,-1,-1,0
1528444486386398,-2,1,0,0,-2,-1,-2,0
1528444486386398,-1,-1,-1,-2,1,2,-1,-1
1528444486408340,0,-1,-2,-1,0,0,1,-1
1528444486408340,-1,1,-1,-2,-2,0,-2,-1
1528444486409337,-1,0,-2,-2,-1,-1,-1,0
1528444486409337,-2,-1,0,0,-1,-1,0,-1
1528444486422302,-1,0,-4,-2,-1,0,-1,-1
1528444486422302,-1,-1,-3,-2,1,0,-1,0
1528444486423306,-1,-1,-1,-1,1,-2,-1,0
1528444486423306,-2,-1,-1,-1,0,-2,0,-1
1528444486445242,0,0,-1,1,-1,0,-2,-1
1528444486445242,-1,-1,-2,-2,-1,-3,-2,-1
1528444486446251,-1,-1,-2,-2,-2,0,0,-1
1528444486446251,1,-2,-3,-1,-1,-2,-2,-1
1528444486468180,-1,-1,1,0,-1,-2,-2,0
1528444486468180,0,0,0,-1,1,-2,0,-1
1528444486468180,-1,-2,-1,-2,1,0,-1,-1
1528444486468180,0,-1,-1,-1,0,0,-1,-1
1528444486483177,-1,-1,-1,-2,-1,-2,-2,0
1528444486483177,-1,-2,-1,-1,-2,0,-1,-2
1528444486490173,-1,-1,-1,-1,-2,0,-1,-2
1528444486490173,-1,-1,-2,-1,-1,0,-1,0
1528444486505134,-1,-1,-1,0,-1,0,-1,-2
1528444486505134,1,-2,-1,-2,0,-1,0,-1
1528444486506079,0,-2,-2,-1,-1,-2,0,0
1528444486506079,0,0,-1,-1,-2,-1,-2,-1
1528444486528021,-2,0,-2,-2,-2,-2,-1,-1
1528444486528021,-1,0,-1,0,-2,0,-3,0
1528444486528021,0,0,0,-1,-2,-1,-1,-2
1528444486528021,-2,-1,-1,1,-1,-3,-1,-1
1528444486542980,-1,-2,-2,-2,1,0,-1,-1
1528444486542980,-1,0,-2,0,-1,-1,-1,-1
1528444486543983,0,0,-1,0,0,-1,-1,-1
1528444486543983,-1,-1,-2,0,-2,-1,-1,-1
1528444486572953,-1,-2,-1,-2,-1,-1,1,-1
1528444486572953,-1,-1,-1,1,-1,0,-1,-3
1528444486573898,-2,-2,-1,-1,-3,-1,0,0
1528444486573898,0,-2,-1,-1,-1,-1,-1,1
1528444486587858,0,-2,-1,0,0,-2,-3,1
1528444486587858,-2,-1,-1,-1,-1,-1,0,-1
1528444486588858,-1,0,-2,-1,0,-1,-2,-3
1528444486588858,-1,1,0,-2,1,-2,-1,-2
1528444486602821,2,0,-1,0,-2,-1,0,-1
1528444486602821,-2,-1,-1,-2,-1,-1,-1,-1
1528444486603818,-2,0,-1,0,-2,-1,-2,-1
1528444486603818,-1,-2,1,-2,-1,0,1,0
1528444486624762,-1,-3,-2,-2,-1,-1,-2,1
1528444486624762,-2,-4,0,-1,-1,-1,-1,1
1528444486625760,0,5,0,0,-1,-1,-1,-1
1528444486625760,-3,-2,-2,-2,-1,1,-1,-2
1528444486647700,-2,0,-2,-1,-2,1,1,-2
1528444486647700,0,-2,-1,-1,-1,0,0,-1
1528444486648697,-1,1,-1,-2,0,0,0,0
1528444486648697,-2,-1,0,0,-1,0,-2,1
1528444486661662,-1,0,-2,0,-2,-2,0,-3
1528444486661662,-1,-1,-2,-2,-2,-1,-1,0
1528444486670674,-4,-7,-2,0,-1,-2,-1,-2
1528444486670674,5,6,-2,-1,-1,-1,-1,-1
1528444486685637,1,0,1,-1,-1,-1,-2,-1
1528444486685637,0,-3,-1,-2,-1,-1,-1,-2
1528444486685637,-1,-4,-2,-1,-2,-1,-1,-1
1528444486685637,-1,-3,0,-1,-2,-1,1,-2
1528444486708057,-2,-1,-1,-1,0,-2,-2,0
1528444486708057,-1,2,0,0,0,-2,-1,-1
1528444486708057,-3,-1,0,-2,-1,0,-1,1
1528444486708057,-3,-3,-1,0,0,-2,-1,-1
1528444486722049,0,2,-1,-2,-1,-1,0,0
1528444486722049,-1,-1,0,-1,-1,0,-2,-1
1528444486730033,1,0,0,-2,-2,0,0,-2
1528444486730033,-2,-3,-1,-1,-2,0,-1,0
1528444486744959,-1,-3,0,0,-2,0,1,-1
1528444486744959,-2,1,-1,-1,1,0,-2,-1
1528444486752967,-1,-1,-1,0,-1,-2,-1,0
1528444486752967,0,-2,-1,-2,-1,-1,-2,-2
1528444486767966,-2,-3,-2,-1,-2,-2,1,-2
1528444486767966,-2,0,-1,0,-2,-1,0,-2
1528444486768894,-1,-1,-1,-2,1,-1,-2,-1
1528444486768894,-1,-2,-1,-1,-1,-1,-2,0
1528444486781887,0,-1,-1,-2,-1,0,-3,-1
1528444486781887,2,-1,0,0,-1,0,1,1
1528444486789892,0,-1,-3,0,-1,0,-1,0
1528444486789892,-2,-1,-2,0,0,-1,-2,0
1528444486804799,-3,-2,-1,-3,-1,-1,-1,-2
1528444486804799,0,0,-2,-2,-1,-1,-1,-2
1528444486805796,-2,0,-2,-1,-2,0,-1,-1
1528444486805796,0,-1,1,-2,0,2,-1,-1
1528444486827737,0,1,0,-1,-1,-3,-1,0
1528444486827737,-1,0,-2,-1,0,-1,-1,0
1528444486828735,-2,0,0,-1,-2,-1,0,0
1528444486828735,-1,1,-1,-1,-1,-5,-1,1
1528444486843696,1,1,-1,-1,-3,-3,0,-1
1528444486843696,-1,1,-2,-2,-2,-2,-1,-3
1528444486850676,1,-2,-2,0,0,-2,0,-1
1528444486850676,-1,1,-1,-1,0,-1,0,0
1528444486865637,-2,0,-2,-1,-1,0,-1,-1
1528444486865637,-2,-1,0,-1,-1,-1,-2,1
1528444486865637,-1,-2,-2,1,1,-1,0,-2
1528444486865637,-1,-2,-1,-1,-1,-1,-1,-1
1528444486887577,-1,-1,0,0,-2,-1,0,-1
1528444486887577,-1,-1,-1,-1,0,-1,-1,0
1528444486888575,0,-2,-1,-1,-3,-1,0,-2
1528444486888575,-2,-1,-2,-2,0,-2,0,-2
1528444486903535,-2,-3,1,0,0,-1,-2,-1
1528444486903535,0,-1,0,-1,-3,-1,-1,-1
1528444486910516,-1,-1,-2,-1,0,-1,-1,1
1528444486910516,-3,-2,-3,-1,-1,-2,0,-2
1528444486925477,-2,0,-2,-2,0,0,-2,-1
1528444486925477,-1,-2,-1,0,-1,-1,0,-1
1528444486926474,-1,-1,1,-1,-2,-2,-1,-1
1528444486926474,0,-1,0,0,0,-3,1,-3
1528444486947418,-1,-1,-1,-1,0,0,0,-1
1528444486947418,0,-1,-1,-1,-2,-2,-1,0
1528444486948436,-3,-1,-1,0,-1,-2,-1,-2
1528444486948436,0,-1,0,-1,0,0,-2,-1
1528444486962378,0,-1,-2,0,-1,-2,0,-1
1528444486962378,0,0,-3,0,-1,0,-1,0
1528444486970356,2,-1,-1,-2,-1,-1,-2,0
1528444486970356,-1,-2,0,1,0,0,-2,-1
1528444486985316,-2,-2,-2,-1,-1,0,0,-2
1528444486985316,-1,-1,-1,0,-3,-1,0,-2
1528444486986314,-1,-3,0,0,0,-1,-1,-2
1528444486986314,0,-2,0,0,-2,0,-2,0
1528444487007258,0,-2,0,-1,-1,-2,-1,-1
1528444487007258,0,-3,-1,-2,-1,-3,0,-3
1528444487008255,-1,-1,-2,-4,-1,0,-1,0
1528444487008255,-1,-2,-1,-1,-3,0,0,-1
1528444487022218,-1,-1,-1,0,-1,0,-1,0
1528444487022218,-2,0,0,-1,0,-3,-2,-1
1528444487030208,0,-2,-1,-1,0,-2,0,-3
1528444487030208,-3,-3,-2,-1,-2,-1,-2,0
1528444487045157,2,4,1,-1,0,-2,-1,2
1528444487045157,-1,0,0,-1,1,1,-1,0
1528444487046155,-3,0,-1,-2,-1,-2,-1,-2
1528444487046155,-1,0,-2,-2,-3,-2,0,-2
1528444487068098,-2,-2,-3,-1,-2,-2,-2,0
1528444487068098,-2,-1,0,1,-1,-1,-1,-2
1528444487069104,0,0,0,1,0,-1,0,-1
1528444487069104,-1,-2,-2,0,-1,0,-2,-1
1528444487082245,-1,-3,0,-2,-1,-2,-2,-1
1528444487082245,0,-1,0,-1,-2,-1,0,0
1528444487090224,-3,0,-1,-1,-2,-1,-1,-1
1528444487090224,0,0,-2,-1,0,-1,-2,-1
1528444487105199,-4,-1,-2,0,0,0,0,-2
1528444487105199,-2,-6,-2,-2,0,1,-2,-3
1528444487106147,4,8,-1,0,-2,-1,-1,0
1528444487106147,0,0,0,-2,-1,-2,-1,0
1528444487128181,-2,-2,0,0,0,0,-2,-2
1528444487128181,1,-2,-2,-2,0,0,0,1
1528444487129099,-2,-3,-1,0,-2,-2,-1,-1
1528444487129099,-1,0,-2,-2,-1,-1,-1,-1
1528444487151119,-2,-1,-2,-1,-2,-1,-1,-1
1528444487151119,-1,-2,0,0,0,-1,-1,-2
1528444487151951,-2,-7,-1,0,0,-1,-2,0
1528444487151951,2,5,-1,1,-1,-1,0,1
1528444487164917,-3,-1,-1,-2,-1,1,0,-1
1528444487164917,-2,-2,-2,-2,-2,-1,0,0
1528444487165914,-2,-1,-2,-2,-1,-1,-2,-1
1528444487165914,-2,-4,0,-4,1,-1,0,-1
1528444487188014,-1,-1,0,-1,-1,-2,-1,2
1528444487188014,1,0,0,-1,-1,0,-1,0
1528444487188853,-1,-3,-2,0,-1,0,0,0
1528444487188853,-1,-3,-2,-1,-2,-1,-1,-1
1528444487210954,-1,0,-2,-2,-2,-2,-1,-1
1528444487210954,1,-1,-1,-1,-1,-1,-2,-2
1528444487211791,-2,-2,-2,0,-2,-1,-2,-1
1528444487211791,-2,-1,-2,-1,-1,0,0,-3
1528444487225914,0,-2,1,-1,-2,-1,-1,0
1528444487225914,-2,0,0,-2,0,-1,-2,0
1528444487225914,0,-1,-1,-1,0,-1,-1,0
1528444487225914,-2,1,0,0,0,0,-1,-1
1528444487246861,0,-1,-1,-1,0,-2,-3,-2
1528444487246861,-2,1,-1,-3,-1,-1,-1,-1
1528444487255838,0,-1,0,-1,0,-2,-1,-1
1528444487255838,0,-1,-2,-2,-1,-2,0,-1
1528444487270928,1,-1,-3,-2,-1,0,-1,-2
1528444487270928,-1,-1,0,-2,-1,-2,-2,-1
1528444487272792,-1,-1,-2,-2,-2,0,1,0
1528444487272792,0,-2,-1,0,-2,0,-1,-1
1528444487293736,-1,-3,-2,0,-1,-1,-2,0
1528444487293736,0,0,-3,0,-1,-2,-2,0
1528444487294734,-2,-1,-1,-2,-1,-2,-1,-3
1528444487294734,-1,0,0,0,-1,0,-1,-1
1528444487306839,-2,-1,-2,-2,-2,1,1,0
1528444487306839,-1,0,-3,-1,-1,0,0,-1
1528444487316674,-2,-2,0,-1,-3,0,-1,-1
1528444487316674,-1,-2,-1,0,0,-1,-1,-2
1528444487330637,0,1,1,1,1,-2,-1,0
1528444487330637,0,0,0,0,-3,0,-1,0
1528444487332631,0,-2,-1,-1,0,-2,-1,-1
1528444487332631,0,0,-1,0,-2,-1,-1,-1
1528444487353734,-2,-1,-2,0,-1,-1,-3,1
1528444487353734,0,0,-1,-1,-2,-2,-1,-2
1528444487355642,-1,0,-2,-2,0,-2,0,-1
1528444487355642,-3,-3,-2,0,0,-2,-2,0
1528444487367612,-1,-2,-2,0,0,-1,0,-2
1528444487367612,-1,0,-1,0,0,-2,1,-1
1528444487376514,-1,1,-2,-1,-2,0,-2,0
1528444487376514,-1,-1,-1,-2,-1,-1,1,0
1528444487390477,-2,0,-1,-1,-2,-1,-2,-2
1528444487390477,-2,-2,-2,-1,0,-2,-1,0
1528444487392472,0,-1,0,0,0,-1,-1,-1
1528444487392472,-1,-2,-1,-1,-2,-2,-2,0
1528444487413578,1,-1,0,0,-1,0,0,1
1528444487413578,-1,-1,0,0,-1,-1,-2,-1
1528444487415571,-2,-1,-3,-1,0,0,-1,-2
1528444487415571,-1,-1,0,-1,-1,-1,-1,-1
1528444487427536,0,-2,0,-1,-3,-2,-2,-3
1528444487427536,-1,0,-2,-4,0,-1,-2,0
1528444487436513,-1,-3,1,-2,-2,0,1,0
1528444487436513,-1,-1,-2,-2,0,-1,0,-2
1528444487451450,-2,-2,-2,-1,-1,-1,0,0
1528444487451450,-1,-2,-2,0,-1,-2,-1,-2
1528444487452311,-1,0,-2,-2,-2,0,-1,-1
1528444487452311,-2,1,-2,-1,-1,-1,0,0
1528444487473335,-1,0,1,-2,-2,0,1,-1
1528444487473335,-2,0,1,-2,-2,-1,-1,-1
1528444487475299,0,-1,-1,-2,0,0,-2,-2
1528444487475299,-1,-2,-1,0,-1,-1,-2,-1
1528444487496377,-2,0,-5,-1,-1,-1,-1,-1
1528444487496377,-1,-3,-1,-1,-2,0,-1,0
1528444487497318,0,1,-1,-1,-2,-2,0,0
1528444487497318,1,-2,0,-1,-1,0,-1,-1
1528444487511339,0,-1,0,-2,-1,-1,-1,-2
1528444487511339,-2,0,-1,-1,0,0,0,-2
1528444487512318,-1,-2,-1,-1,0,0,-1,0
1528444487512318,-1,1,0,-1,-1,-1,-2,-1
1528444487533584,-1,0,0,0,-2,-1,0,-2
1528444487533584,-1,-1,-1,0,0,-1,-1,1
1528444487535415,0,-2,0,0,-1,-2,-2,-1
1528444487535415,-2,0,-2,-1,-2,-1,-1,-1
1528444487547528,0,0,0,-2,-1,-1,-1,-1
1528444487547528,-1,-2,-2,-1,0,-2,-2,-2
1528444487556659,-2,-2,-1,-1,-1,-2,-2,0
1528444487556659,1,1,-1,-1,0,-2,-1,-1
1528444487570695,0,-1,-2,-2,0,0,-2,-2
1528444487570695,0,0,-2,0,-1,0,-1,-1
1528444487572532,0,1,-2,-1,-1,1,-1,1
1528444487572532,0,-2,-2,-2,-1,-2,-1,-1
1528444487593989,-1,-2,0,0,-2,-1,0,1
1528444487593989,0,-1,-1,-2,-1,-2,-1,-2
1528444487594886,-2,-1,-1,0,-1,0,0,-1
1528444487594886,-3,-1,-2,0,-2,-1,0,0
1528444487607012,0,-2,-2,-1,0,0,-1,-1
1528444487607012,-1,-1,-1,-1,-2,1,0,-2
1528444487615861,-1,0,-1,-1,-1,-2,-1,-1
1528444487615861,-1,-1,-1,-1,-1,-1,-2,0
1528444487630949,-1,-2,-1,-1,1,-2,-1,-1
1528444487630949,1,-1,-1,0,0,-1,0,-1
1528444487632784,-2,-1,-1,-1,-1,0,0,-2
1528444487632784,-2,-2,1,-1,-2,0,0,-1
1528444487653970,-2,-1,-2,0,1,-2,-1,0
1528444487653970,-1,1,0,0,-2,-1,0,-1
1528444487654969,-2,-2,0,-1,-1,0,-1,0
1528444487654969,-1,-1,-1,-1,0,-1,0,-1
1528444487675914,-3,-2,-1,-1,-2,-2,-2,0
1528444487675914,0,-1,-3,-2,0,0,-2,0
1528444487677908,-2,-1,-2,-1,-1,-1,0,-2
1528444487677908,1,0,1,-1,0,0,-1,-2
1528444487690019,0,0,0,0,0,-2,-2,-1
1528444487690019,-2,0,-2,-1,-3,-1,-1,0
1528444487698992,-1,-1,-1,0,-1,-2,0,0
1528444487698992,-2,-2,-1,-3,1,-2,-2,-1
1528444487713189,1,1,0,-1,-1,0,0,-1
1528444487713189,0,-1,-3,-2,-1,-1,-2,0
1528444487715019,0,-2,-2,-2,-1,0,-2,-2
1528444487715019,-1,-1,-1,-1,-2,-1,-1,-2
1528444487736329,-3,-4,-2,-2,-1,0,-1,-2
1528444487736329,-1,-2,1,-2,1,-2,0,-1
1528444487737298,0,-2,0,-1,-3,-2,-3,-2
1528444487737298,1,-1,-2,-2,-1,-1,-2,-1
1528444487751290,-1,-1,-2,-2,-2,-1,-2,-1
1528444487751290,-1,-1,0,-1,0,-1,0,0
1528444487753143,-1,-1,-1,0,1,-2,0,-1
1528444487753143,-1,0,-3,-1,0,-1,-1,0
1528444487773208,-1,-2,-2,-1,-2,-2,-2,0
1528444487773208,-2,-2,-2,-1,-1,-1,-3,-3
1528444487775072,-1,-1,-2,-1,-1,-2,-1,0
1528444487775072,-1,0,0,-1,-2,-2,-2,1
1528444487796012,-2,0,-1,-1,-1,-1,-1,1
1528444487796012,-2,-1,-1,0,-1,-2,0,0
1528444487798007,-1,-1,-1,-1,0,-3,-1,-1
1528444487798007,-2,-3,-3,0,-3,-1,-1,-2
1528444487809975,1,-1,-1,-1,0,-1,-2,-1
1528444487809975,-1,-1,0,0,-1,-2,0,0
1528444487816956,0,-2,-1,-1,-1,-1,-1,-2
1528444487816956,-2,-1,-1,0,0,-1,-1,-2
1528444487832914,-1,-3,0,-1,0,0,-1,-1
1528444487832914,-2,-2,0,-1,-1,0,-1,0
1528444487834907,-1,-1,-2,-1,-2,-1,0,0
1528444487834907,0,-2,0,-1,-2,-1,-1,0
1528444487863184,-2,-1,-1,-2,-2,-2,0,-2
1528444487863184,0,-1,-1,-2,-1,0,-1,-1
1528444487865034,-1,0,-1,-1,0,0,-1,-2
1528444487865034,-1,-1,0,0,0,-1,0,-1
1528444487870021,-2,-2,-2,0,-1,-1,-1,-1
