timestamp,emg1,emg2,emg3,emg4,emg5,emg6,emg7,emg8
1528442779729793,-4,-3,-2,-2,2,2,-3,0
1528442779729793,-3,-2,-1,-2,-1,3,-3,2
1528442779729793,3,-2,1,2,1,-2,3,-2
1528442779729793,-3,2,-1,-2,0,-2,-2,-1
1528442779731787,-3,1,0,-3,-8,3,-4,3
1528442779731787,5,1,0,3,2,-4,1,0
1528442779736774,-4,-1,-2,-2,0,1,-3,-1
1528442779736774,-6,-3,-2,0,-1,0,-1,1
1528442779741760,2,0,-2,-3,-2,-2,2,-1
1528442779741760,-1,0,-1,1,-1,-2,1,-2
1528442779757718,-3,0,-1,-4,-2,-2,-3,-1
1528442779757718,0,1,-1,0,0,2,-2,1
1528442779758718,2,0,2,4,3,-4,1,-1
1528442779758718,-4,0,0,0,-1,1,-1,0
1528442779773675,-1,-1,-4,1,0,1,-1,0
1528442779773675,3,-1,-1,-2,-2,0,2,0
1528442779787637,-1,-2,-2,-2,-4,0,-1,-1
1528442779787637,-2,0,-1,-2,0,-1,-3,1
1528442779788635,0,1,1,2,1,-3,0,2
1528442779788635,-1,0,0,4,-3,0,-2,-2
1528442779800604,0,-2,-2,-1,2,0,-2,0
1528442779800604,-2,0,-2,-4,-3,0,1,-1
1528442779812571,0,0,1,-1,-1,1,1,-2
1528442779812571,-1,-3,-3,-1,0,-2,1,0
1528442779817558,-1,-3,-1,0,2,-1,-1,-1
1528442779817558,0,0,3,2,0,-1,-1,-1
1528442779832518,-1,-1,-2,-2,-1,0,0,-1
1528442779832518,-2,-2,0,-5,-4,-1,-2,-2
1528442779839499,0,0,-1,0,-1,-3,0,-2
1528442779839499,-1,-2,-2,-1,-1,2,2,-2
1528442779879393,-5,-3,-3,-3,-3,3,-4,-1
1528442779879393,2,-1,0,-2,0,1,0,-1
1528442779880416,2,-2,0,4,1,-3,2,-1
1528442779880416,-3,0,0,-4,-5,-1,-2,0
1528442779881388,-2,-3,-3,-2,0,2,-1,2
1528442779881388,2,1,2,5,2,-4,1,-2
1528442779883409,-3,1,0,0,4,2,2,-2
1528442779883409,-5,-4,-3,-4,-4,3,-3,2
1528442779892358,4,1,0,4,0,-3,2,0
1528442779892358,-2,0,0,-3,-2,-4,-2,0
1528442779898341,-2,-1,2,-2,-3,1,0,0
1528442779898341,2,-1,-1,1,2,-3,0,-1
1528442779913301,1,-1,1,0,0,-3,2,0
1528442779913301,-3,-2,-4,0,-1,1,-1,1
1528442779920283,-1,0,-2,-3,-2,0,-3,1
1528442779920283,2,-2,0,1,1,-3,1,-2
1528442779930257,1,0,-3,0,-2,-1,-1,-2
1528442779930257,-2,0,-1,2,5,1,-1,-1
1528442779935244,2,-2,-1,-4,-6,-3,0,-1
1528442779935244,2,2,-1,1,1,-1,-1,-3
1528442779952197,-2,2,1,1,-1,0,-2,0
1528442779952197,0,0,0,1,0,0,2,-1
1528442779958182,-1,-2,1,2,0,-2,0,-1
1528442779958182,-2,-1,-1,-3,-1,0,-1,1
1528442779968155,0,2,2,0,-2,-1,-1,-2
1528442779968155,-1,1,0,-2,-2,0,-1,-1
1528442779981120,-1,-3,-2,-2,0,-2,-4,1
1528442779981120,-1,-2,-1,2,6,3,0,-1
1528442779990096,0,-1,1,-3,-7,-3,3,-1
1528442779990096,-2,-3,0,-1,-3,2,0,1
1528442780003062,0,1,-2,1,0,2,0,-2
1528442780003062,0,2,0,2,-1,-1,0,0
1528442780012037,1,-1,0,3,6,0,0,0
1528442780012037,-1,-1,0,-7,-5,-1,0,1
1528442780018022,-1,-4,-2,0,-2,-3,-2,-1
1528442780018022,-2,-4,-4,2,0,-2,-1,-2
1528442780032982,-2,2,3,0,0,0,0,-2
1528442780032982,-1,0,0,0,-1,-1,-2,1
1528442780049937,-1,2,1,1,0,-1,-1,1
1528442780049937,-1,-2,-1,0,0,-4,-1,-2
1528442780050934,-3,-3,-2,-4,-5,2,-2,-2
1528442780050934,-1,-1,-1,2,0,-3,2,-1
1528442780062902,-2,-1,0,-2,0,0,-1,0
1528442780062902,-2,-1,-1,-1,-3,0,-2,-2
1528442780071882,1,0,-2,-2,1,-1,1,-1
1528442780071882,2,1,-2,0,2,-1,-1,-3
1528442780086838,-2,-2,-2,0,-5,-1,0,0
1528442780086838,1,2,0,-2,-1,1,1,0
1528442780088832,-2,-2,0,5,2,0,-1,2
1528442780088832,-2,0,2,-1,2,0,-4,-1
1528442780100801,-1,-1,-3,-5,-4,-1,0,-2
1528442780100801,-2,-4,-2,-1,-2,-2,-2,-1
1528442780109776,-1,-1,-1,0,-2,0,-3,-1
1528442780109776,-1,-2,-2,3,2,1,0,-1
1528442780122742,1,-1,1,-2,3,0,1,-1
1528442780122742,0,0,1,-1,-3,-3,0,0
1528442780131718,-1,1,-1,-1,2,0,-1,-1
1528442780131718,-3,-4,-1,-2,-2,2,0,-1
1528442780138700,-2,0,-2,-4,-6,-1,-2,2
1528442780138700,-1,2,-3,-2,-1,3,-1,1
1528442780147675,0,0,-1,0,2,1,-1,-2
1528442780147675,0,0,-1,-1,0,-1,0,0
1528442780160641,-3,-2,-2,0,-1,3,-1,-1
1528442780160641,0,1,1,0,-1,-2,-2,0
1528442780175600,-2,-2,-1,-3,-3,-1,0,0
1528442780175600,-1,-3,-1,0,-1,1,0,-1
1528442780183585,1,1,-3,-1,0,-1,-2,0
1528442780183585,0,1,2,2,0,1,0,-1
1528442780200534,1,0,-1,2,1,-2,-1,-1
1528442780200534,-1,-1,0,-5,-3,-3,0,-3
1528442780201532,-2,-2,-2,1,3,0,1,-2
1528442780201532,0,1,-2,-4,-5,-1,0,1
1528442780207515,1,-2,0,-1,-2,-1,-1,0
1528442780207515,-1,-1,-1,1,2,1,-2,0
1528442780220481,1,1,-1,3,1,-1,0,1
1528442780220481,-2,-2,3,-3,0,0,0,-1
1528442780229457,-2,-2,-1,-3,-3,0,-1,1
1528442780229457,0,3,-1,3,0,0,0,-1
1528442780243419,-1,-2,0,-1,0,1,-1,0
1528442780243419,-2,-4,-1,-5,-8,-1,-2,-2
1528442780252396,0,0,1,0,-1,-1,-2,1
1528442780252396,-1,-1,1,-2,-2,-4,0,-1
1528442780258379,0,-1,-1,1,1,-1,-1,-1
1528442780258379,0,-1,0,1,4,0,0,0
1528442780267355,-1,0,-1,-6,0,-2,1,0
1528442780267355,0,-1,-2,-1,-8,0,-2,0
1528442780280322,1,1,2,1,1,-1,-1,-1
1528442780280322,-1,-6,-6,2,2,-2,-1,0
1528442780289298,-1,1,1,-3,-6,-1,-2,-1
1528442780289298,1,4,1,-1,3,1,1,0
1528442780312235,-1,0,0,0,-2,1,-3,0
1528442780312235,0,3,0,1,2,-1,-1,-1
1528442780313233,-2,-5,-3,0,1,0,0,-1
1528442780313233,-2,-2,-3,-2,0,-3,-2,-1
1528442780318219,0,1,-1,1,-1,0,0,-2
1528442780318219,-1,-1,-1,-1,-2,2,0,-1
1528442780341158,0,-1,-1,1,0,-1,2,0
1528442780341158,0,-1,-2,0,-2,-2,-1,2
1528442780342156,-1,-4,1,-2,3,0,0,-1
1528442780342156,0,0,-2,-2,-3,-2,-2,-1
1528442780357125,0,4,2,0,0,-3,-2,-1
1528442780357125,-2,-1,2,3,2,1,-1,1
1528442780363109,-3,1,-2,-6,-2,-1,-1,0
1528442780363109,-2,-3,-3,1,-5,-1,-1,0
1528442780372076,1,0,-1,2,1,1,-3,0
1528442780372076,0,3,3,-1,-1,2,1,-1
1528442780378059,-1,-4,-1,-1,-1,0,1,0
1528442780378059,0,3,2,2,3,0,-1,0
1528442780393019,-1,-2,-5,-7,-7,0,-2,-2
1528442780393019,1,-2,-3,3,1,-1,1,-3
1528442780401008,0,-1,-2,0,-2,-2,1,-1
1528442780401008,-1,-1,1,-1,0,-1,1,0
1528442780416955,-1,0,0,2,4,0,0,0
1528442780416955,-2,-1,-1,-7,-1,-1,-2,1
1528442780422940,-1,-2,0,1,-1,0,0,-3
1528442780422940,0,-1,-3,0,2,-1,1,-1
1528442780440893,1,0,1,0,1,0,0,0
1528442780440893,-1,2,-1,-3,-3,-2,1,-1
1528442780440893,-2,4,6,3,0,-2,0,0
1528442780440893,1,-1,-2,-1,1,0,0,0
1528442780452860,-2,-3,-1,-2,3,-2,-2,1
1528442780452860,0,-2,-4,-1,-6,-3,-4,-1
1528442780460838,-2,-1,-1,-3,-4,-1,-1,0
1528442780460838,-2,2,2,0,-1,1,-3,0
1528442780469814,-1,-3,-3,-2,1,1,0,-1
1528442780469814,2,0,0,-1,-1,0,-1,-1
1528442780482780,-1,0,-1,-1,0,-1,-1,-1
1528442780482780,-3,-2,0,-3,-2,1,-3,0
1528442780500733,0,1,-1,3,-1,0,1,1
1528442780500733,-1,1,-2,0,1,-2,1,-1
1528442780500733,-1,1,-2,-3,-3,0,1,1
1528442780500733,1,-2,-3,1,3,-1,-1,-1
1528442780513698,-1,0,2,1,2,-1,-1,-2
1528442780513698,-2,-4,-4,-4,-5,-1,1,1
1528442780529655,-1,0,-1,-1,-2,-2,-1,0
1528442780529655,-2,0,0,0,1,1,0,0
1528442780531782,-1,-1,-1,-3,-3,0,-1,0
1528442780531782,-2,1,3,2,-2,-2,-1,-1
1528442780543676,-1,-1,-3,-3,1,1,-1,-2
1528442780543676,-2,-3,0,4,6,1,0,0
1528442780552854,-2,0,-2,-12,-15,-1,1,-1
1528442780552854,-1,3,4,3,3,2,-1,0
1528442780558577,0,-1,-2,0,0,2,0,-1
1528442780558577,1,-1,-2,0,-3,1,1,-2
1528442780573566,-1,-2,-2,4,4,-2,0,-1
1528442780573566,-2,-3,-3,-2,1,0,-1,0
1528442780589757,0,0,-2,2,0,0,-1,-1
1528442780589757,0,-1,-2,-2,0,0,-1,0
1528442780591502,1,-2,-1,1,-2,2,-1,-2
1528442780591502,0,1,4,3,2,0,-1,-1
1528442780603716,-3,-1,-1,-1,-2,-2,-1,1
1528442780603716,0,1,1,-5,-5,0,0,0
1528442780612447,-1,1,-2,3,0,-1,-1,0
1528442780612447,0,-1,-3,-1,2,1,-1,0
1528442780618454,0,-2,-1,4,3,0,-1,-3
1528442780618454,-1,2,1,-3,-2,-2,-3,-2
1528442780633377,-3,0,1,1,2,-3,-2,0
1528442780633377,-3,-4,-1,-5,-6,-2,-2,0
1528442780640409,1,1,0,-1,0,-1,1,1
1528442780640409,-3,1,0,1,-1,-1,-1,0
1528442780649384,1,-2,-1,3,3,-1,0,0
1528442780649384,-1,-2,-1,-1,3,0,1,0
1528442780664607,0,-1,-2,-7,-8,-1,-4,1
1528442780664607,-1,1,0,1,0,-1,0,-1
1528442780671338,-2,1,2,1,-3,0,0,0
1528442780671338,0,-2,-3,3,3,1,-2,-1
1528442780678281,-1,2,1,-5,-3,0,-1,-1
1528442780678281,-2,-1,-1,1,-1,-1,1,-1
1528442780693527,-3,-2,-1,2,2,0,-1,-2
1528442780693527,1,1,-3,-1,0,-2,1,-1
1528442780700746,-1,2,3,7,7,0,-1,-2
1528442780700746,1,-1,-1,-3,-4,-2,-2,-1
1528442780709525,-2,-1,-3,-4,-6,-1,-1,0
1528442780709525,0,-1,-1,0,-2,1,-1,0
1528442780732785,2,0,-1,1,1,-2,-2,0
1528442780732785,-2,-1,-1,0,2,-1,0,1
1528442780733695,-2,0,0,0,2,-1,-1,-1
1528442780733695,-1,0,-2,-2,1,0,0,-2
1528442780738697,0,0,-2,-1,-4,0,-1,-2
1528442780738697,1,-2,-3,0,0,1,1,0
1528442780754666,1,1,2,-1,-1,2,0,-1
1528442780754666,0,0,1,-2,-1,-1,-1,-2
1528442780760624,-2,-4,-2,-1,0,0,-2,0
1528442780760624,-1,-2,0,-5,-6,-1,-3,0
1528442780777579,1,-1,-3,2,1,0,0,0
1528442780777579,-4,-5,0,-1,-1,0,-1,-1
1528442780783614,-1,2,-1,4,5,0,2,1
1528442780783614,2,1,-2,-3,-2,0,0,0
1528442780790547,0,1,3,-2,-2,-1,-2,1
1528442780790547,-1,-1,0,2,0,-1,-1,0
1528442780798887,0,-4,-4,-5,-7,-1,-1,-1
1528442780798887,-1,-1,1,5,6,0,-2,-1
1528442780813723,-1,-1,-4,-7,-4,-1,-1,-1
1528442780813723,0,-3,-4,-1,0,-1,0,0
1528442780820706,-2,-3,-1,-1,1,0,0,0
1528442780820706,-2,0,-2,0,0,1,-2,-1
1528442780829440,2,3,0,3,2,0,0,-1
1528442780829440,-1,1,1,-1,-1,-1,-1,2
1528442780844643,-2,-1,-1,4,2,-3,0,-2
1528442780844643,-3,-2,-2,-4,-3,0,-1,-1
1528442780851381,-1,-5,-3,-1,-1,-2,0,-1
1528442780851381,-1,2,-2,-2,-2,-2,-2,0
1528442780866343,0,0,-2,-1,1,2,-1,1
1528442780866343,-2,1,0,1,-1,1,1,0
1528442780880711,-1,-2,-2,-1,-1,3,1,-2
1528442780880711,0,-1,2,3,2,-1,0,-1
1528442780888685,-2,0,0,-4,-5,0,-2,0
1528442780888685,-1,1,0,1,-4,-3,-1,-1
1528442780897666,-1,0,-2,-3,0,0,-2,1
1528442780897666,-1,-3,-4,-1,-1,-1,-1,-4
1528442780904754,-1,-1,0,2,2,0,-2,0
1528442780904754,1,0,-1,-3,-2,0,0,-1
1528442780910868,-2,-1,0,2,1,-1,-2,-1
1528442780910868,-1,2,1,-8,-7,0,-2,0
1528442780926589,1,-2,-3,2,-1,1,-1,-2
1528442780926589,0,0,0,1,1,-2,-1,-1
1528442780933819,-2,-3,-1,0,-2,0,-1,1
1528442780933819,0,-1,-3,0,1,-2,-2,-1
1528442780949769,-2,-1,-1,-4,1,-1,-2,0
1528442780949769,-4,-1,1,0,2,1,0,1
1528442780951520,2,0,-3,0,0,-1,-2,0
1528442780951520,0,1,1,0,-3,2,-2,0
1528442780972733,0,1,3,1,0,-3,-1,0
1528442780972733,-1,-2,-2,-4,-5,0,-2,-2
1528442780973461,-1,-3,-1,-2,-3,-2,-1,0
1528442780973461,0,1,-2,1,-1,-1,1,2
1528442780994406,-1,1,-1,0,1,0,2,-1
1528442780994406,0,1,1,-1,-2,-1,-1,2
1528442780996406,-1,1,-2,0,0,1,-2,0
1528442780996406,-1,-3,-1,-1,-1,-2,-1,-3
1528442781009385,-1,-2,-1,0,1,1,-1,-2
1528442781009385,0,-2,0,-1,2,1,1,-2
1528442781011360,-4,-1,-3,-4,-4,1,-1,-1
1528442781011360,-1,0,0,0,-3,-2,-1,0
1528442781023376,0,-1,1,-1,-2,0,-1,1
1528442781023376,-1,-1,1,3,3,-2,-2,0
1528442781032306,0,0,-3,-3,1,0,0,1
1528442781032306,-1,1,1,-1,1,-1,0,-1
1528442781054301,-1,0,-1,-2,-3,-1,1,0
1528442781054301,0,-3,-3,-2,-4,0,-1,-1
1528442781056240,0,-1,0,3,5,-2,-1,-1
1528442781056240,-2,0,-2,0,-3,0,-2,-2
1528442781069260,0,0,-2,0,2,0,-1,0
1528442781069260,0,0,1,2,1,0,0,-1
1528442781071200,0,0,2,-5,-10,-2,-1,-1
1528442781071200,1,-2,-2,0,1,1,-1,0
1528442781083222,-1,-1,-3,4,3,-1,0,1
1528442781083222,0,-2,-3,-6,-1,2,0,-1
1528442781092152,-3,-1,-2,0,-2,0,-1,-1
1528442781092152,-1,-1,0,0,0,1,0,-1
1528442781106107,-1,1,-2,-3,-1,0,-1,-2
1528442781106107,-1,-2,-2,0,1,0,0,-1
1528442781113140,-1,0,1,0,3,0,0,-1
1528442781113140,-2,-4,-2,-1,0,0,0,0
1528442781130079,3,1,-1,1,-2,-1,3,-1
1528442781130079,-1,1,2,-1,-1,-3,-1,-1
1528442781131041,-1,0,-1,-1,-2,-2,-2,-2
1528442781131041,0,0,2,1,0,-1,0,-1
1528442781143063,1,-2,1,0,-1,1,0,0
1528442781143063,-1,0,-3,-6,-7,-2,0,1
1528442781151993,0,-2,0,3,5,-1,2,0
1528442781151993,-1,-1,0,1,2,1,0,-1
1528442781166003,-1,-2,-1,-6,-5,-1,-1,0
1528442781166003,0,0,-1,2,-1,-1,-3,0
1528442781174978,0,0,-1,1,-2,-1,-2,0
1528442781174978,-2,-1,-1,1,0,-1,-2,0
1528442781189941,-1,-2,-1,0,4,0,0,0
1528442781189941,-2,-1,-2,-1,-2,-1,0,0
1528442781190879,1,0,-1,-1,0,1,0,0
1528442781190879,0,-1,0,-1,-3,-2,-1,0
1528442781202863,-2,-2,-3,-1,-2,-1,-2,0
1528442781202863,-1,3,1,2,4,0,0,-2
1528442781211843,-1,0,0,-3,-3,0,-1,2
1528442781211843,-1,-2,-1,-2,0,0,0,-2
1528442781225838,0,0,2,-2,-3,-1,-1,-2
1528442781225838,-1,-2,0,0,-1,0,-2,-1
1528442781234779,-1,-3,-2,-2,1,2,-1,-2
1528442781234779,1,-3,-3,-2,1,-2,-1,-1
1528442781248725,-1,0,-2,-3,-2,-1,-2,-1
1528442781248725,0,1,0,2,3,0,1,2
1528442781255706,0,-1,-1,-2,-5,-2,1,0
1528442781255706,-1,-3,-3,-4,-3,0,0,-1
1528442781288618,-1,-2,-1,2,3,0,0,-2
1528442781288618,-1,0,0,-2,-3,-2,0,-1
1528442781290613,-1,-1,2,1,2,1,0,-2
1528442781290613,-2,-1,-2,0,1,1,1,1
1528442781291611,-1,1,1,-2,-4,0,-1,0
1528442781291611,-1,-3,-2,-2,2,0,1,0
1528442781302584,-2,-1,1,1,-2,0,-1,-1
1528442781302584,0,2,2,7,7,-1,-2,1
1528442781309600,-1,2,0,-7,-6,0,-1,1
1528442781309600,1,-2,-2,-2,-6,2,0,-3
1528442781315550,0,-3,-5,1,2,0,0,0
1528442781315550,-2,2,0,-1,-1,-2,-1,0
1528442781331779,1,2,3,5,5,0,-1,-2
1528442781331779,-3,1,-1,-5,-5,1,-2,-1
1528442781339700,-1,0,-1,-1,-2,0,-2,0
1528442781339700,0,-2,-2,-3,-1,-3,0,0
1528442781346472,-3,-4,-3,1,-4,1,-1,0
1528442781346472,0,-3,-1,1,3,-2,0,-1
1528442781353689,-2,0,-2,-5,-5,-2,-1,-2
1528442781353689,-2,-2,-1,-2,-2,-1,0,-2
1528442781368718,-1,-1,0,1,2,-3,-2,-1
1528442781368718,-1,-1,0,-2,-3,-2,-1,2
1528442781375978,0,0,-2,1,1,-1,-1,0
1528442781375978,0,2,3,-2,-1,0,-1,-1
1528442781392936,-1,2,-1,-3,-4,0,0,-1
1528442781392936,-2,-2,0,2,3,0,0,0
1528442781393661,-2,-1,0,-2,-7,-1,0,0
1528442781393661,0,0,-1,-2,-3,0,-2,-1
1528442781406885,0,2,-1,5,7,-3,1,1
1528442781406885,-2,1,0,-5,-7,-3,-4,-1
1528442781413852,-1,-1,1,1,3,0,0,-1
1528442781413852,-2,-1,-2,-2,-4,-1,2,-2
1528442781428560,2,0,0,-2,-2,0,0,-2
1528442781428560,1,-2,-3,2,1,0,0,-1
1528442781435814,0,0,1,1,0,0,-2,1
1528442781435814,2,3,1,0,-4,-2,-2,0
1528442781451773,0,-4,-2,-1,-1,-1,-2,-2
1528442781451773,-4,-1,0,1,1,-1,-2,0
1528442781453754,-1,1,-1,1,2,-4,-1,-1
1528442781453754,0,0,-1,0,1,3,-1,1
1528442781466722,-2,2,-2,-4,-3,0,-1,0
1528442781466722,-3,0,-2,0,-1,0,-1,-2
1528442781473703,2,-1,0,0,2,0,1,1
1528442781473703,-2,-2,-1,-4,-3,-2,-1,-1
1528442781497798,-3,-1,-3,-2,-3,0,-1,-1
1528442781497798,2,3,3,1,1,-1,0,-2
1528442781498745,0,0,0,0,2,0,0,0
1528442781498745,1,-1,0,2,-1,-2,-2,-2
1528442781512721,-1,-4,0,-3,0,-1,1,0
1528442781512721,-1,0,-4,1,1,0,0,2
1528442781513663,0,0,-1,-1,-1,0,-3,-2
1528442781513663,-2,0,0,-1,0,1,2,-2
1528442781527072,-3,-1,0,0,-1,0,2,-1
1528442781527072,0,0,0,-1,0,0,0,-2
1528442781533788,-1,0,-1,1,-2,-2,-2,-1
1528442781533788,-1,-5,-2,-6,-4,-1,-3,-1
1528442781548748,1,0,0,1,0,-2,0,1
1528442781548748,0,0,-1,0,1,-1,-1,0
1528442781555980,0,-2,1,-1,-1,0,0,0
1528442781555980,-1,-1,-1,5,3,0,-1,0
1528442781571995,-1,-4,-1,-5,-4,-1,-1,1
1528442781571995,-1,-2,-1,0,-1,0,-2,-1
1528442781588924,-2,-1,-1,-1,0,0,-1,-1
1528442781588924,0,0,-2,-1,0,-1,2,1
1528442781589957,-2,0,-2,-4,-3,0,0,0
1528442781589957,0,-2,-3,-1,0,0,-1,-2
1528442781593938,1,-1,-1,-1,-2,0,-1,0
