timestamp,emg1,emg2,emg3,emg4,emg5,emg6,emg7,emg8
1528188114898429,-1,-1,-1,0,0,-2,1,0
1528188114898429,-1,0,-2,-1,0,0,-1,-1
1528188114906408,0,-3,-1,-1,-1,0,1,-3
1528188114906408,-2,-1,-1,-1,0,0,-4,-2
1528188114915384,-1,1,-1,-1,-1,0,3,6
1528188114915384,1,2,0,1,0,0,-1,-5
1528188114930343,0,-2,-2,1,0,-2,-3,-2
1528188114930343,1,0,-1,-1,-1,-2,0,1
1528188114932338,-1,-1,-1,0,-2,0,3,-1
1528188114932338,-1,1,-1,0,-1,-4,-11,1
1528188114960264,-2,-1,-1,0,0,0,1,-2
1528188114960264,0,-4,-1,-1,-2,-1,-1,-1
1528188114962258,-2,-1,0,0,0,1,4,1
1528188114962258,0,0,-2,-2,0,2,3,3
1528188114966247,-3,-3,-1,0,-1,-3,-3,-5
1528188114966247,0,1,0,0,0,-1,-1,3
1528188114975234,-3,-1,0,0,1,-1,1,-3
1528188114975234,0,-1,-1,0,0,-1,0,-1
1528188114990221,-1,0,-1,1,0,0,-1,-1
1528188114990221,0,0,0,-1,0,-1,0,1
1528188114992181,-1,-1,0,-1,-2,0,-1,0
1528188114992181,-1,-1,0,-2,0,2,4,6
1528188115013122,-1,1,0,0,-1,0,-1,-1
1528188115013122,-1,0,-1,-2,-1,1,0,0
1528188115014121,0,0,1,-1,1,1,3,1
1528188115014121,0,-3,-3,-1,0,0,2,3
1528188115026128,0,-3,0,-2,-2,-1,-2,-1
1528188115026128,0,1,-1,0,-1,-2,0,-1
1528188115052055,1,-1,0,-1,0,-1,0,4
1528188115052055,-1,0,0,-1,-1,-1,0,-3
1528188115053017,1,0,-1,-1,0,0,-1,0
1528188115053017,-1,-1,-1,-2,-1,-2,-2,-2
1528188115056063,-2,-2,-2,0,-1,-2,-1,-2
1528188115056063,0,-1,-1,-1,0,-1,0,-2
1528188115073017,-1,-2,-1,-1,0,0,1,2
1528188115073017,-1,0,1,0,0,0,-2,-3
1528188115073999,-2,-1,0,-2,-1,-3,-2,-5
1528188115073999,-3,-2,-3,0,1,-1,0,0
1528188115102883,-3,-1,-1,-1,0,-1,-1,2
1528188115102883,0,0,0,-1,0,0,4,-3
1528188115103882,0,2,-1,-3,1,-2,-1,0
1528188115103882,2,-1,0,1,0,-2,-1,2
1528188115109865,1,1,1,0,0,1,3,1
1528188115109865,-2,-1,-1,-1,1,-1,-1,-1
1528188115111860,-2,-1,-1,-1,-1,0,-2,0
1528188115111860,-1,-1,-3,0,-1,-1,-2,-3
1528188115132842,1,4,3,1,1,-1,2,-1
1528188115132842,0,1,0,-1,0,1,1,-1
1528188115134836,-1,-2,-1,-2,-1,-2,-1,0
1528188115134836,0,-2,-2,-2,-2,2,4,7
1528188115154782,-1,-5,-3,-1,-3,-3,-12,-7
1528188115154782,0,1,-1,-1,-1,0,-1,-1
1528188115156751,0,2,1,2,1,0,-2,-1
1528188115156751,-2,-1,0,-1,0,-1,-1,-2
1528188115169704,-1,-2,-1,0,-1,1,4,-1
1528188115169704,-1,-3,-2,-1,-2,-4,-2,-1
1528188115171701,-1,1,-2,0,1,0,1,2
1528188115171701,-4,-1,0,-1,0,-1,-4,-7
1528188115192642,-2,0,-1,0,0,1,1,-3
1528188115192642,0,1,1,-1,-1,-2,-2,-1
1528188115194638,0,-1,0,1,-1,0,0,2
1528188115194638,-1,-3,-1,-2,0,-1,-1,-1
1528188115206660,-1,0,-2,-1,-1,0,0,1
1528188115206660,0,-1,-1,-2,-1,0,0,-2
1528188115215581,1,1,-2,-1,-1,-4,-12,0
1528188115215581,-1,-1,0,1,-1,1,3,1
1528188115236554,-1,-2,0,-2,0,1,6,1
1528188115236554,1,0,-1,-1,-1,0,-1,0
1528188115245502,-2,-1,0,-1,-2,0,-2,-2
1528188115245502,0,0,0,0,-2,0,1,5
1528188115252519,1,0,0,0,0,-1,1,-4
1528188115252519,-1,1,-1,-2,-1,-1,-3,1
1528188115254487,-1,0,-1,-1,-1,-1,-1,-4
1528188115254487,0,-1,-2,-1,-1,0,-2,2
1528188115266496,0,0,-2,0,-1,1,3,1
1528188115266496,-2,-2,0,0,-1,0,0,1
1528188115275421,-1,-2,-2,-2,-2,0,-1,-1
1528188115275421,0,0,-1,0,-1,0,4,-1
1528188115290533,0,0,0,-1,1,-2,-6,0
1528188115290533,1,0,-2,-1,-1,0,-2,-3
1528188115296413,-1,1,3,2,0,0,3,0
1528188115296413,-1,-1,-1,-2,0,-2,1,-1
1528188115320302,0,-5,-2,-1,-1,0,2,1
1528188115320302,-2,-1,-1,-2,0,0,-1,-1
1528188115322299,-2,2,0,-2,0,0,1,2
1528188115322299,1,-1,0,0,-2,1,-1,0
1528188115335296,2,0,-3,1,-1,1,2,7
1528188115335296,-1,1,2,-1,1,-1,-2,2
1528188115337508,0,-3,-1,-1,-1,-2,-1,-5
1528188115337508,0,-1,0,-2,1,-2,-1,1
1528188115350371,-4,-1,-1,0,-1,-1,1,-4
1528188115350371,1,-1,-3,-1,-1,1,3,0
1528188115357007,-2,1,-1,-2,-1,-4,-12,-1
1528188115357007,-2,2,1,-1,-1,1,3,0
1528188115380691,1,-2,-1,0,1,-1,0,0
1528188115380691,-1,-3,0,-1,-1,-1,0,-1
1528188115381728,-2,-1,0,-1,0,-2,-3,0
1528188115381728,-2,-2,-1,1,-2,0,-1,-2
1528188115386678,0,0,1,0,-1,2,2,1
1528188115386678,0,0,-2,-1,0,-1,0,-1
1528188115402905,0,-1,-1,-1,-1,0,-2,-4
1528188115402905,-3,-2,-2,-1,-1,-1,-1,-4
1528188115409668,-1,1,-2,0,0,0,-1,-8
1528188115409668,-1,1,1,0,1,-2,-3,-2
1528188115417120,2,-2,-1,0,-1,-3,0,3
1528188115417120,1,1,3,0,1,0,-2,1
1528188115433209,-1,1,-3,1,1,0,1,-2
1528188115433209,-2,-2,1,0,-1,0,4,-1
1528188115434870,-3,-3,-2,0,0,-1,-2,-1
1528188115434870,-1,0,-1,-1,-2,-2,-3,1
1528188115446824,-2,-3,-2,-1,-3,-1,0,-1
1528188115446824,0,0,-1,-1,-2,0,0,-2
1528188115455829,0,1,1,0,-1,-1,0,1
1528188115455829,0,-2,0,-1,1,-2,-1,-5
1528188115469798,-3,-2,-3,-2,-3,-1,-2,-7
1528188115469798,0,0,0,0,1,1,2,0
1528188115483764,-2,-1,-4,-1,0,-3,-12,0
1528188115483764,1,0,0,0,-2,1,1,2
1528188115492755,1,1,-2,0,0,0,-2,0
1528188115492755,1,-2,0,-2,0,0,1,0
1528188115494737,-1,0,1,-1,-1,-1,3,0
1528188115494737,0,1,-2,-1,-2,-2,-2,-1
1528188115506669,-2,0,-1,0,0,0,2,-1
1528188115506669,-2,-2,-2,-1,-1,-2,-3,-2
1528188115515642,-1,0,-1,-1,-1,-2,0,-2
1528188115515642,0,2,-1,-1,0,-1,-2,-1
1528188115529607,2,-1,0,-2,-1,1,3,6
1528188115529607,-2,-1,1,-2,1,0,1,-1
1528188115536659,1,0,1,0,-1,1,-1,2
1528188115536659,-1,-2,0,1,1,-2,-1,-5
1528188115552912,0,0,1,-3,-1,-1,-3,-4
1528188115552912,-1,-4,-3,-1,0,0,3,3
1528188115554609,0,-1,-1,0,-2,1,4,0
1528188115554609,-1,-3,-3,0,1,0,-2,-1
1528188115575553,-3,-3,-3,-2,-2,-2,1,1
1528188115575553,-1,-2,-2,-2,-1,2,1,2
1528188115576578,0,1,1,0,0,-1,-1,-1
1528188115576578,0,2,-1,-1,1,-1,0,-1
1528188115589777,0,-1,0,-1,-1,-1,-1,2
1528188115589777,1,0,-2,0,-3,0,1,-1
1528188115596590,-2,-3,-1,-1,-1,1,-2,-4
1528188115596590,-2,0,1,0,0,1,0,-2
1528188115612716,0,2,0,0,-2,0,2,2
1528188115612716,1,-2,-1,1,-1,0,-2,-2
1528188115614896,1,1,-2,-2,0,0,3,0
1528188115614896,-1,-2,-1,-1,-3,-3,-6,3
1528188115636049,-1,2,2,-1,-1,1,-1,1
1528188115636049,0,1,0,-2,-1,2,4,-1
1528188115636842,-2,-1,-2,-2,0,1,1,1
1528188115636842,-2,-3,-1,0,-2,-1,-2,-1
1528188115650043,0,0,-1,1,0,-1,-1,0
1528188115650043,0,-1,0,-1,-1,0,1,-1
1528188115657784,0,-2,-2,1,0,-2,-1,-4
1528188115657784,-5,-1,-1,-2,-1,-3,-6,-6
1528188115681142,-1,1,1,-1,0,0,0,-3
1528188115681142,-1,-2,-2,-2,0,1,5,-1
1528188115682767,2,0,-1,0,2,0,1,1
1528188115682767,1,0,-1,0,-1,-6,-13,-1
1528188115696065,-1,-2,-2,-1,0,0,2,-1
1528188115696065,0,2,2,-1,-1,-2,0,1
1528188115696680,-1,1,-1,0,0,0,1,-1
1528188115696680,-2,-1,-3,0,1,1,2,0
1528188115709907,0,-1,-1,-1,-1,-2,-4,-4
1528188115709907,-1,3,2,0,-1,-1,1,0
1528188115723913,0,-1,0,0,-1,0,1,3
1528188115723913,-1,0,0,0,0,1,-1,-4
1528188115733886,-2,-1,-2,-1,-2,-2,-2,0
1528188115733886,1,2,-3,-1,0,1,1,2
1528188115734886,0,-1,-2,-1,-2,-1,2,5
1528188115734886,-2,0,0,0,-1,-2,-3,-9
1528188115763049,0,0,0,1,-1,2,-2,0
1528188115763049,1,0,-1,-1,-1,-2,0,3
1528188115764803,0,0,1,-2,-1,-2,-5,0
1528188115764803,-1,0,-1,0,-1,0,2,-2
1528188115768796,-1,0,3,0,0,-1,-1,0
1528188115768796,1,2,-2,-1,1,-1,-1,-2
1528188115785747,0,0,-2,-1,-1,-2,-3,-1
1528188115785747,-1,-3,0,1,0,0,-2,-1
1528188115792999,-2,-2,-1,-1,-2,0,0,1
1528188115792999,0,-1,-2,-1,-1,0,3,5
1528188115794723,0,0,-1,-1,-1,-1,-3,-12
1528188115794723,0,-1,-1,-2,-1,-3,-2,3
1528188115822651,1,1,0,-1,-1,-1,1,0
1528188115822651,-2,-4,-5,-1,-1,0,2,5
1528188115824649,-1,0,1,-1,-1,-3,-4,-4
1528188115824649,0,1,3,1,-1,-2,0,-1
1528188115836611,1,-1,1,-1,-1,0,0,2
1528188115836611,0,0,0,0,-1,0,-2,-6
1528188115851572,0,0,-2,-1,0,-1,0,1
1528188115851572,1,0,0,-2,0,-1,1,5
1528188115852569,-1,-1,-1,-1,-1,-2,-1,-3
1528188115852569,0,0,-2,-2,-1,-2,-2,-4
1528188115876504,-3,-3,-1,0,-1,-1,-3,-2
1528188115876504,1,1,0,-1,-1,-1,0,-1
1528188115877505,-1,1,-2,1,-2,-1,-1,2
1528188115877505,0,-3,2,-1,-1,-1,-1,-3
1528188115888473,1,2,1,0,0,0,5,1
1528188115888473,1,-1,-1,0,-1,1,-2,4
1528188115912409,-1,-2,-1,1,1,-4,-4,-3
1528188115912409,0,-1,-3,-1,0,1,1,0
1528188115914404,-2,-4,-1,0,-1,-1,0,-1
1528188115914404,-2,0,-1,0,0,0,0,-3
1528188115937342,-1,-4,-1,-1,-1,0,1,0
1528188115937342,-1,0,0,-1,0,0,2,8
1528188115939337,0,2,0,1,-1,0,-3,-9
1528188115939337,-2,-3,-2,0,-1,-1,-1,-3
1528188115966265,-1,0,-1,0,0,0,-3,2
1528188115966265,1,-2,1,0,-1,0,1,1
1528188115968270,-2,0,1,-1,-3,-2,-3,-1
1528188115968270,-1,-1,-2,-1,0,-1,-1,0
1528188115969257,-1,1,-1,-1,0,1,5,0
1528188115969257,-1,1,-2,0,1,-1,-3,-3
1528188115973246,0,-2,-4,-1,-2,-2,-3,3
1528188115973246,-1,1,0,-2,0,0,0,-8
1528188115974244,-1,-1,-1,-1,-2,-1,0,1
1528188115974244,1,-1,1,0,1,1,3,-3
1528188115980242,1,-2,-1,0,0,-1,-1,1
1528188115980242,-2,-3,-1,0,-2,-1,-1,0
1528188116003165,-3,-1,-3,0,0,1,3,-1
1528188116003165,-1,1,1,0,-1,-2,-2,-2
1528188116004168,-1,-2,-2,1,-1,-2,-1,1
1528188116004168,-2,0,1,-1,-1,-1,-3,-8
1528188116019123,-1,0,0,-1,0,2,2,0
1528188116019123,-1,-2,-1,-1,0,0,-2,-1
1528188116021118,2,0,-1,0,0,-5,-5,3
1528188116021118,2,0,-1,-1,0,-1,0,3
1528188116040068,-2,0,-3,-2,-1,-2,1,0
1528188116040068,-2,0,-1,-1,-1,1,1,-2
1528188116042064,0,-3,-2,-1,0,0,-1,-1
1528188116042064,-1,-3,-2,0,-2,-2,-1,0
1528188116055036,-1,-1,0,1,0,0,1,-1
1528188116055036,-1,-1,0,-1,-1,-1,-1,2
1528188116068989,0,-1,0,-2,-1,0,-1,-1
1528188116068989,1,1,-1,-1,0,0,0,2
1528188116077965,-2,-1,0,0,0,-1,-1,-2
1528188116077965,-1,-2,-2,0,-1,-3,-3,-3
1528188116078963,-1,-2,0,-1,0,0,0,-2
1528188116078963,-1,-2,-3,-1,-1,0,0,0
1528188116099907,0,1,3,0,-2,-1,-1,1
1528188116099907,1,2,0,0,-1,-1,-1,0
1528188116101909,-4,-2,-2,0,0,-1,-1,-4
1528188116101909,-1,-2,-2,0,0,-1,1,-1
1528188116123084,2,1,-2,-3,-1,2,4,7
1528188116123084,0,0,1,0,-2,-5,-14,-9
1528188116124841,0,0,1,-2,0,-1,0,0
1528188116124841,-1,-2,0,-1,-1,0,-1,-1
1528188116153040,-1,-1,-3,-2,1,0,-3,-2
1528188116153040,-2,0,0,1,-1,1,4,3
1528188116154762,0,-1,-1,0,1,0,-1,0
1528188116154762,0,0,-1,-2,-2,2,1,1
1528188116160956,1,-1,0,-1,1,0,-3,-4
1528188116160956,0,-3,-2,0,-2,-2,-1,-1
1528188116161742,1,-3,-1,0,-1,-1,-1,1
1528188116161742,0,-1,-3,0,0,-1,1,-1
1528188116182701,-2,0,0,-1,-2,-1,2,0
1528188116182701,0,-1,-1,-2,0,-2,-2,-1
1528188116184700,-3,-3,-1,-1,-2,-1,-3,-2
1528188116184700,-2,2,2,1,0,0,0,-2
1528188116205624,4,1,0,-1,-2,1,1,3
1528188116205624,-2,-1,0,1,1,0,3,0
1528188116206624,0,-1,-2,-2,-1,-3,-6,-1
1528188116206624,-2,-2,-3,-1,-1,-1,2,0
1528188116219623,-1,1,0,1,-2,0,-1,-1
1528188116219623,0,-1,-1,-1,-1,0,-1,0
1528188116237539,-2,-2,-1,0,0,2,3,-2
1528188116237539,-1,-2,0,-1,-1,1,-1,5
1528188116238794,0,0,0,-1,0,-2,-2,-4
1528188116238794,-1,-1,-1,-2,-2,-2,-4,-5
1528188116241529,0,2,0,0,-1,0,0,0
1528188116241529,0,0,-1,-1,1,-1,-2,-1
1528188116264784,-2,-3,-2,0,-1,1,1,2
1528188116264784,0,-2,0,-1,-1,0,0,-1
1528188116266784,-1,0,-2,-2,0,-2,-1,-4
1528188116266784,0,-1,-4,-2,-1,-1,-1,1
1528188116279734,0,-2,1,0,-1,-1,2,1
1528188116279734,0,2,1,-1,-1,0,-1,-2
1528188116287714,1,0,-1,0,0,1,0,3
1528188116287714,-1,-1,0,-2,-1,-1,2,-2
1528188116293697,0,-1,-1,0,0,0,1,-1
1528188116293697,0,-1,0,0,-1,0,0,0
1528188116302674,0,-2,-1,-2,-1,-2,-2,-4
1528188116302674,0,0,0,-1,-1,-1,-1,-4
1528188116318957,0,0,1,0,0,0,3,3
1528188116318957,1,1,1,0,0,1,0,0
1528188116319919,0,-2,-1,0,-1,-1,-2,1
1528188116319919,-3,0,-1,0,-2,0,0,-4
1528188116339864,0,-1,-1,0,0,0,-2,-3
1528188116339864,0,1,0,0,1,-2,0,2
1528188116347843,1,-1,-1,-1,-2,0,-1,-4
1528188116347843,-1,-3,-3,-1,0,-3,-2,-2
1528188116353828,1,1,-1,0,0,-1,1,3
1528188116353828,-1,0,0,-1,0,-1,-2,0
1528188116379759,-2,-2,-1,-1,0,1,1,1
1528188116379759,0,1,-2,-2,-1,-2,0,1
1528188116380755,-1,-1,-2,0,-1,-2,0,-4
1528188116380755,0,-1,-2,-2,-2,-2,3,-1
1528188116383748,-3,-1,-1,1,-3,-5,-13,-2
1528188116383748,0,0,-1,-1,-2,2,1,1
1528188116400748,0,0,1,0,-1,1,0,1
1528188116400748,-1,0,0,1,0,0,3,1
1528188116401714,-1,-1,-1,-1,1,-1,3,-2
1528188116401714,0,-3,-1,-1,0,-2,-1,-1
1528188116429679,2,2,0,-1,-1,-2,-2,3
1528188116429679,-1,-1,-1,-2,0,-1,0,1
1528188116438656,0,-1,1,-2,0,-1,1,-3
1528188116438656,0,-2,1,0,-1,-1,-2,2
1528188116439654,0,-2,0,-2,-1,-1,0,-8
1528188116439654,-1,-2,-3,0,0,-2,0,-1
1528188116440613,1,-1,-2,0,-1,-1,1,2
1528188116440613,1,1,-1,0,-2,1,5,0
1528188116460597,-2,-3,-2,-2,-1,-2,-5,-8
1528188116460597,1,-3,-1,1,1,-1,-6,-1
1528188116462536,-1,1,0,0,-1,2,1,0
1528188116462536,-2,-1,0,-1,0,-2,1,2
1528188116473510,0,1,-1,1,1,-1,3,3
1528188116473510,0,-1,-2,-1,-2,-1,1,-3
1528188116482485,-1,-2,-3,0,0,-2,-2,-2
1528188116482485,0,0,1,0,0,0,2,0
1528188116497482,-1,-1,0,-1,-1,0,-2,1
1528188116497482,0,0,-1,-2,-3,-1,1,3
1528188116499489,0,1,1,0,0,-1,-1,-3
1528188116499489,-3,0,-3,-1,-1,0,-2,-2
1528188116520420,-1,0,0,0,0,-1,0,-3
1528188116520420,0,0,2,-1,1,1,-2,2
1528188116522421,0,0,-1,1,-1,-1,1,0
1528188116522421,0,-1,-1,-1,-1,-1,-2,0
1528188116542362,-1,-2,0,-1,0,-2,-1,-1
1528188116542362,-1,-1,0,0,0,2,0,0
1528188116544328,-1,0,-2,0,-2,0,0,-2
1528188116544328,-1,-2,0,-1,1,1,1,-1
1528188116557284,-1,1,-1,0,-2,0,1,-2
1528188116557284,-3,-2,1,0,-2,-5,-11,-4
1528188116559297,1,-2,0,-1,1,0,0,3
1528188116559297,0,-1,0,1,-1,-1,-2,0
1528188116580261,0,-3,-2,-2,-2,1,2,2
1528188116580261,-3,0,-1,-1,1,1,3,-5
1528188116587242,-2,2,0,0,-1,-2,-5,-3
1528188116587242,0,-2,0,-1,-1,-1,0,-2
1528188116602205,0,-1,-1,0,1,-1,-2,1
1528188116602205,0,-1,-1,2,-2,-2,1,1
1528188116603167,-1,-2,-1,-3,-1,0,1,0
1528188116603167,-2,0,1,-2,0,0,1,-5
1528188116625141,-2,-1,-1,0,-1,-1,-2,-1
1528188116625141,2,-1,-3,-2,-1,0,1,7
1528188116626101,-1,-2,-3,-2,0,1,3,-1
1528188116626101,1,0,-1,1,1,-3,-3,-2
1528188116639104,-2,0,0,-2,-1,-1,-2,0
1528188116639104,1,1,-1,-2,1,0,1,-2
1528188116640094,0,0,2,0,-1,-2,-1,0
1528188116640094,-3,0,0,-1,0,-2,-2,-2
1528188116662052,-1,-1,-1,0,0,0,3,-2
1528188116662052,1,-1,-1,0,-1,-2,-7,0
1528188116663001,0,-1,0,-1,0,1,3,2
1528188116663001,-1,-1,1,0,-2,-1,-2,1
1528188116686938,-1,0,-1,0,1,-2,0,-2
1528188116686938,0,-1,0,1,-1,1,3,0
1528188116687972,1,-1,-3,-1,0,-2,0,1
1528188116687972,0,-1,-2,0,0,-1,0,1
1528188116707881,-1,-2,-1,-2,0,0,-1,8
1528188116707881,0,0,-1,1,0,-1,-1,-6
1528188116707881,1,0,-1,-2,-1,-2,-3,0
1528188116707881,-2,0,1,-2,1,-1,-2,-1
1528188116738798,-2,0,0,-1,-1,-1,-3,-4
1528188116738798,-1,-1,0,0,0,-2,0,2
1528188116739796,-1,-2,-2,0,-1,-1,-3,-1
1528188116739796,-3,-1,0,1,-2,-2,1,-2
1528188116741790,1,-2,-2,0,-1,0,2,2
1528188116741790,-1,-1,-1,0,0,0,2,2
1528188116752257,0,0,1,1,-1,0,2,-1
1528188116752257,-1,-3,1,-1,-1,-5,-11,-2
1528188116760223,0,-3,-1,0,0,0,-2,-5
1528188116760223,-1,-1,0,0,-2,0,-1,-2
1528188116760223,0,2,1,0,-2,0,2,5
1528188116760223,0,-1,-2,0,0,1,4,-2
1528188116799124,0,-1,-1,1,-2,-1,-1,-1
1528188116799124,-2,0,-2,-2,0,-1,-3,-2
1528188116800118,1,-1,0,-2,0,0,0,0
1528188116800118,0,-1,0,0,0,1,3,3
1528188116801119,0,-1,-1,-1,-1,1,-2,-2
1528188116801119,-1,0,-2,0,-1,-1,2,0
1528188116821091,0,0,-2,0,-2,-4,-2,4
1528188116821091,1,-2,-1,0,0,1,0,-7
1528188116823058,-1,1,1,0,-1,-2,-1,-2
1528188116823058,1,-2,0,-1,-1,0,-1,-2
1528188116823058,-2,-2,-1,-1,1,-1,-1,1
1528188116823058,1,1,-1,-1,-1,1,2,5
1528188116850598,-3,-2,-3,0,0,0,1,-2
1528188116850598,-4,0,-1,-1,0,-1,-3,-2
1528188116851304,-1,-2,-1,-1,-2,0,1,-3
1528188116851304,-1,-2,-3,-1,0,0,2,-3
1528188116857272,-1,-1,1,0,-2,-5,-6,-1
1528188116857272,3,-1,-1,-1,-1,-1,0,4
1528188116858270,-1,-1,-1,0,0,3,-1,-3
1528188116858270,0,0,-1,-1,-1,0,5,3
1528188116879213,-1,-1,1,0,-2,0,0,-1
1528188116879213,0,0,0,-2,-1,-3,-1,-1
1528188116880223,-2,-2,0,-1,0,-1,-1,-2
1528188116880223,0,0,-2,-1,-2,0,-2,-2
1528188116902154,-1,0,-1,0,0,1,0,-2
1528188116902154,-1,-1,0,-1,0,0,-1,-1
1528188116903150,2,-1,1,0,0,-1,0,1
1528188116903150,-1,1,-2,0,-1,-3,-1,-1
1528188116926133,0,-1,-2,-1,0,0,2,0
1528188116926133,-3,-3,0,-1,-2,0,-1,-8
1528188116926133,-1,2,-1,-1,-1,-2,-2,-3
1528188116926133,0,-1,0,-1,-2,0,-1,0
1528188116956010,0,-1,-2,-1,1,-1,1,4
1528188116956010,-1,0,-1,-3,-1,0,-1,2
1528188116957006,-1,1,-1,-1,0,2,-1,0
1528188116957006,-1,-1,0,0,0,-1,-2,0
1528188116958005,-1,-2,-2,-2,0,-1,1,-3
1528188116958005,1,0,-1,-1,-1,-1,0,1
1528188116960995,1,-2,-2,-1,-1,1,2,2
1528188116960995,-1,0,0,-1,-1,-1,-10,-2
1528188116985977,-1,0,1,0,1,0,1,1
1528188116985977,0,-2,0,1,0,-1,3,-1
1528188116985977,0,0,0,1,-1,-2,-2,0
1528188116985977,1,-1,1,0,-1,-2,-1,1
1528188117000134,-2,-2,0,-2,0,-1,-1,-5
1528188117000134,0,-1,-1,-1,-1,0,0,0
1528188117001168,1,2,0,-2,-1,1,0,2
1528188117001168,-3,1,0,0,0,-1,1,-2
1528188117022097,0,-2,0,0,0,0,-3,-1
1528188117022097,0,0,0,-1,2,1,0,-2
1528188117038025,-1,-2,-1,-1,-2,-2,1,-2
1528188117038025,-1,0,0,-2,0,1,0,1
1528188117045743,-1,1,-1,1,-1,-2,-3,0
1528188117045743,-2,-1,-1,-1,-1,-1,0,-1
1528188117045743,3,-1,0,-1,0,-2,-1,2
1528188117045743,0,-1,-1,0,-1,0,2,0
1528188117060725,-2,-1,-2,-2,0,2,3,-3
1528188117060725,-1,1,-1,1,-3,-6,-12,-1
1528188117060725,-1,-1,-1,-1,-2,-1,-1,-2
1528188117060725,1,-2,-1,0,-1,-1,-2,0
1528188117081936,1,0,1,1,-1,-1,0,1
1528188117081936,-1,0,1,0,-1,1,4,0
1528188117082936,-2,-1,-3,-2,0,0,-2,0
1528188117082936,1,0,0,0,0,-2,-1,1
1528188117097542,-1,-1,-2,0,-2,-3,-4,-8
1528188117097542,-1,0,-1,-1,-1,0,2,1
1528188117098191,-2,-1,-1,-1,0,-1,-1,-2
1528188117098191,1,0,0,1,1,1,3,3
1528188117120318,0,0,1,0,-1,0,-1,0
1528188117120318,-1,-2,-1,1,1,2,-1,-3
1528188117127330,-1,1,1,1,-2,-1,-1,-3
1528188117127330,1,-1,0,-1,-1,-2,-3,1
1528188117159029,-2,-2,-1,-3,-1,-1,-2,1
1528188117159029,-1,0,1,0,0,1,1,-1
1528188117160025,-1,0,0,1,1,2,1,0
1528188117160025,1,0,-2,-1,-1,-1,-1,-1
1528188117161027,-2,-1,-1,-1,-1,-1,-2,-1
1528188117161027,-2,-1,-1,-2,-1,-1,2,0
1528188117165015,0,-3,-1,0,1,0,2,-2
1528188117165015,-2,-1,0,-1,0,-1,2,-1
1528188117180055,0,-1,-2,-1,-1,-5,-13,-1
1528188117180055,0,-2,-2,-1,-2,0,3,1
1528188117187423,0,0,0,2,-2,-1,2,-1
1528188117187423,0,-2,-2,-1,0,-1,0,2
1528188117203331,1,1,0,0,0,-2,-1,1
1528188117203331,-1,-2,0,-1,-2,-1,-2,0
1528188117204001,-4,-3,-3,0,1,1,1,-2
1528188117204001,0,1,1,-1,-1,-1,-1,-2
1528188117216965,0,0,-1,-1,0,1,1,0
1528188117216965,-1,-1,-2,-1,-1,0,-2,1
1528188117232957,0,-1,0,-2,0,0,1,1
1528188117232957,-1,-1,-1,-1,-2,1,2,4
1528188117240900,-1,0,-2,-2,-1,-1,-5,-8
1528188117240900,-2,1,1,1,0,-1,-4,-4
1528188117243961,-1,-1,-1,-3,0,-1,1,1
1528188117243961,-1,0,-1,-1,1,-1,1,0
1528188117248873,1,1,-1,0,-1,-3,-2,1
1528188117248873,-1,1,-3,-2,0,-1,-2,-1
1528188117265173,0,-1,-1,1,-1,0,1,2
1528188117265173,0,0,-1,-1,0,0,-1,-1
1528188117279951,0,-2,0,-1,0,-1,-1,0
1528188117279951,-1,-2,-1,0,0,0,-1,-1
1528188117285037,-1,1,0,-2,-1,1,1,-2
1528188117285037,0,1,-1,-1,-2,-2,-2,-1
1528188117291770,0,0,-1,0,-1,-1,1,2
1528188117291770,0,-1,-1,-2,-1,0,-1,1
1528188117299003,2,0,-1,0,0,-2,1,0
1528188117299003,-1,0,0,0,-1,-2,-3,-5
1528188117314732,-5,-3,-1,-2,0,-1,-2,-2
1528188117314732,0,1,-1,0,-1,-2,1,0
1528188117315696,0,2,0,-1,1,-1,-1,1
1528188117315696,0,0,-1,-1,-1,-1,1,0
1528188117328663,-1,-1,-1,0,-1,1,2,1
1528188117328663,-1,-1,0,-1,0,0,-1,-1
1528188117344958,0,1,0,1,0,0,-3,-2
1528188117344958,-1,-1,-1,0,-2,2,2,1
1528188117351958,-2,0,1,0,-1,-2,2,-3
1528188117351958,1,-1,-1,-2,-2,-4,-14,-1
1528188117358581,0,-1,1,0,0,-1,1,0
1528188117358581,0,-2,-1,1,0,2,3,-2
1528188117375035,-1,-3,-1,-1,0,-1,0,0
1528188117375035,0,-1,-1,1,1,0,-2,-1
1528188117376170,-2,0,-1,-1,0,-1,-2,-1
1528188117376170,0,0,-1,1,-1,-2,0,1
1528188117389625,0,0,0,-1,-2,-2,-2,0
1528188117389625,-2,-1,0,-1,0,0,-1,-1
1528188117396537,1,-2,-1,-1,-1,0,-1,1
1528188117396537,0,-2,-1,1,0,0,2,-2
1528188117411496,1,-1,-1,0,0,-1,-2,3
1528188117411496,-2,1,0,-1,-1,1,0,-1
1528188117427453,-1,0,0,0,-1,0,-2,-1
1528188117427453,-1,0,-1,0,-3,0,1,0
1528188117434744,0,-3,-1,-1,-1,-2,-1,-1
1528188117434744,-1,-3,-2,-2,-1,-1,-2,-2
1528188117435475,-1,-1,-2,-2,0,0,0,-1
1528188117435475,-2,-1,-1,-2,-1,0,-1,0
1528188117448464,0,1,-1,0,0,-1,-1,-1
1528188117448464,-2,0,-1,0,-1,-1,1,1
1528188117456669,-1,-2,-2,-1,-3,-1,0,1
1528188117456669,-1,-2,0,0,0,-1,1,-1
1528188117456669,-1,-2,0,0,0,-1,1,-1
1528188117456669,-1,-2,0,0,0,-1,1,-1
1528188117456669,-1,-2,0,0,0,-1,1,-1
1528188117456669,-1,-2,0,0,0,-1,1,-1
1528188117456669,-1,-2,0,0,0,-1,1,-1
1528188117456669,-1,-2,0,0,0,-1,1,-1
1528188117456669,-1,-2,0,0,0,-1,1,-1
1528188117456669,-1,-2,0,0,0,-1,1,-1
1528188117456669,-1,-2,0,0,0,-1,1,-1
1528188117456669,-1,-2,0,0,0,-1,1,-1
1528188117456669,-1,-2,0,0,0,-1,1,-1
1528188117456669,-1,-2,0,0,0,-1,1,-1
1528188117456669,-1,-2,0,0,0,-1,1,-1
1528188117456669,-1,-2,0,0,0,-1,1,-1
1528188117456669,-1,-2,0,0,0,-1,1,-1
1528188117456669,-1,-2,0,0,0,-1,1,-1
1528188117456669,-1,-2,0,0,0,-1,1,-1
1528188117456669,-1,-2,0,0,0,-1,1,-1
1528188117456669,-1,-2,0,0,0,-1,1,-1
1528188117456669,-1,-2,0,0,0,-1,1,-1
1528188117456669,-1,-2,0,0,0,-1,1,-1
1528188117456669,-1,-2,0,0,0,-1,1,-1
1528188117456669,-1,-2,0,0,0,-1,1,-1
