timestamp,emg1,emg2,emg3,emg4,emg5,emg6,emg7,emg8
1528189976535707,0,-1,-1,-2,0,0,-1,-1
1528189976535707,-1,-1,0,-2,1,-2,-2,-1
1528189976536705,0,-1,0,-2,-1,-1,-1,-2
1528189976536705,-2,1,-1,-1,-1,-2,-1,1
1528189976537702,1,0,-1,0,-1,-1,0,0
1528189976537702,-1,-1,-1,0,-1,-2,0,0
1528189976538700,0,0,0,-1,-1,0,0,0
1528189976538700,1,-2,-1,-1,-1,-1,-2,-1
1528189976545681,1,0,-1,-1,-1,-1,-1,-1
1528189976545681,-2,-2,0,-1,-1,-1,-1,-1
1528189976552663,-1,-2,-2,0,-1,0,0,-1
1528189976552663,-1,-1,-2,-1,-1,0,0,-2
1528189976564664,-1,-2,-1,0,-2,0,-2,-1
1528189976564664,0,-1,-2,-1,-1,0,-1,-1
1528189976576598,-1,-1,0,0,0,-1,-2,0
1528189976576598,-1,-1,-1,-1,0,-2,0,-2
1528189976582582,-2,-1,0,-1,0,-1,-1,0
1528189976582582,-1,1,-1,-2,-1,0,1,0
1528189976597542,-2,-3,-1,-2,-1,-2,-3,0
1528189976597542,0,-2,0,0,-1,-3,-1,-3
1528189976609519,-1,-2,-2,0,-1,-1,0,-3
1528189976609519,0,0,-1,0,0,0,-1,-1
1528189976621513,-1,-2,0,0,-1,0,0,-2
1528189976621513,-3,-2,-1,-2,-2,0,-2,-1
1528189976662369,-1,-2,-1,-1,0,-3,-2,1
1528189976662369,-2,-2,-1,-1,-2,-2,-2,0
1528189976666361,-1,-1,-1,-2,-1,-1,0,-2
1528189976666361,0,-1,-1,-2,-1,-1,-1,0
1528189976667365,-2,-1,-2,0,0,-2,0,-1
1528189976667365,0,-1,-3,-1,-1,-2,0,-2
1528189976668354,-1,-1,-1,0,-1,-1,-2,1
1528189976668354,-1,-1,-3,-1,0,-2,-1,-1
1528189976672352,-2,-1,-2,-2,-2,1,0,-3
1528189976672352,-1,0,0,0,-1,-1,-1,-2
1528189976681318,0,0,-1,-1,-3,-1,-1,-2
1528189976681318,-2,1,0,-2,-2,-1,1,-1
1528189976696278,0,0,0,-1,-2,-2,-2,-1
1528189976696278,-2,-3,-1,-2,-2,0,0,-1
1528189976702263,1,-2,-1,-1,-1,-1,-2,-1
1528189976702263,-1,-1,-2,0,-1,2,-1,-2
1528189976710241,-2,-1,-1,0,-1,0,-2,-1
1528189976710241,0,-1,1,-2,-1,-3,0,0
1528189976733232,-1,-1,-2,-1,-1,-1,-2,0
1528189976733232,-2,-2,-1,-2,-1,0,-3,0
1528189976734177,-2,-1,0,-2,-2,-1,-2,0
1528189976734177,-1,-1,-1,0,-1,1,-1,-1
1528189976748139,-2,-1,-2,-1,-1,-2,0,-2
1528189976748139,1,-2,0,-1,1,-1,0,-1
1528189976749136,-2,1,-1,-1,-2,-1,1,-2
1528189976749136,0,0,0,-1,-2,0,-3,0
1528189976779058,-2,0,0,-1,-1,-2,-2,0
1528189976779058,-3,0,-2,0,-3,0,-1,-1
1528189976780090,0,0,0,-1,0,1,0,-2
1528189976780090,0,0,-2,-2,-1,-1,-1,0
1528189976793049,-1,-1,-2,-1,-1,-1,0,-1
1528189976793049,0,-1,-1,-1,0,-1,-1,-1
1528189976794017,-2,-1,-2,-2,0,-2,0,-2
1528189976794017,-1,-1,-2,0,-2,-2,-1,-1
1528189976807980,-1,-1,-1,-3,-1,-2,-1,-2
1528189976807980,0,0,-2,-1,-1,-1,-1,0
1528189976808980,-1,-2,0,-1,0,-1,-2,-2
1528189976808980,-2,0,0,-1,-1,-1,-1,-1
1528189976830919,-1,-2,-1,-2,-2,-1,-1,-1
1528189976830919,-2,-1,-1,-1,-2,-1,-2,-1
1528189976831917,0,0,-1,-2,-1,0,-1,-1
1528189976831917,-1,-1,-1,0,0,-1,-2,-1
1528189976852899,-1,-1,-2,-1,-1,1,-1,-1
1528189976852899,-2,-2,0,-1,-1,0,-2,0
1528189976853874,-1,-2,-1,0,-2,0,-1,-2
1528189976853874,-2,-1,-1,-1,0,0,-1,0
1528189976868847,-1,-1,-1,1,-1,0,-1,0
1528189976868847,0,0,0,-1,0,0,0,-1
1528189976868847,-2,-2,-2,-1,0,-2,-1,0
1528189976868847,-1,0,-1,0,-1,0,-1,-1
1528189976890816,0,-1,-2,0,-1,-1,-1,-2
1528189976890816,-2,-2,-2,-1,-1,1,-2,-3
1528189976891756,-1,-2,0,-1,0,-1,0,-2
1528189976891756,0,-1,-1,-2,-3,-1,1,-2
1528189976913749,-1,-1,-1,0,-1,-1,1,-2
1528189976913749,-1,-1,-1,0,-2,-2,1,0
1528189976913749,-3,-1,2,-1,-1,-2,-2,-1
1528189976913749,-1,-1,-1,-1,-1,-1,-1,0
1528189976927703,0,-1,-2,-1,-1,-2,-1,-2
1528189976927703,-2,-2,-2,-1,1,0,0,-1
1528189976936666,0,0,-2,-1,-2,0,-1,0
1528189976936666,-2,-1,-2,-3,-2,-3,-1,-1
1528189976950624,-1,-1,0,-1,1,0,-1,-1
1528189976950624,-2,-1,-2,-1,-2,-2,-1,0
1528189976951595,-2,-1,-1,-1,-2,0,-1,0
1528189976951595,-2,-2,-1,-1,-1,-1,-1,-1
1528189976973566,1,1,1,-1,-1,-1,0,0
1528189976973566,-2,-2,-1,-1,-2,-2,-1,-2
1528189976974544,0,-1,-2,0,0,-1,0,-1
1528189976974544,0,-1,-1,-2,-2,-2,0,0
1528189976988498,-2,-2,0,-3,-1,-1,-1,0
1528189976988498,-1,1,0,-1,0,0,-1,-2
1528189976989552,0,0,-2,-2,-1,-2,0,-1
1528189976989552,0,-2,-2,0,1,-1,-2,-1
1528189977010440,0,0,-2,0,-1,-1,-2,0
1528189977010440,-2,-2,-1,-1,0,-1,-1,0
1528189977011440,0,-2,-1,-1,0,0,-2,0
1528189977011440,-1,-4,-1,0,-1,-1,-1,-1
1528189977033404,-3,-2,-2,1,-1,-1,-1,-2
1528189977033404,-1,0,-2,-2,0,0,-1,-1
1528189977034375,-1,0,-3,-2,-3,-3,-1,-1
1528189977034375,0,-1,-1,0,-2,-1,0,-2
1528189977048390,-1,-2,-2,-2,0,-2,-1,-2
1528189977048390,1,-3,-1,0,-2,-2,-1,0
1528189977049335,-1,-1,-1,-2,-2,-1,-1,0
1528189977049335,-1,1,0,-1,-1,1,-1,-1
1528189977071339,-1,-3,-1,0,0,0,0,0
1528189977071339,0,0,-2,-1,-2,-3,-2,0
1528189977071339,-2,-6,0,-1,0,-1,-2,-3
1528189977071339,1,-1,-2,-2,-1,-1,-2,0
1528189977093217,2,5,2,0,-1,-1,-2,0
1528189977093217,-1,-1,-1,-1,-1,-2,1,-1
1528189977094215,-1,-2,-1,0,-1,-1,0,0
1528189977094215,-2,-3,0,-2,0,-2,0,0
1528189977108221,0,-2,-1,-3,-2,2,-1,-1
1528189977108221,1,-2,0,1,0,0,0,-2
1528189977116195,-2,-1,-1,-2,0,-2,-1,-1
1528189977116195,-3,0,-2,-1,0,0,-1,-1
1528189977131170,0,0,-1,-1,-1,-3,0,1
1528189977131170,-1,0,0,-2,-1,-2,-1,-2
1528189977132140,-1,-1,-1,1,0,-1,-1,-1
1528189977132140,0,0,-1,-1,-1,-1,-3,-1
1528189977153107,-1,-2,-1,-3,-2,-3,-1,-2
1528189977153107,-2,-1,-1,-2,-2,-2,-2,-1
1528189977154055,0,1,0,0,-2,-1,-1,0
1528189977154055,-1,1,0,-1,-1,-1,-1,-1
1528189977169014,-1,-1,-2,-2,-1,-2,-1,-1
1528189977169014,-1,0,-3,-1,-1,-1,-1,-2
1528189977176033,-1,0,0,1,0,0,1,0
1528189977176033,0,0,-1,-4,-2,-1,0,0
1528189977190982,-2,-4,-1,-1,0,0,0,0
1528189977190982,-1,-1,-1,-2,0,-2,0,-1
1528189977191979,2,4,0,0,0,0,-1,-3
1528189977191979,-2,-2,1,0,0,-2,-1,-2
1528189977221909,-1,0,-2,-1,-1,0,-2,0
1528189977221909,-1,-2,-1,-1,-1,-1,-2,-2
1528189977221909,-1,-1,-2,-1,-1,-1,0,-2
1528189977221909,0,0,-1,-3,-1,0,0,-2
1528189977227897,1,-1,0,-1,-1,-1,-1,-1
1528189977227897,-3,-1,-1,0,0,-1,0,-1
1528189977235836,-2,-1,-1,-2,-1,0,0,1
1528189977235836,-1,-1,-2,0,-3,-1,-1,0
1528189977250846,-3,0,-1,0,-1,0,0,-1
1528189977250846,2,-1,-2,-1,-2,-1,-1,-1
1528189977251793,-2,-1,0,0,0,-2,-1,-1
1528189977251793,-1,-2,-3,-2,0,-1,0,1
1528189977281714,-1,-1,-1,-1,-1,-1,-2,-1
1528189977281714,-2,-1,0,-2,0,-1,1,-1
1528189977282711,0,-1,1,-1,1,0,-1,-1
1528189977282711,0,-1,-1,0,-1,0,-1,0
1528189977287698,-2,-1,-1,-2,-1,-1,-1,-2
1528189977287698,-1,0,-1,-2,-2,-1,-1,-1
1528189977295677,-3,-1,-3,-3,-2,-3,-1,-2
1528189977295677,-1,-3,-1,-1,0,-1,-1,-1
1528189977310637,-1,-1,1,-2,0,0,1,1
1528189977310637,-1,-1,0,0,-2,-1,0,-1
1528189977311633,0,-1,-2,0,0,0,1,-1
1528189977311633,-2,0,-1,1,-2,-2,-3,-2
1528189977333610,-2,0,-2,2,0,-2,-1,-2
1528189977333610,-1,-1,-1,-1,-1,1,-2,1
1528189977334606,0,-2,0,-3,-1,-2,-2,-2
1528189977334606,-1,0,-1,0,0,0,-1,-3
1528189977347590,-2,-2,-2,-1,-2,0,-1,-2
1528189977347590,-1,-2,-2,-1,-2,1,-1,0
1528189977355515,1,0,0,0,0,-1,0,-1
1528189977355515,-2,-2,-1,0,0,-2,0,-2
1528189977370475,-3,0,0,-2,0,-1,-1,-1
1528189977370475,-2,-1,-2,-2,0,-1,-2,-1
1528189977371473,-1,0,-1,-2,-3,-2,-1,-1
1528189977371473,-2,-3,-2,-2,-1,-1,0,-2
1528189977393448,4,5,-1,-1,-1,0,0,0
1528189977393448,-1,-1,1,-1,0,-1,0,-2
1528189977394445,0,-3,-2,-1,0,0,-2,0
1528189977394445,-1,1,1,0,-1,-1,-1,0
1528189977407411,-1,-1,-2,-2,-3,-2,-2,-2
1528189977407411,-1,-1,-2,-2,-2,-1,-1,-2
1528189977416354,-1,-1,-2,1,-1,-1,-2,0
1528189977416354,1,-2,-1,-3,0,0,-1,-1
1528189977430360,0,-2,0,0,-1,-1,0,-2
1528189977430360,-1,0,-1,-2,-2,-2,-1,0
1528189977438294,-2,-1,0,-1,-1,-2,-1,-2
1528189977438294,-1,-1,-1,-1,-2,1,-2,-1
1528189977453254,-4,-2,1,-1,0,-1,0,-2
1528189977453254,-1,-1,-2,0,-2,-1,0,-2
1528189977454252,-3,0,-1,-2,-3,0,0,-1
1528189977454252,0,1,0,-1,-1,-2,-2,0
1528189977476250,-1,-2,0,-1,1,0,0,-1
1528189977476250,-1,-1,0,0,0,-2,-1,-3
1528189977477191,-2,-1,-1,-2,-1,0,-2,-2
1528189977477191,-1,-1,-1,0,0,-1,0,-1
1528189977499187,0,-2,0,-1,0,-2,0,-1
1528189977499187,2,-1,-1,-2,-2,0,0,-1
1528189977500186,0,-1,-1,0,-1,-3,-1,-2
1528189977500186,-1,-1,-2,-1,-1,-1,-1,-2
1528189977513152,-2,0,0,-1,0,-1,-1,-2
1528189977513152,-3,-1,0,-3,-1,0,0,0
1528189977514103,0,-2,-2,-1,-2,-1,-1,-1
1528189977514103,-2,-2,-1,-1,-2,-1,1,-1
1528189977536088,0,-2,-2,-1,0,0,0,0
1528189977536088,0,0,0,-1,1,-2,-2,-1
1528189977537030,-2,0,-1,0,1,0,0,-1
1528189977537030,1,0,-1,-2,-3,-1,-2,-2
1528189977551041,-2,-1,-3,0,-2,-1,-1,0
1528189977551041,0,-3,-1,-2,-1,-1,-2,0
1528189977552038,-1,-1,0,0,-1,0,-2,-1
1528189977552038,-1,-1,-1,0,-1,-2,-1,-1
1528189977574042,-2,0,0,-1,-1,2,-1,-2
1528189977574042,-2,0,-1,-2,-2,-2,0,-1
1528189977574042,-1,-1,-1,-1,-1,-2,-1,-2
1528189977574042,-1,0,-1,-1,-2,-2,-1,-1
1528189977597039,-1,-4,-2,-1,-2,-3,-2,-2
1528189977597039,-1,-2,-3,1,1,-1,-2,0
1528189977597039,-2,-2,-2,-1,-1,-1,-3,0
1528189977597039,-1,-1,-1,2,-1,-1,-3,0
1528189977611019,-1,1,-1,-1,-3,-1,0,0
1528189977611019,-1,1,0,-1,0,-1,-1,0
1528189977611963,-1,-1,1,-1,-1,-2,0,-1
1528189977611963,2,-3,-1,-1,0,0,0,-2
1528189977641883,0,-2,-1,-2,0,0,-2,-1
1528189977641883,-1,-1,-1,-2,-2,1,-1,-1
1528189977643002,-1,-1,-1,-3,0,-1,-1,-1
1528189977643002,-1,-2,-2,-5,0,-1,-1,-1
1528189977655141,-1,-1,-1,-2,-3,-2,-1,-1
1528189977655141,-1,-3,-1,0,-1,-1,-1,0
1528189977664167,-1,-1,-1,-2,0,-2,0,-1
1528189977664167,-1,0,0,0,0,0,-1,0
1528189977679709,-2,-1,-1,-1,1,-3,-1,0
1528189977679709,1,1,-1,1,-1,0,0,0
1528189977681517,-1,-1,-1,1,-2,-1,-1,-1
1528189977681517,0,-1,-1,0,-1,-2,-2,-2
1528189977692970,0,0,-2,0,-1,-1,-3,-1
1528189977692970,-3,-2,-2,0,-1,-3,-2,-2
1528189977707931,-3,-2,-1,0,-1,0,0,-1
1528189977707931,1,1,-2,-1,-1,-1,-1,-1
1528189977724822,-1,-1,1,0,-3,1,-1,0
1528189977724822,0,-1,0,-2,-1,-1,-1,-2
1528189977725543,0,-2,-3,-1,-2,-3,-2,0
1528189977725543,-1,-1,-1,-1,-2,-2,-1,-2
1528189977739558,1,-2,0,-1,-1,-1,0,-1
1528189977739558,-2,-1,-2,0,0,0,0,-2
1528189977745490,0,0,-2,-1,0,1,0,-1
1528189977745490,-1,0,-1,-1,-1,-2,-1,2
1528189977753473,0,-2,-1,-2,-2,-2,-2,0
1528189977753473,0,-1,-1,-2,-2,0,-2,0
1528189977761447,-1,-2,-2,-1,-1,-2,0,-1
1528189977761447,-2,0,1,-2,-2,-1,-2,-1
1528189977776417,1,-2,-2,-3,-2,0,-1,-3
1528189977776417,-2,0,-1,-2,-2,-1,-1,-1
1528189977782391,0,-2,-1,-1,-1,-1,-1,-1
1528189977782391,-1,-3,-1,-1,-1,-1,0,-1
1528189977799379,-1,-1,-1,0,0,-1,-2,-1
1528189977799379,-1,1,-1,0,-1,-1,-1,-1
1528189977805329,-1,-1,-1,-1,-1,0,-2,-1
1528189977805329,-2,-2,-1,-2,-2,-1,-1,-2
1528189977813467,0,0,0,0,0,-2,-1,-1
1528189977813467,-1,0,0,0,0,-2,-1,-1
1528189977821318,-2,0,-1,-1,-1,0,-1,-1
1528189977821318,-2,0,0,0,-2,-1,0,-2
1528189977835968,-3,-3,-2,0,-1,-1,-2,-1
1528189977835968,0,0,-1,1,-2,-1,-1,-2
1528189977842709,-1,-1,-1,-1,-1,0,-2,-1
1528189977842709,-2,-1,-1,-1,0,0,-1,-1
1528189977866625,0,1,-1,-1,-2,-2,-1,0
1528189977866625,-2,-2,0,-2,-2,-2,-1,0
1528189977868617,1,-2,0,-2,-3,0,1,-1
1528189977868617,-3,-3,-1,-2,0,-2,0,-1
1528189977872607,0,-4,-1,0,-1,-2,-3,-1
1528189977872607,0,0,-2,-1,-1,-1,-2,0
1528189977887585,0,0,0,-2,0,-1,0,0
1528189977887585,1,1,-2,0,0,2,-1,-1
1528189977896690,-1,-1,-1,0,-1,-3,-3,0
1528189977896690,-1,-1,-1,0,0,-1,0,-1
1528189977902530,-3,-1,-1,0,-2,-1,0,-1
1528189977902530,1,0,-2,-2,0,0,0,1
1528189977919847,-2,-2,-2,-1,-1,-1,0,-1
1528189977919847,-2,-2,-1,0,0,1,-2,0
1528189977920621,-2,-2,0,-2,-1,-1,-1,-1
1528189977920621,-2,-2,-1,0,0,-1,-1,0
1528189977932851,-2,-1,-2,-1,-3,-1,-2,-1
1528189977932851,-1,-1,-2,-2,-3,-3,0,-1
1528189977942003,-5,-8,-4,-2,-1,0,-1,-3
1528189977942003,8,9,1,5,-1,-1,-2,1
1528189977956212,-1,-2,-1,1,-1,1,-1,-3
1528189977956212,-2,-1,-2,-1,0,-1,-1,0
1528189977970144,-4,-4,-1,-2,-1,-2,-1,1
1528189977970144,-2,-2,-2,-1,-2,-3,-2,-3
1528189977978742,2,-2,-1,1,1,1,4,0
1528189977978742,-2,-1,0,4,-3,-3,-8,-7
1528189977985611,-3,-3,0,-3,-3,-2,3,1
1528189977985611,-2,-3,-2,-1,4,0,-2,0
1528189978002420,-2,1,0,2,-1,-2,-1,-3
1528189978002420,-1,1,0,-4,-2,-1,-1,-2
1528189978003222,-4,-3,-2,-1,0,-2,-1,0
1528189978003222,-2,-2,1,-2,0,0,4,2
1528189978015413,3,3,0,-1,0,0,-3,-1
1528189978015413,-3,-5,-2,-1,-2,-1,1,0
1528189978024169,-2,0,-2,-1,0,-1,-3,-2
1528189978024169,2,0,-1,-1,-3,-1,0,0
1528189978039361,0,0,-1,1,0,-1,-2,-1
1528189978039361,-4,-5,-1,-4,-2,-1,2,0
1528189978041114,1,2,0,-2,1,-1,-1,1
1528189978041114,-1,-1,-1,-1,-1,0,-1,-1
1528189978062293,-1,-1,0,0,-3,-2,-3,-1
1528189978062293,-3,0,-1,-1,1,-1,2,1
1528189978063056,-2,-2,-1,-2,-3,-1,0,-1
1528189978063056,0,1,-1,-2,-1,-1,-2,-3
1528189978084348,-1,-2,-1,1,1,-1,-2,0
1528189978084348,-2,-2,0,-2,-2,1,2,0
1528189978085995,0,-1,0,0,0,0,-1,0
1528189978085995,-6,-5,-1,0,-2,-2,-1,0
1528189978099973,2,1,-1,0,-1,-2,-1,-1
1528189978099973,-2,-2,-2,0,-2,0,-1,0
1528189978100955,-1,-1,-2,0,-1,-2,-1,-3
1528189978100955,-2,0,0,-1,-1,-1,0,2
1528189978122157,-1,-1,-1,2,0,-1,-2,-1
1528189978122157,0,1,0,-2,-2,-1,0,-1
1528189978124010,-2,-3,0,-2,-2,-1,-2,-2
1528189978124010,0,-2,-2,-1,-1,-3,-1,-1
1528189978135887,0,0,0,0,0,-1,-2,-1
1528189978135887,0,-3,-2,0,1,0,-2,0
1528189978144098,-2,-3,-3,-1,-3,-3,-2,-1
1528189978144098,4,5,0,0,0,-1,-3,-1
1528189978167161,-1,0,-1,-2,0,0,-1,0
1528189978167161,-1,-3,-1,1,-2,-2,-1,0
1528189978167806,-1,-1,-1,-2,-2,-1,-2,0
1528189978167806,1,0,0,1,0,-3,0,0
1528189978182071,0,1,0,-2,-1,-2,-1,-1
1528189978182071,-2,-2,-1,-1,-1,-1,0,-2
1528189978183855,1,-2,-2,-2,0,0,-2,0
1528189978183855,-1,-1,-1,0,0,-1,-2,0
1528189978195869,0,-1,1,0,0,0,-1,-2
1528189978195869,0,0,-1,0,-2,-2,-2,-2
1528189978204825,-2,-2,-1,-2,1,-2,1,-2
1528189978204825,-2,-1,1,-1,-2,0,0,-1
1528189978218988,-1,-1,-1,-2,-1,-1,0,-2
1528189978218988,-3,-2,-2,0,0,-2,-1,0
1528189978225717,0,0,-1,0,-2,0,-1,-1
1528189978225717,-2,-3,-1,-2,0,-3,-1,-1
1528189978249589,-2,1,0,-2,-1,0,0,-1
1528189978249589,-2,-3,-1,-1,-2,-2,-1,0
1528189978250583,4,3,-1,-4,0,1,-2,1
1528189978250583,0,-1,-1,-1,-1,-2,-3,0
1528189978255941,0,-2,0,0,0,0,-1,-1
1528189978255941,1,-2,-1,-3,0,0,-1,0
1528189978286732,-4,-2,-3,-1,-2,-1,1,-1
1528189978286732,-1,-1,-1,-1,0,-2,-1,0
1528189978318547,0,-1,0,-1,-1,-2,-1,0
1528189978318547,-1,-2,-1,0,-1,0,-1,-1
1528189978319399,-2,-2,-4,-1,-2,-2,-1,0
1528189978319399,0,0,0,-2,-1,-1,-2,-1
1528189978320400,0,-3,-3,-1,-2,-2,-1,-2
1528189978320400,-1,0,0,-2,-1,-1,0,0
1528189978340646,0,-1,0,0,0,-1,-1,-1
1528189978340646,-1,-2,0,-1,-2,-1,-1,0
1528189978342664,-1,-1,-1,-3,-2,0,-1,-1
1528189978342664,0,0,-2,-2,-1,-1,1,-2
1528189978346855,0,-1,-1,-2,-1,-1,0,0
1528189978346855,-2,-1,-2,-2,-2,-2,0,-1
1528189978348846,-1,0,-1,-1,0,-1,0,-2
1528189978348846,-1,-3,0,-1,-3,-1,1,-2
1528189978361836,-1,-1,0,1,0,-2,-1,-2
1528189978361836,0,-2,-2,-1,-3,-1,-1,-2
1528189978363564,-2,-3,0,-1,-3,-1,-1,0
1528189978363564,-2,-1,-1,-1,-1,-1,-1,-1
1528189978375793,-3,-1,-2,-1,-1,1,1,-2
1528189978375793,-1,-1,-1,-1,-1,-1,-1,0
1528189978384526,-1,2,-1,-1,-1,-1,-2,0
1528189978384526,-1,0,-1,0,-1,-1,-2,-2
1528189978399734,0,-1,-3,-2,0,-1,-2,0
1528189978399734,0,-1,-2,-1,-2,-1,-1,-2
1528189978400698,0,-2,-1,1,0,-2,-1,0
1528189978400698,-1,0,-1,-1,-1,0,-1,0
1528189978422426,0,-2,-2,-1,-2,-2,0,-2
1528189978422426,-2,-1,0,0,0,-2,0,-2
1528189978423405,-1,-1,-2,-2,-3,0,0,0
1528189978423405,-1,-1,-1,-1,-1,-1,-2,-2
1528189978435635,-1,-1,-2,-1,-1,-1,-1,0
1528189978435635,-3,-4,-2,-1,-2,-3,0,0
1528189978444348,3,1,-1,-1,0,0,-1,-1
1528189978444348,1,-1,-2,-2,-2,-2,-1,0
1528189978467319,-2,-1,-1,-1,0,-2,-1,-2
1528189978467319,-1,-2,-1,-1,0,-1,-2,-1
1528189978468284,-2,-1,-2,1,0,-1,-1,0
1528189978468284,-2,-4,-1,-1,-1,0,-1,0
1528189978481574,0,0,-2,-2,-1,-1,-1,-1
1528189978481574,1,1,-1,0,1,-2,0,1
1528189978483247,-2,-1,-1,-1,-1,-3,-2,0
1528189978483247,-1,-1,-2,0,0,-1,-1,0
1528189978495542,-2,-1,0,-2,-2,-1,0,-1
1528189978495542,-1,-1,-1,-1,-1,0,-1,-3
1528189978504208,-1,-1,-1,-1,-1,-1,-2,-1
1528189978504208,1,1,-1,-1,-2,0,-1,-2
1528189978518417,-2,0,-1,0,-1,-2,0,-2
1528189978518417,0,-1,-2,0,-1,-2,-1,1
1528189978527126,0,0,-1,-2,0,-1,0,0
1528189978527126,-2,-1,-2,-1,0,-1,0,0
1528189978542329,-3,-1,-2,-1,-1,0,0,-1
1528189978542329,-2,-2,1,0,-1,-1,-1,1
1528189978543328,1,-1,-2,-1,-1,-1,0,-1
1528189978543328,0,-1,-2,-1,-1,-1,-1,-2
1528189978555595,0,-2,-1,-2,-1,0,-1,0
1528189978555595,-1,-2,-1,-1,0,-1,-1,0
1528189978564310,-1,-1,0,1,-1,-2,-2,-1
1528189978564310,-1,0,0,0,0,-2,-1,-1
1528189978579308,-4,-1,-1,-1,1,-2,0,0
1528189978579308,-1,0,0,-1,0,-1,-2,-2
1528189978580324,-2,-1,0,-1,-2,1,-1,-1
1528189978580324,0,0,0,-1,-1,-1,-2,-2
1528189978609191,-1,-1,-1,-1,0,-4,-1,-2
1528189978609191,-1,-2,-3,-1,-2,0,-1,0
1528189978610199,-1,-1,-2,-2,0,-2,-1,0
1528189978610199,-1,-1,-3,-2,-1,0,0,0
1528189978615220,-1,-1,-3,-2,-1,-2,-1,-2
1528189978615220,-1,-2,-2,-1,0,-2,1,0
1528189978624152,0,-1,-1,1,-2,-1,-1,-1
1528189978624152,0,0,-1,-1,-1,-1,-2,0
1528189978639162,-1,-1,-2,-1,-2,0,-1,-3
1528189978639162,-1,-2,-1,-2,-1,-1,0,-2
1528189978641164,0,-2,0,-2,-1,-2,-2,-1
1528189978641164,0,1,-1,-1,-2,-1,-1,-1
1528189978662101,-2,-3,-1,-1,0,-2,0,-2
1528189978662101,0,-1,-3,1,0,-2,0,0
1528189978668087,-2,0,0,-1,-1,-2,-2,1
1528189978668087,-1,0,-2,-2,-2,0,-2,-1
1528189978675014,0,0,1,-1,-2,-1,-1,0
1528189978675014,0,-2,0,-2,-1,0,0,-1
1528189978691970,-1,-1,-2,-2,-1,-2,0,1
1528189978691970,-1,-1,0,0,0,0,0,-1
1528189978698993,0,-3,-1,-2,-3,0,-1,-1
1528189978698993,0,-2,-1,-1,0,-1,-1,-2
1528189978700998,0,-2,-1,-1,-1,-1,0,0
1528189978700998,-2,-1,0,-1,0,-2,-1,0
1528189978721888,-1,0,1,0,0,0,-2,0
1528189978721888,-2,0,-4,-2,-2,0,-1,-1
1528189978722886,0,0,-1,-1,-2,-1,0,0
1528189978722886,-1,-1,-2,-1,-1,-1,-1,-1
1528189978734854,-2,-2,-2,0,1,-1,-1,-1
1528189978734854,-1,-2,-1,-2,0,-3,-1,-1
1528189978749814,-1,-2,-1,0,-1,0,0,0
1528189978749814,-1,-1,-1,1,-1,0,0,-1
1528189978758790,-2,-2,-2,1,0,-1,-1,-1
1528189978758790,-1,-1,-2,-2,-4,-2,-2,-3
1528189978764774,-2,-3,-1,-1,-1,1,0,-2
1528189978764774,-1,-1,-2,-1,-2,-3,0,-1
1528189978781728,0,0,0,-1,0,-1,-1,-2
1528189978781728,-1,-1,-1,1,1,0,-2,-1
1528189978782726,-1,2,-1,-1,0,-1,-1,0
1528189978782726,-1,-3,-1,-1,-2,1,-2,-2
1528189978795691,1,-1,-1,-1,-3,-3,0,0
1528189978795691,-2,-2,-2,1,-2,-2,0,2
1528189978804671,-2,0,-2,-1,-1,0,0,-2
