timestamp,emg1,emg2,emg3,emg4,emg5,emg6,emg7,emg8
1528441959766370,-3,-2,-1,-1,0,5,0,-2
1528441959766370,1,1,3,3,5,1,4,3
1528441959778366,2,0,2,3,7,8,3,2
1528441959778366,-2,0,-3,-2,-2,2,-3,-1
1528441959785319,-1,-4,-4,-6,-6,-8,-3,-3
1528441959785319,-5,-5,-4,-5,-8,-12,-9,-5
1528441959800280,-3,0,-1,-1,2,8,5,-1
1528441959800280,0,-6,-1,-1,-3,-21,-7,-1
1528441959809256,-1,4,-1,0,-3,-24,-17,-2
1528441959809256,-2,-1,-1,0,11,23,3,-1
1528441959838214,-7,-3,1,-4,-3,18,-2,-5
1528441959838214,-2,2,-1,0,12,5,-3,-4
1528441959845158,0,-9,-1,3,7,15,3,0
1528441959845158,2,3,-3,-1,-7,-20,-3,3
1528441959860119,-3,-4,-6,-5,-1,-22,-13,-6
1528441959860119,-6,-1,-2,-4,-18,-19,-29,-14
1528441959868098,9,1,5,4,10,7,1,17
1528441959868098,-2,-2,1,6,18,59,18,-6
1528441959883057,11,5,2,3,-3,-19,50,37
1528441959883057,-12,-7,-5,-5,-12,-12,-44,-37
1528441959891036,16,10,4,3,-3,-2,32,48
1528441959891036,-3,-2,-1,-1,-8,-42,-18,-14
1528441959906030,-2,0,-1,-6,-4,29,11,3
1528441959906030,-1,-1,-3,-7,-3,-4,14,-2
1528441959920957,0,4,0,-2,-7,-35,-21,-1
1528441959920957,-2,-2,-5,-7,-13,-49,-32,-5
1528441959927939,-8,3,-4,-3,5,72,7,-24
1528441959927939,3,-11,-1,0,-6,-39,-19,5
1528441959942898,-2,2,3,6,0,-20,4,-10
1528441959942898,6,4,7,2,22,34,8,20
1528441959950877,-1,-3,0,1,2,-3,4,6
1528441959950877,-3,0,-2,-7,15,67,39,2
1528441959957858,-10,-6,-11,-9,1,-15,-43,-28
1528441959957858,2,-1,2,3,-5,-29,-1,7
1528441959965835,-2,-7,-2,-5,-22,-40,-7,0
1528441959965835,-2,1,8,-9,-14,-17,-10,4
1528441959980798,-9,-13,2,-4,-4,-21,-28,-22
1528441959980798,-12,-3,-30,-9,-14,-23,-41,-27
1528441959987779,11,4,-28,9,14,48,46,16
1528441959987779,8,13,-21,10,7,-14,9,12
1528441960002739,4,-3,-17,1,17,49,15,12
1528441960002739,3,13,-4,2,2,18,15,2
1528441960010718,-12,-24,-4,-10,-15,-38,-51,-26
1528441960010718,-7,-2,-7,-9,-13,-25,2,-5
1528441960017699,-3,-2,1,-2,-8,-8,-5,-7
1528441960017699,9,3,10,0,-3,3,0,7
1528441960025677,-7,-3,3,-3,-1,-4,-5,-13
1528441960025677,3,13,15,3,5,5,7,7
1528441960040638,-3,-2,9,-1,-3,-2,-13,-4
1528441960040638,-3,0,11,1,4,14,14,7
1528441960047618,-2,-11,2,-2,-4,-14,1,2
1528441960047618,-4,-11,5,3,-3,-8,-11,-4
1528441960062578,2,9,3,-5,-6,0,-1,3
1528441960062578,2,-9,2,3,12,22,20,7
1528441960070558,0,-6,2,0,1,-6,-4,-2
1528441960070558,2,12,0,-2,-2,-2,-3,3
1528441960078534,-2,6,4,-4,-5,-7,-4,-5
1528441960078534,2,0,35,9,0,7,11,6
1528441960085516,-2,13,13,-2,-8,-9,-7,-2
1528441960085516,0,-19,17,0,0,-6,-2,0
1528441960108456,-4,-10,2,-2,3,-2,2,3
1528441960108456,-3,0,4,-1,1,11,5,-2
1528441960115438,0,8,3,0,-2,-2,6,1
1528441960115438,-4,0,-13,-8,-15,-19,-12,-11
1528441960130397,0,-1,-8,7,15,16,9,4
1528441960130397,-3,-7,-17,-5,-5,-3,2,1
1528441960138425,11,15,28,10,5,1,3,3
1528441960138425,-22,-4,-16,-10,-12,-33,-78,-39
1528441960145356,-13,-19,12,2,6,19,8,-13
1528441960145356,18,24,27,2,3,1,-30,23
1528441960160346,-5,-24,-30,-6,-8,-18,-25,-14
1528441960160346,0,7,-18,-6,-6,-4,5,0
1528441960168327,7,5,5,-4,-5,-8,-11,-4
1528441960168327,-5,-1,-7,-2,-4,-10,-18,-10
1528441960183295,-5,13,-32,2,1,1,6,-4
1528441960183295,1,-7,-20,2,6,12,18,-1
1528441960190274,2,16,-1,-5,-9,-11,-18,-1
1528441960190274,-12,-27,8,-1,-7,-3,11,1
1528441960198253,9,14,-17,-8,0,0,0,7
1528441960198253,-6,-11,14,4,11,4,2,-3
1528441960213219,-3,5,-11,-9,-40,-24,-18,-7
1528441960213219,5,11,14,9,47,25,16,11
1528441960228175,-2,-16,-11,14,69,25,2,0
1528441960228175,-4,-1,-3,-16,-53,-13,-5,-7
1528441960235116,-1,10,41,34,112,56,8,-1
1528441960235116,-4,-15,-13,-2,-29,-19,0,1
1528441960250077,8,25,28,5,32,12,1,7
1528441960250077,1,11,51,21,-20,8,6,-2
1528441960258056,2,2,25,10,19,3,-7,-2
1528441960258056,-9,-21,-54,-37,-53,-37,-14,-7
1528441960266035,-1,-7,-47,8,-22,7,6,9
1528441960266035,2,4,-51,-15,13,4,-6,-1
1528441960281011,-2,-7,-55,-16,-55,-22,-3,1
1528441960281011,0,-4,-86,0,11,9,3,-2
1528441960287975,-5,-14,-90,-12,-21,-15,-8,-5
1528441960287975,2,-1,-44,5,15,12,7,3
1528441960295962,-2,-6,-29,-1,-24,-6,0,3
1528441960295962,2,9,15,7,20,8,6,4
1528441960302987,1,-10,7,-8,8,-4,-4,-1
1528441960302987,-5,-13,15,2,-8,0,-1,0
1528441960317947,2,7,50,-2,-12,-3,3,6
1528441960317947,-21,-10,29,-4,9,-22,-56,-37
1528441960325925,-3,-20,1,-9,-10,-4,-17,2
1528441960325925,1,19,36,3,0,-1,-50,-26
1528441960340886,6,-11,29,-1,-13,5,34,36
1528441960340886,-16,-11,4,-3,13,1,-15,-31
1528441960347867,28,41,2,-7,-15,-12,2,4
1528441960347867,-1,-22,21,5,4,10,27,7
1528441960355846,-17,-24,-3,-6,-10,-22,-61,-54
1528441960355846,-3,3,0,5,11,13,31,31
1528441960362812,5,6,4,2,1,12,41,23
1528441960362812,-3,1,2,-6,-3,-3,-11,-11
1528441960377782,-3,19,9,1,-9,-9,-9,-4
1528441960377782,6,-6,9,6,7,4,7,-7
1528441960385714,-16,-18,-11,-7,-7,-7,-13,-18
1528441960385714,8,15,6,0,4,2,3,10
1528441960400726,-6,-5,-5,0,-7,-5,-1,-8
1528441960400726,4,3,-3,1,4,6,6,7
1528441960415661,2,4,-6,-4,0,5,7,4
1528441960415661,-6,2,-12,7,2,-9,-7,-3
1528441960423613,2,12,2,-2,2,7,9,4
1528441960423613,4,-3,-4,-25,-50,-25,8,8
1528441960430635,-13,-4,-9,-17,-75,-43,-32,-15
1528441960430635,5,3,2,24,19,43,23,10
1528441960445554,11,6,11,3,-39,-9,13,16
1528441960445554,4,1,4,6,64,57,13,8
1528441960460566,-14,-14,-21,-31,-84,-51,-22,-15
1528441960460566,-9,-17,-20,-10,87,24,4,-3
1528441960475526,9,24,44,51,6,6,11,9
1528441960475526,5,-11,-15,17,39,25,12,14
1528441960483479,-7,-19,-4,-57,13,-7,-10,-6
1528441960483479,-1,-3,-6,-1,18,-18,-4,-6
1528441960490486,-1,-3,14,19,8,11,6,0
1528441960490486,3,8,-14,-20,-64,-30,-3,1
1528441960505454,-4,-10,-50,-5,-25,-10,-5,-8
1528441960505454,-2,10,-30,-5,-31,-15,-4,-5
1528441960528332,7,8,-9,1,0,8,3,6
1528441960528332,0,3,-13,-3,4,5,3,0
1528441960535369,-2,-4,-56,9,8,4,-4,-1
1528441960535369,1,12,-22,-4,6,8,4,5
1528441960543350,-3,-12,9,-5,8,1,-2,0
1528441960543350,-3,7,69,-1,-21,-11,-6,-2
1528441960550307,-4,-3,93,-2,6,-2,-6,-5
1528441960550307,1,-5,59,-4,-3,4,8,5
1528441960565272,-1,1,29,-3,3,0,-2,-1
1528441960565272,-2,-7,31,2,-12,-6,-5,-4
1528441960581132,-1,0,-15,2,-10,-9,-5,-1
1528441960581132,0,-5,-19,1,0,0,1,-4
1528441960588843,-4,-2,-22,-3,9,5,-2,-5
1528441960588843,2,-2,-18,-5,-17,-10,0,-1
1528441960595823,-1,3,-2,3,17,12,2,-2
1528441960595823,-1,-1,-12,2,-3,-2,0,0
1528441960603416,-1,3,-8,0,0,0,2,2
1528441960603416,0,1,5,-2,-1,-1,-2,-3
1528441960618459,-2,3,0,-5,-12,-10,-5,-4
1528441960618459,-2,-1,-9,-2,-2,-1,0,0
1528441960626305,0,1,10,0,6,2,-3,-2
1528441960626305,-1,-1,12,0,-4,1,2,1
1528441960641323,-3,-3,-5,-5,-1,-4,-2,-2
1528441960641323,-1,-2,-4,-4,-13,-13,-10,-4
1528441960648288,1,-1,5,1,3,7,5,4
1528441960648288,2,-1,-8,-15,-26,-8,1,0
1528441960656274,-3,-3,-9,10,-34,-12,-4,-2
1528441960656274,-1,-3,3,10,49,37,10,3
1528441960662990,-1,-2,-4,-10,-34,-23,-7,-3
1528441960662990,-2,-1,-12,-17,15,-2,-9,-3
1528441960677965,-3,-5,-16,-4,-30,-16,1,-3
1528441960677965,0,2,20,12,37,17,4,2
1528441960685925,-5,-9,-13,23,20,1,-4,-3
1528441960685925,-2,8,24,-22,-28,-12,1,-2
1528441960700885,1,-9,-31,-29,0,10,-1,2
1528441960700885,-2,-4,16,11,0,-6,-4,-4
1528441960708427,0,-2,0,-2,24,7,4,3
1528441960708427,-2,0,29,40,3,-12,-9,-3
1528441960716204,-2,4,35,-2,-2,-5,-1,-2
1528441960716204,3,0,13,-27,-31,0,9,8
1528441960723672,2,-3,1,-8,41,28,6,3
1528441960723672,1,-4,-34,-6,4,0,-3,1
1528441960738381,4,6,-23,47,46,9,6,3
1528441960738381,-4,-7,-73,-11,-40,-23,-16,-8
1528441960745382,-4,10,-19,-5,-27,-17,-7,-3
1528441960745382,-1,-20,-51,-24,-1,1,1,2
1528441960760326,5,17,-19,-11,10,9,2,4
1528441960760326,-12,-15,-15,-15,-24,-17,-14,-14
1528441960775702,25,17,-2,2,-11,-4,8,17
1528441960775702,-23,0,76,9,5,10,17,1
1528441960783751,-20,-25,56,3,0,-2,-44,-27
1528441960783751,39,42,55,20,7,16,71,60
1528441960798765,-11,-12,23,-55,-44,-35,-39,-25
1528441960798765,-11,-1,35,28,15,11,23,12
1528441960813800,4,7,-16,13,2,-4,-2,5
1528441960813800,9,6,-115,15,-4,6,6,-2
1528441960821047,-14,-28,-116,-24,8,10,4,-9
1528441960821047,7,7,-7,1,-4,-10,-28,-21
1528441960836007,-8,-19,-64,-5,-27,-22,-22,-18
1528441960836007,2,-20,-10,-7,15,7,14,21
1528441960843035,18,28,42,18,7,13,44,30
1528441960843035,-13,-11,-13,-19,-20,-23,-25,-21
1528441960858757,1,6,47,3,5,4,10,-1
1528441960858757,0,4,-6,-14,3,8,-20,-18
1528441960865446,-7,-4,21,20,7,0,27,0
1528441960865446,2,-9,-24,-20,-16,-12,-1,17
1528441960881430,23,26,21,4,16,3,-19,9
1528441960881430,-14,-11,9,1,0,4,1,-27
1528441960903644,0,-1,2,-17,-10,-3,-3,7
1528441960903644,8,12,53,16,7,22,25,13
1528441960910628,-4,-13,-20,1,-1,-14,-1,3
1528441960910628,-7,-5,14,-8,-4,3,-15,-12
1528441960925588,-4,-2,32,-6,3,5,-10,-14
1528441960925588,-11,-6,-52,12,39,17,-25,-17
1528441960933742,-1,-3,-32,-18,-28,-10,11,7
1528441960933742,11,-3,-37,1,5,15,25,22
1528441960947829,-3,-4,38,6,7,-2,-14,-5
1528441960947829,-2,-8,-23,-9,3,3,0,8
1528441960962786,8,9,-15,14,4,13,24,19
1528441960962786,-2,1,-5,11,14,3,-6,-7
1528441960977747,-4,-5,28,-5,-16,-11,-8,-2
1528441960977747,1,-7,-45,6,8,1,5,3
1528441960986033,-4,-4,5,-15,-9,-9,-5,-1
1528441960986033,-12,-6,3,2,3,-5,-32,-23
1528441961001258,0,5,11,18,17,15,-4,-7
1528441961001258,4,1,8,1,-4,-1,3,3
1528441961015858,0,-3,-23,-7,-14,-5,-2,7
1528441961015858,-2,-7,-18,-3,8,-13,-6,-6
1528441961023875,-1,4,32,9,-1,-6,-15,-16
1528441961023875,0,0,-5,-11,-7,3,-8,17
1528441961038956,10,16,-6,11,22,18,42,11
1528441961038956,4,-9,11,0,-17,-3,7,7
1528441961045591,-9,-17,-41,-23,-1,-8,-9,-8
1528441961045591,8,27,48,28,3,-1,0,-5
1528441961060916,-4,-2,-8,-9,-5,1,-3,7
1528441961060916,-1,1,-16,-1,-1,-3,-8,-5
1528441961069527,3,2,7,1,1,9,19,11
1528441961069527,-7,-14,-53,-13,-3,1,-4,-12
1528441961083759,-4,-15,-34,-6,-9,-1,-4,0
1528441961083759,-2,1,0,2,9,-7,-10,-8
1528441961098689,-2,-2,-3,-2,-14,-8,-3,4
1528441961098689,6,2,2,10,33,29,14,8
1528441961105680,2,3,-17,-7,-12,-9,-11,5
1528441961105680,-13,-10,0,-4,-5,-8,-16,-29
1528441961120635,5,2,1,21,18,18,25,14
1528441961120635,-1,5,1,-3,-16,-19,-8,-3
1528441961128416,-2,-4,2,-2,-1,9,11,2
1528441961128416,-1,-1,-23,-8,-10,-16,-17,-9
1528441961143587,0,2,-6,5,17,-2,-8,-8
1528441961143587,1,3,-9,-12,-4,5,8,9
1528441961158938,2,0,-6,18,13,10,8,1
1528441961158938,1,6,9,-2,2,4,-3,-1
1528441961166285,-3,-4,9,5,-6,-12,-16,-12
1528441961166285,2,0,-1,-14,-11,-5,19,16
1528441961188501,-2,-6,-17,-6,0,0,-5,-3
1528441961188501,-5,-8,-19,-4,-8,-5,-15,-9
1528441961196359,-2,10,17,7,-2,-1,3,-6
1528441961196359,4,3,3,4,-1,-1,11,12
1528441961211412,-1,-3,5,-5,0,5,15,7
1528441961211412,-1,-1,4,4,-9,-10,-7,-9
1528441961226349,-2,-4,-15,-6,13,8,-9,-5
1528441961226349,-7,-5,1,-6,-15,-9,-4,-17
1528441961233397,6,7,15,4,6,8,13,15
1528441961233397,-4,-6,-1,-4,6,-2,-8,-9
1528441961241395,-1,-4,-15,6,-5,-3,-4,-3
1528441961241395,0,0,14,4,15,9,7,1
1528441961255529,0,3,-4,-3,0,-2,-5,-1
1528441961255529,-1,-2,-7,-5,-5,-1,1,2
1528441961263273,-4,-2,1,-7,-9,-1,0,-14
1528441961263273,-1,-9,-8,-1,-4,-2,-4,3
1528441961278378,-5,0,4,-1,8,1,5,-2
1528441961278378,-2,-2,-12,-5,-4,-3,-4,3
1528441961287325,-1,1,-3,2,3,-2,-12,-2
1528441961287325,1,6,7,5,-3,4,4,-1
1528441961300976,1,3,9,-6,-6,-4,10,2
1528441961300976,-2,-5,-12,3,0,1,-3,-1
1528441961308836,-4,-5,-5,-12,-3,-3,-3,3
1528441961308836,1,3,11,14,3,-4,-4,3
1528441961315678,-4,1,1,-1,8,4,0,-4
1528441961315678,-1,-2,4,-2,8,-2,-3,-3
1528441961330651,-6,-5,-26,-10,-11,1,-6,-3
1528441961330651,1,0,11,19,11,4,-3,-3
1528441961339619,3,2,0,-6,-5,1,4,13
1528441961339619,0,2,1,3,-1,1,5,-3
1528441961360558,-1,-2,4,9,-9,-12,-6,-1
1528441961360558,-3,-4,-21,-16,4,8,-4,-6
1528441961368804,7,8,0,5,2,1,13,14
1528441961368804,-4,-8,-14,-10,-10,-8,-9,-11
1528441961383771,-1,-2,-16,0,-2,-4,-2,-6
1528441961383771,2,3,-22,-6,-3,1,3,7
1528441961398723,1,-5,-21,5,9,9,10,4
1528441961398723,-1,-3,-14,-5,-8,-2,-2,4
1528441961413420,0,-1,-35,-5,2,4,12,0
1528441961413420,-6,-3,-19,1,-4,-7,-9,-12
1528441961420812,-2,-5,-53,-7,-2,-1,-2,-1
1528441961420812,-1,-4,-13,0,-8,-3,-1,4
1528441961435359,1,3,-12,5,1,2,-2,-9
1528441961435359,0,0,-41,-7,-5,-5,-4,-1
1528441961450579,-4,-1,-15,1,4,0,-7,-4
1528441961450579,0,0,-37,-5,-11,-5,2,0
1528441961458557,-2,-3,-27,-3,-1,2,-6,0
1528441961458557,-1,-2,-27,2,2,2,-2,-5
1528441961473504,1,-1,-21,1,0,0,-1,2
1528441961473504,0,0,-33,0,6,6,6,3
1528441961480257,-3,-1,-20,-4,-2,-2,-8,-6
1528441961480257,-3,-1,-33,-2,-8,-2,0,1
1528441961503180,0,-4,-17,0,-4,-1,-2,-4
1528441961503180,-1,-2,-29,3,4,1,2,0
1528441961518146,1,-2,-2,-5,-6,-2,-1,2
1528441961518146,-1,-3,-19,-2,-1,-6,-3,-2
1528441961525117,-1,0,1,-1,2,-4,-2,-3
1528441961525117,0,-1,-3,-1,1,0,0,0
1528441961541075,-3,-1,-9,0,-2,-4,-3,-1
1528441961541075,-2,-1,-19,1,3,1,1,0
1528441961556039,0,-2,-32,-2,-4,-3,-3,-1
1528441961556039,-1,-2,-59,-2,-2,-1,-1,-4
1528441961570996,-1,-2,-45,-1,-1,-3,-4,-2
1528441961570996,0,-2,-25,1,4,5,3,-2
1528441961578011,0,-1,22,0,2,1,0,2
1528441961578011,0,0,49,0,1,1,0,1
1528441961592936,0,-2,37,-1,-1,4,5,2
1528441961592936,-4,-1,28,-3,-4,-5,-4,-3
1528441961600921,-2,-2,16,-3,0,-3,-4,-3
1528441961600921,0,0,21,0,-1,-1,3,-2
1528441961615903,-2,-3,-50,0,-2,-1,0,-2
1528441961615903,0,-1,-11,-1,-1,-2,-2,-1
1528441961637862,-2,2,13,-1,-1,1,-1,1
1528441961637862,0,2,-71,-1,-2,-2,0,-2
1528441961645841,-4,-4,5,-3,-2,-6,-5,-3
1528441961645841,-1,-3,13,-1,-2,-4,-6,-3
1528441961667737,0,0,59,2,3,14,9,1
1528441961667737,2,3,63,2,1,0,1,2
1528441961675767,-2,-1,61,-2,-3,-1,-2,-2
1528441961675767,-3,-3,65,0,1,2,3,-2
1528441961691673,1,3,30,-5,-23,-16,-6,-1
1528441961691673,-1,-1,-13,1,22,9,1,-2
1528441961712670,1,-3,-24,0,3,15,10,1
1528441961712670,0,11,29,3,3,0,-6,0
1528441961720595,-3,-4,-17,0,-1,-1,-3,-3
1528441961720595,-2,0,-31,-4,-16,-12,-1,0
1528441961742586,-2,1,-20,0,-2,-8,-6,-5
1528441961742586,-6,-12,-23,-5,-2,0,0,-2
1528441961750564,0,-1,-29,-3,1,-2,-2,-1
1528441961750564,-1,-2,-15,0,-3,2,-2,-1
1528441961773515,-3,3,10,1,2,4,0,-3
1528441961773515,1,9,11,1,-3,-2,2,3
1528441961788467,-1,0,12,1,7,6,4,2
1528441961788467,-1,-4,-2,0,-3,-5,-2,-4
1528441961795407,-1,-5,-9,-4,-4,-13,-8,-3
1528441961795407,-2,-7,-7,-1,0,8,2,-3
1528441961803427,2,0,0,0,3,-1,1,1
1528441961803427,0,-4,-5,-1,0,2,0,1
1528441961818379,-3,-7,-18,-8,-14,-3,-3,-4
1528441961818379,-4,-8,-3,2,7,-2,0,-1
1528441961833339,0,-4,1,-1,-8,-1,-2,1
1528441961833339,1,3,-3,0,1,0,3,1
1528441961840323,-1,-4,-10,-5,0,-6,-3,-1
1528441961840323,-1,7,14,4,6,8,0,2
1528441961855280,3,4,5,2,5,10,3,1
1528441961855280,2,-1,0,-1,-3,-10,-6,-1
1528441961863267,1,0,-6,-3,-3,0,0,-1
1528441961863267,-1,-1,1,-6,-11,2,2,-2
1528441961878175,0,4,4,1,6,-1,1,2
1528441961878175,1,5,8,-1,-3,2,-1,1
1528441961893187,-2,-1,-7,-3,-5,-2,2,-1
1528441961893187,2,1,-6,0,-3,-11,-5,0
1528441961900147,-1,-2,-5,0,2,2,-4,-3
1528441961900147,-1,-6,-12,-1,-4,-1,-1,-4
1528441961916257,-1,-5,-10,-6,-9,-18,-11,-4
1528441961916257,-2,-6,-7,-2,-1,3,-2,-2
1528441961923073,-2,-9,-21,-2,2,11,6,0
1528441961923073,-2,2,1,-1,-3,-4,-4,-2
1528441961938015,-2,-3,-7,0,-2,-3,1,0
1528441961938015,-2,-4,-6,-6,-3,-6,-4,-2
1528441961953248,-1,0,9,3,3,5,2,-1
1528441961953248,0,-2,12,6,-2,-1,-1,0
1528441961960543,-2,0,6,-5,-2,-2,-3,-3
1528441961960543,0,1,3,-1,1,1,-1,0
1528441961975259,-2,7,5,-4,-4,-4,-4,-4
1528441961975259,-3,5,-2,-3,1,4,1,-1
1528441961983459,0,8,6,4,0,-2,-3,-3
1528441961983459,-1,0,-4,2,-2,1,3,0
1528441961998439,-1,-4,-2,-4,-3,-8,-5,-2
1528441961998439,-1,-8,-7,-4,-3,-7,-4,-2
1528441962013401,-1,-7,-8,-2,-4,-1,3,0
1528441962013401,2,0,-2,-2,0,0,2,1
1528441962021276,-1,0,-2,1,3,2,-4,0
1528441962021276,0,1,-3,2,1,1,1,-2
1528441962035820,-1,-4,-1,-2,2,5,0,0
1528441962035820,-1,-2,1,1,1,-2,-1,-1
1528441962043041,-1,-3,1,-1,-4,-5,-2,0
1528441962043041,0,-1,1,-2,-1,-3,-4,0
1528441962058771,2,4,1,0,7,2,0,1
1528441962058771,-1,3,0,2,-1,-1,2,0
1528441962073853,-1,1,-4,0,0,-1,0,-1
1528441962073853,-1,-6,-5,-1,-4,-1,1,0
1528441962080935,0,-3,-3,-1,-3,-3,-2,-1
1528441962080935,-1,-1,-3,0,0,1,-1,-1
1528441962095668,-2,1,-2,-1,-1,-1,-3,-3
1528441962095668,-3,0,-5,0,-2,-1,-2,-2
1528441962103786,0,0,0,0,-1,0,-1,0
1528441962103786,-1,0,-2,-2,-1,0,-1,1
1528441962125574,-2,-5,-2,0,-3,-1,0,-1
1528441962125574,-1,-5,1,0,1,-2,-2,-1
1528441962140530,-3,-3,0,-2,-2,-2,-1,-3
1528441962140530,0,-2,1,0,0,-1,-1,0
1528441962148509,-2,-4,-3,-1,-1,0,-1,-4
1528441962148509,2,-1,1,-2,-3,-1,-1,-3
1528441962163714,-2,-1,0,-2,0,-1,0,-1
1528441962163714,-1,-3,-1,1,-1,-2,1,-1
1528441962170688,-2,-1,-2,0,-3,-2,2,2
1528441962170688,-2,-1,-2,-2,0,0,-1,-1
1528441962178429,0,-4,-2,0,0,0,0,-3
1528441962178429,-2,-2,0,1,0,-1,-2,-3
1528441962193393,0,-5,-2,-1,-2,0,0,0
1528441962193393,-1,-3,1,-2,-1,-2,0,-1
1528441962201379,-1,-3,1,-1,-3,-1,-1,-1
1528441962201379,-3,-3,-4,-2,0,-2,-1,0
1528441962215992,-1,-2,-3,0,-3,-2,-1,-1
1528441962215992,-3,-3,-5,-1,-2,-2,-2,0
1528441962223890,-1,-1,-2,0,-2,-2,0,-1
1528441962223890,0,0,-2,-2,-1,-1,-1,0
1528441962238094,-2,1,-2,-3,-4,-2,-3,-1
1528441962238094,-3,-1,-3,-2,2,0,-1,-2
1528441962246077,-2,-1,-4,0,-1,-3,-2,-1
1528441962246077,-3,-1,-3,0,-1,-3,-1,0
1528441962261038,0,-1,-2,0,-1,0,-1,-2
1528441962261038,0,0,-2,-3,-2,-1,-2,0
1528441962268851,-2,0,2,-2,-2,1,-2,0
1528441962268851,1,-1,1,2,-1,-1,-1,-1
1528441962282741,0,0,-1,-1,-1,-2,-3,-1
1528441962282741,-2,0,-4,-4,-4,0,1,-1
1528441962298875,-1,-2,-3,0,-1,0,-2,-2
1528441962298875,-1,-1,-3,-2,0,0,-1,-1
1528441962305917,-2,-3,-4,-1,1,-1,0,-1
1528441962305917,0,-1,-1,-3,-2,-1,-3,-2
1528441962321127,-1,1,1,-3,-1,-2,-3,-1
1528441962321127,0,0,1,0,0,-1,0,-1
1528441962328115,-2,-1,-1,-2,-1,-1,0,-1
1528441962328115,0,-1,0,0,1,-1,-1,-1
1528441962342587,0,2,2,-3,-1,1,-2,-1
1528441962342587,0,1,0,0,-2,-1,-3,0
1528441962358547,0,0,-3,-1,-1,-2,-1,-1
