timestamp,emg1,emg2,emg3,emg4,emg5,emg6,emg7,emg8
1528448091038633,-1,-1,-1,-2,-2,0,-2,-2
1528448091038633,-1,0,0,1,-2,0,1,0
1528448091056583,1,1,1,0,-2,0,1,-2
1528448091056583,0,-3,-3,0,-1,-1,0,-1
1528448091077528,0,-1,0,-1,-2,1,0,0
1528448091077528,0,0,-1,0,-2,-1,-2,-1
1528448091081516,-2,-1,-1,-1,-1,0,-2,-1
1528448091081516,-1,0,-1,-2,0,0,0,-2
1528448091084510,-1,0,1,0,0,0,0,-1
1528448091084510,-1,-1,-1,-1,0,-2,0,-2
1528448091094481,-1,-1,1,-1,-2,0,0,-2
1528448091094481,0,-2,1,-2,0,0,0,2
1528448091098471,1,0,-2,-1,0,-2,1,-1
1528448091098471,0,0,0,-2,1,0,-2,0
1528448091145346,0,0,-2,0,-1,0,0,0
1528448091145346,-2,0,1,-2,-1,-2,0,0
1528448091146355,0,-2,-1,0,-1,1,1,0
1528448091146355,-1,-1,0,-2,-1,-1,-1,-1
1528448091147341,-1,1,1,-3,-1,-1,0,-1
1528448091147341,-2,-1,-1,-2,0,1,2,-1
1528448091148338,-2,-1,-3,-2,-1,0,0,-2
1528448091148338,0,1,-1,-2,-2,0,1,-1
1528448091159310,-1,-1,-1,2,-1,-1,-1,-1
1528448091159310,2,-2,-1,-1,-1,-1,-1,-2
1528448091174274,-2,1,1,-2,0,-1,-2,-1
1528448091174274,0,-3,1,-1,1,0,-2,-1
1528448091176263,0,0,-1,-1,-1,-2,0,1
1528448091176263,0,1,-1,0,0,-2,-1,-1
1528448091189230,-1,-1,0,-1,0,-1,-1,-1
1528448091189230,-1,-1,-1,1,0,0,-2,2
1528448091196210,-1,-1,0,0,0,-1,-1,-1
1528448091196210,1,-3,1,0,0,-1,-1,-1
1528448091203191,-1,0,0,0,-2,-1,0,0
1528448091203191,-2,-1,-2,0,-1,-2,0,0
1528448091218156,-1,-1,-2,-1,-1,-1,-2,1
1528448091218156,0,0,-2,0,-1,0,-1,0
1528448091226189,0,-2,0,1,-1,-1,-1,-1
1528448091226189,-1,-2,-1,0,-1,0,-1,-2
1528448091235107,-1,-2,0,-1,1,0,0,0
1528448091235107,-1,0,-1,0,-1,-1,-1,-2
1528448091249112,0,-1,-1,-1,-1,0,0,-1
1528448091249112,-2,0,-1,-1,-2,0,-1,-2
1528448091256052,0,-1,0,-1,-1,-2,0,0
1528448091256052,0,0,-1,-2,1,-1,1,1
1528448091263032,-1,-2,0,-2,-1,-1,-1,-1
1528448091263032,-1,1,0,-1,-1,1,1,0
1528448091277992,-1,-3,0,-1,-1,-1,0,-1
1528448091277992,0,-2,-1,-1,-2,-1,-1,1
1528448091285972,0,-1,0,-1,-1,-1,-2,-1
1528448091285972,-1,0,0,0,0,0,0,-1
1528448091294958,0,0,0,0,-2,1,-1,-1
1528448091294958,-2,0,0,0,-2,0,0,-1
1528448091308911,1,0,-2,0,0,0,-2,0
1528448091308911,1,0,-1,0,0,-1,0,-2
1528448091315892,-1,-1,-1,-2,0,-1,0,-1
1528448091315892,0,0,-2,-1,-2,-1,-1,-1
1528448091322886,0,0,-2,0,0,-2,1,0
1528448091322886,0,-1,-1,1,1,0,-1,0
1528448091337833,0,-1,-1,0,0,1,-2,-1
1528448091337833,-1,-1,1,-1,1,0,-2,-1
1528448091345810,0,-1,0,-2,0,-1,-1,0
1528448091345810,2,-2,-1,-2,1,0,-1,-1
1528448091354788,0,0,-2,-1,-1,-1,1,0
1528448091354788,-1,1,0,-2,0,0,0,-1
1528448091368749,-3,1,1,0,-1,0,-1,-1
1528448091368749,0,-2,-1,-1,-1,0,-1,-1
1528448091375733,1,0,-1,-1,-2,0,-1,0
1528448091375733,-1,-1,0,0,-1,-1,-3,0
1528448091382713,-2,-1,0,-1,1,-1,-1,-2
1528448091382713,-2,0,1,0,-1,-3,1,0
1528448091398669,-2,-2,-1,-1,-1,0,-1,0
1528448091398669,-1,0,-1,-1,-2,0,0,-1
1528448091405651,-1,-1,-1,-2,0,0,0,-3
1528448091405651,0,-3,-1,-3,-1,-1,1,-1
1528448091414627,0,0,-2,-1,-1,-1,0,-3
1528448091414627,0,0,0,-1,-1,1,0,0
1528448091428589,1,-1,-1,-1,0,-1,-1,1
1528448091428589,-1,0,-1,0,-1,-2,-1,0
1528448091435571,-1,-1,0,-2,-1,-3,1,0
1528448091435571,-1,1,-2,0,0,0,1,-2
1528448091443550,0,0,-1,-1,-2,0,1,-1
1528448091443550,-1,-1,0,0,0,-2,0,0
1528448091458511,-1,-1,-1,0,-1,0,-1,0
1528448091458511,-1,-2,1,0,1,0,0,1
1528448091465492,-1,-1,0,0,-1,-2,-2,-2
1528448091465492,0,2,-1,-1,-1,0,-2,-2
1528448091474468,-1,0,-1,-1,0,0,0,0
1528448091474468,0,1,0,0,0,1,-1,-1
1528448091497408,-2,-1,-1,0,0,0,0,-1
1528448091497408,-1,0,-2,1,-3,-2,-1,-1
1528448091498405,0,0,0,-1,-1,-1,0,0
1528448091498405,-2,-3,1,-3,0,-3,-1,-1
1528448091503392,0,-1,-1,0,0,0,0,0
1528448091503392,-2,1,-1,0,-1,-1,-2,-1
1528448091518349,-1,0,-1,0,-2,-1,-1,-2
1528448091518349,-1,0,-1,0,1,-2,-1,-2
1528448091525331,-1,-1,0,0,0,0,-1,-1
1528448091525331,0,-1,0,-2,-2,-1,0,0
1528448091534306,-1,-2,-1,-2,0,0,-1,0
1528448091534306,1,-1,0,-1,-1,-1,0,-2
1528448091549268,-2,-2,-1,0,0,0,-4,-1
1528448091549268,0,-2,-1,-2,-2,0,0,-1
1528448091555253,-1,-1,-2,0,-3,0,-1,-2
1528448091555253,-1,-2,-1,-1,0,1,-1,-1
1528448091563231,0,-1,-1,-1,-1,-1,0,-2
1528448091563231,-1,-1,-1,0,1,0,-1,-1
1528448091578189,-1,-1,0,-1,0,-1,-1,0
1528448091578189,-2,-1,-2,0,-2,0,-1,-2
1528448091586168,-1,-1,-1,-2,-2,0,2,0
1528448091586168,1,-1,0,-3,-1,0,-1,1
1528448091595146,0,1,1,-1,0,-1,-2,-1
1528448091595146,-1,0,-1,0,-2,-1,0,0
1528448091609106,-1,0,-2,-1,0,-2,1,1
1528448091609106,-1,0,0,1,-1,-1,0,-1
1528448091616087,1,-1,-1,0,-1,-1,0,-1
1528448091616087,-1,-1,-2,0,-1,-1,0,0
1528448091623071,-1,0,-1,0,0,0,0,-1
1528448091623071,-1,-1,-1,-1,0,1,1,-1
1528448091638029,-2,-1,-1,0,-2,-2,0,0
1528448091638029,-1,1,-2,-1,0,-1,-2,-1
1528448091646010,0,0,0,-1,-3,0,-1,-2
1528448091646010,-1,0,-1,0,-2,0,0,-1
1528448091654984,-2,-2,-1,0,0,0,0,0
1528448091654984,0,0,-1,-1,0,-1,0,1
1528448091668948,-1,-1,-1,-1,0,0,0,0
1528448091668948,-1,0,-2,0,0,-1,-1,0
1528448091675929,-1,2,-1,0,-1,-1,-2,0
1528448091675929,-2,-1,-1,-2,-2,-1,-1,-1
1528448091682913,0,-1,-2,1,1,1,-2,-2
1528448091682913,-2,-3,-1,0,0,-1,0,0
1528448091697873,0,0,0,-1,-1,0,1,-2
1528448091697873,-1,-1,-1,0,-1,0,-1,-1
1528448091705848,-1,0,0,-2,-1,-1,0,0
1528448091705848,-2,1,0,0,1,-1,-1,-1
1528448091714824,0,-1,0,-1,0,-1,1,0
1528448091714824,-1,0,-1,-1,-1,-3,-1,0
1528448091729786,-1,-2,0,-2,-1,-1,-1,1
1528448091729786,0,-1,-2,-2,-2,0,-1,-2
1528448091735770,0,0,1,-1,1,-1,0,-1
1528448091735770,2,-1,0,0,0,-2,0,1
1528448091751857,0,0,-1,0,-2,-1,-1,-2
1528448091751857,0,-1,-1,0,0,0,-1,0
1528448091758862,0,-1,-2,0,-2,-1,-1,0
1528448091758862,-1,-3,-1,-1,-2,-1,-1,-1
1528448091765839,0,0,-1,-1,0,-2,-2,-1
1528448091765839,0,1,0,-1,-1,1,1,0
1528448091774797,0,1,0,-1,1,-2,0,-2
1528448091774797,0,1,0,0,-1,-1,-2,0
1528448091788759,-1,-1,-2,-3,-2,-1,-1,1
1528448091788759,0,0,0,-2,-1,-2,-1,0
1528448091795886,-1,0,-1,-1,-2,1,-2,0
1528448091795886,-2,1,-1,0,0,0,0,-1
1528448091811743,0,0,-1,1,-3,-3,-2,0
1528448091811743,-2,-2,-1,-2,0,0,-1,0
1528448091818681,0,-1,-1,1,-1,1,-1,-2
1528448091818681,-1,-1,0,1,0,0,1,-1
1528448091825660,-1,1,-1,0,1,0,-1,-1
1528448091825660,1,1,0,1,0,0,1,0
1528448091834655,-2,0,0,-2,0,-2,-2,0
1528448091834655,0,-1,-2,-1,1,0,-2,-1
1528448091848764,-1,-1,-1,-2,-1,0,-2,-1
1528448091848764,1,-2,-1,0,-2,-1,0,-1
1528448091855720,-1,-1,-1,0,-1,-1,0,0
1528448091855720,0,-1,1,1,-1,1,0,-1
1528448091871867,1,-2,0,0,0,0,2,-1
1528448091871867,-1,-2,0,1,1,0,-1,-2
1528448091877896,0,0,-2,-1,-2,0,-2,0
1528448091877896,-1,0,1,0,-1,-2,-2,-1
1528448091885934,0,-2,0,-1,0,0,-1,-1
1528448091885934,-1,-1,-2,-2,0,-2,-2,2
1528448091894868,-1,0,-1,-1,-2,-2,-1,-2
1528448091894868,-1,-1,-1,-1,-2,1,0,0
1528448091908864,0,-1,0,0,-2,-1,0,-1
1528448091908864,-1,-1,0,-1,-1,-1,-1,0
1528448091915843,0,-1,-1,0,0,0,0,-1
1528448091915843,0,-1,-1,-1,-4,0,-1,-1
1528448091931755,-1,0,0,-2,-2,-1,-1,-1
1528448091931755,0,-1,-1,-1,-1,0,-1,-2
1528448091937798,-1,-3,0,-1,0,-1,-1,1
1528448091937798,-1,0,1,0,1,1,0,-1
1528448091945885,-2,1,-3,0,-1,-1,1,0
1528448091945885,-1,1,0,1,0,-1,-1,-2
1528448091970162,-1,1,-1,1,1,0,-1,-1
1528448091970162,-1,-1,-3,-2,1,-1,-1,-1
1528448091971000,-1,-1,-1,-1,1,0,-2,-1
1528448091971000,-1,0,-2,-1,0,-1,0,-2
1528448091975932,-1,-1,-1,-2,-1,-1,0,0
1528448091975932,-1,0,-1,0,1,-2,0,1
1528448091991905,-1,0,1,1,0,0,0,-2
1528448091991905,0,1,-3,1,-1,1,-1,-1
1528448092006956,-2,-1,-1,0,0,0,0,0
1528448092006956,0,0,-1,-2,-3,-1,-1,-1
1528448092006956,-1,-1,1,-3,0,-1,0,0
1528448092006956,-1,0,-1,0,0,-1,1,-1
1528448092015310,1,0,-1,-1,0,0,0,-1
1528448092015310,0,-1,0,0,-1,0,1,-1
1528448092029520,0,0,-2,1,-1,0,-1,0
1528448092029520,-2,0,0,-2,0,-2,-1,-2
1528448092035611,1,-1,0,0,1,-2,0,-2
1528448092035611,-1,1,-1,0,1,-1,-2,0
1528448092051771,-1,-2,-2,-1,0,0,1,-2
1528448092051771,-1,-2,1,-2,-1,0,-3,0
1528448092058803,0,-3,-2,1,-1,0,1,0
1528448092058803,-1,0,-1,-3,-1,-1,1,1
1528448092065896,0,0,0,0,-2,-2,-1,0
1528448092065896,-1,-1,-2,-1,-2,0,0,-1
1528448092080696,-2,-1,0,0,-3,-1,-1,0
1528448092080696,-2,0,0,0,-1,-2,-1,-1
1528448092089043,0,0,0,-2,-2,-2,-2,0
1528448092089043,-1,0,-2,1,0,-1,0,-2
1528448092096023,-1,-1,-1,-2,-1,0,-1,-1
1528448092096023,1,-2,-2,1,2,1,-1,-1
1528448092111180,-1,-1,0,-2,1,-1,-1,0
1528448092111180,-1,0,0,-1,-1,-2,-1,-1
1528448092118003,0,-1,0,0,0,0,-1,0
1528448092118003,0,-1,0,0,-1,1,1,-1
1528448092133958,1,-1,-1,-2,0,-1,0,-1
1528448092133958,0,0,2,0,-2,1,-1,0
1528448092140939,-1,0,-1,-1,0,0,0,-1
1528448092140939,-1,0,-1,0,-2,-1,-1,0
1528448092147920,-2,0,-2,0,-2,-1,0,-1
1528448092147920,0,-1,0,-2,-1,-1,-1,0
1528448092156895,1,0,0,0,-1,-1,-1,1
1528448092156895,0,-2,-1,-2,0,-1,-2,-2
1528448092172014,0,0,-3,0,-1,0,0,0
1528448092172014,-1,0,-3,-1,0,-2,0,-2
1528448092177996,-2,1,0,-2,-1,-1,1,-2
1528448092177996,0,-1,-1,-1,0,-1,-1,-2
1528448092194157,0,-2,-1,-2,-1,0,-2,0
1528448092194157,0,-3,-1,-1,0,-1,-2,0
1528448092201147,-1,-1,-1,-1,-2,1,-1,-2
1528448092201147,-1,-1,-2,-2,0,1,0,1
1528448092217126,-1,0,0,0,-1,-1,0,-1
1528448092217126,-1,1,-1,1,-1,-1,-1,1
1528448092219092,1,0,-1,-1,-2,0,-1,0
1528448092219092,0,1,0,0,-1,-2,0,-1
1528448092231060,0,-2,-1,-2,-1,-1,-2,0
1528448092231060,-1,-1,-1,-3,-1,0,0,-1
1528448092238044,-1,0,-2,-1,-1,-1,2,-1
1528448092238044,-1,-1,0,-2,0,-2,1,-2
1528448092254163,1,0,1,1,0,-1,0,0
1528448092254163,0,-1,-1,0,-1,1,0,1
1528448092262050,-1,-1,-1,0,-1,0,-1,-1
1528448092262050,-1,0,-1,0,-1,0,0,-1
1528448092285073,0,1,0,-1,-2,0,0,-3
1528448092285073,-1,-1,0,-3,-1,-1,0,0
1528448092285992,0,0,1,-1,-1,1,-1,0
1528448092285992,0,-2,-2,-1,1,0,-1,2
1528448092291995,0,0,0,-1,0,-1,0,0
1528448092291995,0,0,-1,-2,1,1,-1,-2
1528448092298868,-1,-1,0,-1,-1,-3,-3,-1
1528448092298868,0,-3,0,1,-2,-1,0,0
1528448092314387,0,0,-1,0,0,-1,-2,0
1528448092314387,-1,0,-1,-1,0,-1,0,-1
1528448092321275,0,-1,-1,-2,0,0,0,-1
1528448092321275,-1,-1,-1,-1,-3,-1,0,-1
1528448092337316,-1,0,-2,-1,0,-1,-2,-1
1528448092337316,-1,0,-1,-1,-2,-2,-2,0
1528448092339155,0,-1,-2,0,-1,-1,0,0
1528448092339155,0,0,-1,0,-1,0,0,0
1528448092351123,-1,-1,1,-1,-1,-1,0,-1
1528448092351123,-2,1,-1,-1,1,0,-2,-3
1528448092358105,0,0,-1,-2,-2,-2,-2,-1
1528448092358105,1,-1,0,-1,-3,-2,-1,-2
1528448092374199,-1,0,-1,1,0,-1,1,-1
1528448092374199,-2,-3,-1,0,-1,-1,-1,-1
1528448092381184,0,0,-1,0,0,-2,-1,0
1528448092381184,-2,-1,-1,0,0,0,-2,0
1528448092397158,0,-2,-1,-1,0,-1,0,-1
1528448092397158,0,0,0,-1,-2,-1,1,0
1528448092398995,-2,0,0,1,-2,-1,1,0
1528448092398995,0,0,0,0,0,-1,-1,1
1528448092411990,-1,-1,0,0,-1,1,-1,-1
1528448092411990,-1,0,1,-1,0,-2,0,0
1528448092418003,-1,-2,-3,-1,0,-1,-2,0
1528448092418003,-1,0,0,0,0,1,-2,-1
1528448092433940,-2,0,1,-1,-1,0,0,0
1528448092433940,1,-1,-2,0,0,-1,-2,-1
1528448092441073,1,0,-1,1,0,1,-2,-1
1528448092441073,-1,1,0,-2,0,-1,0,0
1528448092457218,-2,0,-1,-1,-2,0,0,1
1528448092457218,0,-2,-1,-1,0,0,0,-1
1528448092459056,-1,-1,1,-1,-2,-1,-1,0
1528448092459056,0,-1,-2,0,0,-1,0,-1
1528448092472021,-1,-2,-1,0,0,0,0,-2
1528448092472021,1,0,-1,0,0,-1,-1,0
1528448092486141,0,0,-2,-1,-1,0,0,0
1528448092486141,-1,-1,-2,0,-2,1,-1,-1
1528448092494119,0,0,0,-2,-1,0,-1,-1
1528448092494119,-1,-1,-1,-1,0,0,-1,1
1528448092500945,0,0,0,-2,1,1,2,0
1528448092500945,0,-1,1,-1,-2,-1,0,-2
1528448092517104,1,0,0,0,-2,0,-1,-1
1528448092517104,0,0,1,1,0,-2,-1,-1
1528448092519133,-1,-1,0,-2,-1,0,-1,-2
1528448092519133,-1,1,0,0,0,-2,-1,1
1528448092531065,1,0,0,-2,0,-2,-2,-1
1528448092531065,0,0,0,0,1,0,2,0
1528448092538093,0,-2,0,1,-1,0,-1,-1
1528448092538093,0,-1,-1,-1,-1,0,-1,-2
1528448092561983,-1,-2,-1,0,-1,-1,-3,1
1528448092561983,-1,-1,-2,-1,-1,1,-1,-1
1528448092563977,-3,-1,0,1,0,-1,1,0
1528448092563977,-1,-1,-1,0,-2,-1,0,0
1528448092576943,0,1,-1,0,1,-1,0,0
1528448092576943,-1,-1,-2,-2,-3,-1,0,-2
1528448092578938,0,1,1,-2,0,-1,-1,-1
1528448092578938,-1,0,0,-2,0,0,1,0
1528448092590958,1,0,-2,0,-2,0,0,0
1528448092590958,-2,2,-1,0,0,-2,0,0
1528448092599905,-1,-1,-2,1,-1,0,0,0
1528448092599905,0,0,0,-1,0,0,0,0
1528448092613906,0,-1,-1,-1,-1,0,-1,0
1528448092613906,0,0,1,-1,-1,-1,-1,-1
1528448092620871,1,-1,-2,-1,0,-2,0,-1
1528448092620871,-2,-1,-2,-2,1,-2,-1,-2
1528448092636839,-2,-2,-1,0,-1,0,0,-2
1528448092636839,-1,-1,-1,0,-2,1,-1,-1
1528448092638779,1,0,-1,1,-1,0,-2,1
1528448092638779,0,0,-2,-1,-1,-2,-1,1
1528448092650746,-1,-1,1,-1,0,-1,-1,0
1528448092650746,-1,-3,0,-1,-2,-1,-1,-1
1528448092659727,-1,1,-2,-2,1,-2,0,-1
1528448092659727,1,0,-1,-1,-2,-1,1,-2
1528448092673738,0,-2,1,-2,0,-1,-1,-2
1528448092673738,0,1,0,-1,-1,-1,-1,-2
1528448092680722,-1,-1,0,-3,-4,-2,-1,0
1528448092680722,0,-2,0,1,-2,-1,0,-1
1528448092696680,-2,0,-2,-2,-2,0,0,-1
1528448092696680,0,-2,-2,0,0,0,-1,1
1528448092698618,-1,-2,0,1,-1,0,0,0
1528448092698618,-2,-1,0,-1,0,-1,-1,-1
1528448092710647,0,-2,0,-2,-1,1,0,0
1528448092710647,1,0,-1,-1,0,-3,0,1
1528448092719580,0,-2,1,0,0,0,0,-3
1528448092719580,0,0,0,-1,1,0,-2,0
1528448092733525,-1,-2,-1,-1,1,0,1,-1
1528448092733525,0,0,-1,-1,0,2,0,-1
1528448092740560,2,0,-3,0,-1,-1,-1,1
1528448092740560,-1,1,-2,-1,-1,-2,-1,-1
1528448092757514,-1,1,-1,-1,-1,-2,-1,0
1528448092757514,-1,0,-1,-1,-2,0,0,1
1528448092758457,-1,-1,-1,0,-1,1,0,-2
1528448092758457,-1,-1,0,-2,1,-1,-1,0
1528448092770426,0,-1,-3,0,0,-1,-2,1
1528448092770426,-1,-1,-1,-1,-1,0,1,-1
1528448092779439,0,-1,-1,-1,1,0,-2,-1
1528448092779439,0,-1,-1,0,0,1,1,-2
1528448092794436,-1,-1,0,0,0,0,-1,-1
1528448092794436,0,-2,-1,0,0,-1,-1,1
1528448092800346,0,0,-1,-1,0,-1,-1,-1
1528448092800346,2,-1,-1,0,-3,-1,-1,-1
1528448092817300,0,0,1,0,-2,-1,-2,-1
1528448092817300,0,1,0,-1,0,-1,-1,-2
1528448092818352,-2,0,0,-1,0,0,0,-1
1528448092818352,-3,0,0,0,0,0,0,-1
1528448092830319,0,-1,0,-2,-1,-1,-1,0
1528448092830319,-1,-2,0,0,-1,0,0,0
1528448092840247,-2,-2,-1,-2,-1,-2,-1,-1
1528448092840247,0,-1,0,-2,0,0,0,0
1528448092854249,0,0,-1,0,-1,0,0,-3
1528448092854249,-2,-2,-2,1,-1,0,-1,-1
1528448092861303,-1,0,0,-1,-1,-2,0,-1
1528448092861303,-3,0,0,1,-1,-1,0,0
1528448092877296,0,-1,-1,-2,0,-1,-2,-1
1528448092877296,1,0,-1,-2,-2,0,-1,0
1528448092879138,0,0,-2,0,-1,-1,-1,0
1528448092879138,0,-1,-1,0,-1,-1,-2,-2
1528448092891103,0,0,-1,-1,0,0,1,-1
1528448092891103,-1,0,-1,-1,0,-1,0,-2
1528448092899530,0,-1,0,-1,-1,-2,0,0
1528448092899530,-1,0,-2,-1,-2,0,-1,0
1528448092914702,0,0,-1,-1,-1,0,-2,1
1528448092914702,0,0,-1,-1,-1,0,-1,-1
1528448092920845,-2,1,-1,0,-1,-1,0,0
1528448092920845,0,-1,0,-1,-1,-1,0,0
1528448092936901,0,-2,-2,-1,-2,-2,1,-1
1528448092936901,1,-1,-2,0,-2,0,1,0
1528448092936901,-1,-1,-1,-1,-2,0,-1,0
1528448092936901,0,1,0,-1,0,-1,0,-1
1528448092959190,0,-1,-1,-1,0,0,0,0
1528448092959190,0,0,1,0,0,-2,-2,0
1528448092960185,1,-1,1,-2,1,-1,-2,-1
1528448092960185,-1,-2,-2,-1,-1,1,-3,1
1528448092974518,-3,0,0,0,1,0,0,-1
1528448092974518,-2,0,-1,0,-1,0,0,0
1528448092980500,-2,1,1,-1,0,0,0,0
1528448092980500,1,-2,0,-2,-1,0,2,-1
1528448092995603,1,0,-3,0,-1,-2,0,0
1528448092995603,0,-1,0,-1,-1,-1,-1,-1
1528448093002855,0,0,0,0,-1,-1,-1,-1
1528448093002855,-1,2,0,0,-1,1,-1,1
1528448093018971,-2,0,-1,1,-1,-2,0,-1
1528448093018971,-2,-1,-2,1,1,-1,-1,-1
1528448093019828,0,-1,-1,-1,-1,-3,-1,-1
1528448093019828,-1,-1,-1,-1,1,-2,1,-2
1528448093034773,-1,-1,-2,-1,-1,-1,0,0
1528448093034773,-1,0,-1,1,-1,1,0,0
1528448093040914,0,-2,-1,-1,-2,1,-3,-2
1528448093040914,0,-1,0,1,1,0,-1,-1
1528448093055872,-1,0,0,0,1,-1,-2,0
1528448093055872,-2,0,-2,-1,0,-1,-1,0
1528448093063793,-2,-1,-1,0,-1,-1,0,-1
1528448093063793,1,-2,0,-1,-1,0,0,0
1528448093078655,-2,0,0,-2,-1,-1,1,-1
1528448093078655,0,-3,-1,-1,-1,0,0,-1
1528448093079674,0,-1,-2,0,2,0,0,-1
