timestamp,emg1,emg2,emg3,emg4,emg5,emg6,emg7,emg8
1529314176686836,1,0,-2,0,-1,-1,1,0
1529314176686836,0,0,-1,0,0,-1,-3,-1
1529314176690825,0,-1,-1,0,-2,-1,0,-1
1529314176690825,-1,-1,0,0,0,-1,-1,-1
1529314176697807,-1,-1,0,-1,1,1,-1,-2
1529314176697807,-2,-1,-1,0,0,0,-1,0
1529314176705787,0,-1,1,0,1,-2,-1,0
1529314176705787,0,0,-1,-1,-1,0,0,-2
1529314176721744,0,-1,-2,-1,1,1,-1,-2
1529314176721744,0,-1,-1,0,0,0,0,-1
1529314176735706,-1,-2,-1,0,-1,0,-1,-1
1529314176735706,0,0,-2,-1,1,-1,1,0
1529314176742690,-2,-2,-1,-1,0,-1,-2,0
1529314176742690,-1,-1,-2,-1,0,-1,0,-3
1529314176758645,-1,-1,-1,0,-2,0,0,0
1529314176758645,0,0,1,1,-1,0,-1,-3
1529314176765626,-2,0,-1,-1,0,-3,0,0
1529314176765626,-1,2,0,-2,-1,0,0,0
1529314176780586,0,-1,-1,1,1,-1,-1,-1
1529314176780586,0,-1,-1,0,1,-2,0,-2
1529314176788573,1,1,0,0,-2,-1,-2,-1
1529314176788573,0,-2,0,0,0,0,-2,0
1529314176795547,-2,-2,-1,-2,0,-2,0,-1
1529314176795547,-1,0,0,-1,0,0,-1,-1
1529314176803525,-1,0,-1,0,-1,1,-2,0
1529314176803525,0,0,0,-1,1,-1,0,-1
1529314176818503,-1,2,-1,1,-1,2,-2,0
1529314176818503,-2,-1,-1,-3,-1,-1,-2,1
1529314176828459,-1,-1,0,-1,-3,-1,1,-1
1529314176828459,-1,0,0,-1,-2,-2,-1,0
1529314176840426,1,-1,0,-1,1,-2,0,-1
1529314176840426,-1,0,-1,1,1,-1,1,0
1529314176848406,1,-1,-1,-1,-1,0,-1,-2
1529314176848406,-1,-2,-3,0,-1,0,-1,-1
1529314176855387,0,-2,0,0,0,-1,0,0
1529314176855387,0,-2,1,-1,-1,-2,-1,-1
1529314176863366,1,0,1,-1,-1,-1,0,0
1529314176863366,0,0,0,0,-1,-3,0,0
1529314176879323,1,1,-2,-1,-2,0,-1,-2
1529314176879323,0,-1,-1,0,-3,-1,-1,-1
1529314176886306,-1,-2,-2,-1,1,0,0,-3
1529314176886306,-1,0,-1,-1,0,0,-1,-1
1529314176900269,-1,0,-1,0,0,-1,-3,-1
1529314176900269,-1,0,-2,-2,0,-1,-2,-1
1529314176908245,-1,-2,0,2,0,0,-1,-1
1529314176908245,0,-2,1,0,0,-1,-1,-1
1529314176915226,-2,-1,0,-1,-2,-1,1,0
1529314176915226,-2,0,-1,-1,-2,0,0,-1
1529314176925202,0,0,-2,-1,-2,-2,-1,0
1529314176925202,-2,-1,0,-1,1,-1,-1,0
1529314176938165,0,0,1,-1,1,-2,0,-1
1529314176938165,-2,-1,2,0,-1,0,2,-1
1529314176946145,0,0,0,0,0,0,1,-2
1529314176946145,1,-1,-1,-1,-1,0,-1,1
1529314176961108,0,-1,-1,-1,1,0,0,0
1529314176961108,0,-1,-1,-1,-2,-2,0,-1
1529314176968086,-1,-1,-1,0,0,-1,-1,-1
1529314176968086,-1,-1,-1,-2,-1,1,-1,-2
1529314176983047,0,-1,-1,1,-1,0,1,-1
1529314176983047,0,0,0,-1,-3,0,-1,1
1529314176998006,0,-2,-2,-1,-2,0,-1,0
1529314176998006,-1,-1,0,0,0,-1,0,0
1529314177005984,-3,0,-2,-1,0,-2,0,1
1529314177005984,-1,-1,0,-1,1,-1,0,-1
1529314177012965,0,1,0,-2,1,0,-2,-1
1529314177012965,-1,-1,1,-1,-2,-3,-1,1
1529314177020943,-1,-2,-1,0,-1,1,-1,-1
1529314177020943,-1,-2,0,1,0,-1,1,0
1529314177035947,-1,-1,0,0,1,-1,0,-2
1529314177035947,-1,-2,-1,1,-1,0,-2,-1
1529314177042913,0,-2,-1,-2,-1,1,-1,-1
1529314177042913,-1,0,-1,-1,-1,0,-2,-1
1529314177057845,-1,0,-1,-1,-1,-2,0,-1
1529314177057845,0,0,-1,-1,0,0,1,-1
1529314177065825,-1,0,-1,-1,-1,-2,-1,-1
1529314177065825,0,-1,-2,0,-1,0,-2,-2
1529314177080795,-1,-1,1,0,0,-1,-1,0
1529314177080795,0,-1,-1,-1,-1,-1,0,1
1529314177095743,0,-1,0,-1,0,-1,-1,-1
1529314177095743,-1,1,-1,0,0,1,0,-1
1529314177102727,0,0,-2,-2,-1,-1,-1,-2
1529314177102727,-1,1,0,1,-1,-2,0,-2
1529314177118683,-1,0,0,0,0,0,1,0
1529314177118683,0,-1,0,0,0,2,0,0
1529314177125664,1,-1,0,0,-3,-1,-1,1
1529314177125664,-2,-1,-2,-1,0,-2,0,-1
1529314177140673,-1,0,-1,0,1,0,-1,-2
1529314177140673,1,-2,0,-1,0,0,0,1
1529314177155595,0,0,0,-1,2,0,-1,-1
1529314177155595,-1,0,0,-1,-2,-1,-1,-1
1529314177163574,-1,-2,-1,-1,0,0,0,0
1529314177163574,0,-1,-1,-1,0,0,-1,-1
1529314177178525,-1,-1,0,0,-1,-1,0,0
1529314177178525,0,-1,-1,-1,0,-1,-3,-1
1529314177185505,2,-1,1,0,0,-1,-1,1
1529314177185505,0,-1,-2,-3,0,1,-1,-1
1529314177200466,-1,2,1,0,-66,-1,-1,-1
1529314177200466,1,-1,0,0,-68,1,-1,-1
1529314177215424,0,1,-1,-1,-42,1,0,-1
1529314177215424,0,-1,0,0,-17,-2,-2,-1
1529314177223403,-3,0,-1,-2,27,-2,-2,1
1529314177223403,0,0,-1,-1,31,-1,-1,-1
1529314177238362,-3,-1,-2,0,26,-1,0,2
1529314177238362,1,0,-2,-1,30,1,0,-1
1529314177245344,0,-2,-1,0,30,0,-1,1
1529314177245344,0,0,0,0,21,-3,-2,0
1529314177260306,-1,-2,-1,-4,7,2,-2,-1
1529314177260306,-1,1,-1,1,8,-1,-1,-1
1529314177275301,1,-1,0,2,6,0,-2,-1
1529314177275301,0,-1,-1,0,-4,0,-1,1
1529314177283294,1,1,-1,-2,-1,-3,0,-3
1529314177283294,0,-2,0,0,7,1,-1,-1
1529314177298254,0,-2,2,-1,-2,-2,-3,0
1529314177298254,0,1,0,-2,-5,-1,0,-1
1529314177305185,0,1,0,-1,2,1,-1,0
1529314177305185,-2,1,0,-1,1,-2,-1,-1
1529314177320144,0,1,-1,-1,1,-1,0,-1
1529314177320144,-1,-1,-2,0,6,-1,-1,0
1529314177336142,-1,1,-1,0,62,0,-1,-1
1529314177336142,0,1,-1,-2,58,-2,0,0
1529314177343083,-1,-1,0,0,33,0,-1,-1
1529314177343083,0,-1,0,-2,1,0,-1,1
1529314177358044,-2,-1,-1,0,-32,-3,0,-1
1529314177358044,0,-3,-1,-3,-34,0,-1,-1
1529314177366023,0,0,-2,0,-27,0,0,-1
1529314177366023,-2,0,-1,0,-28,-1,1,-1
1529314177380983,0,-2,0,0,-15,0,-1,-1
1529314177380983,0,0,0,-1,-4,0,-2,0
1529314177395991,-2,-2,-2,-2,-6,-2,0,0
1529314177395991,0,1,-1,1,-8,-1,-1,1
1529314177404028,-1,0,0,0,-4,-1,0,-1
1529314177404028,0,-1,-2,0,4,-2,2,-1
1529314177417903,1,0,0,0,-1,1,-1,-2
1529314177417903,0,0,-1,-2,-4,-1,-1,0
1529314177426084,0,0,0,-1,0,0,-1,-2
1529314177426084,0,0,1,-2,4,-2,-1,-1
1529314177440822,-1,-1,0,-1,2,-1,-2,0
1529314177440822,0,0,0,0,1,1,-1,0
1529314177456035,-1,0,-2,-1,-3,0,1,-1
1529314177456035,1,-1,-1,0,0,-1,2,1
1529314177463133,-1,0,-1,-1,1,-1,0,-1
1529314177463133,-1,0,-2,-3,1,-2,-1,-1
1529314177478038,0,-1,0,0,-1,0,-1,-2
1529314177478038,-1,0,0,-1,-2,0,0,-1
1529314177486049,1,-1,-1,-1,0,-1,0,-1
1529314177486049,0,-1,0,-1,1,-1,-1,-1
1529314177500976,0,-2,-1,0,0,-1,-1,0
1529314177500976,0,0,-1,-2,1,0,-1,-1
1529314177515985,-1,1,0,0,0,0,1,0
1529314177515985,1,0,0,0,0,0,-1,-1
1529314177522918,-1,-1,0,0,3,-1,1,1
1529314177522918,0,0,1,0,1,-1,0,0
1529314177537914,0,0,-1,0,-2,0,-2,2
1529314177537914,0,2,0,-3,-2,0,0,-1
1529314177545857,0,0,0,-1,-1,0,0,-1
1529314177545857,-1,-1,-1,0,-1,-1,1,0
1529314177560197,-1,-1,0,0,-1,0,0,1
1529314177560197,1,0,0,0,-1,0,-1,-2
1529314177568671,0,-1,0,-1,-1,-1,-3,-1
1529314177568671,0,-1,0,0,2,2,0,0
1529314177575653,0,-1,1,-1,1,-1,0,-1
1529314177575653,-1,-1,-1,0,-1,-1,2,0
1529314177583392,-1,-1,-1,-1,-2,-2,-2,0
1529314177583392,-1,0,-1,0,-1,-2,-1,-1
1529314177598638,0,0,0,-1,-1,1,-1,0
1529314177598638,-1,0,-1,-2,-1,0,-2,1
1529314177605616,-2,-2,-1,-1,0,-1,-1,-1
1529314177605616,-1,-1,-3,-1,-2,-1,0,0
1529314177620929,-1,0,1,-2,0,-1,-1,-1
1529314177620929,-1,-2,-2,-1,0,0,0,-1
1529314177628559,-1,2,0,0,0,0,-1,-1
1529314177628559,1,-1,0,-1,0,1,-1,-2
1529314177635779,-1,-1,-1,-1,-3,-2,0,0
1529314177635779,0,-2,1,1,0,-2,-2,-2
1529314177643190,0,0,0,-3,-1,-1,-1,0
1529314177643190,-1,-1,1,0,0,-1,-2,-2
1529314177658153,0,1,0,-2,1,0,-1,-1
1529314177658153,1,0,-2,0,2,0,0,0
1529314177666131,-1,-2,0,1,1,0,-2,-1
1529314177666131,0,0,-2,-1,0,0,-2,-2
1529314177681108,-2,-2,0,-1,-2,-1,0,1
1529314177681108,-2,0,-3,0,0,0,1,-1
1529314177688608,0,-1,-1,1,0,0,2,-3
1529314177688608,-2,-2,-1,-2,0,0,-2,0
1529314177695928,1,0,-2,1,0,0,-1,-1
1529314177695928,0,0,-1,-1,-2,-2,-1,-1
1529314177703812,1,0,-3,-1,-1,-1,-2,0
1529314177703812,0,0,0,-1,3,2,1,0
1529314177718562,0,-1,-1,0,-1,-1,1,-2
1529314177718562,-1,-4,1,2,1,-1,0,-1
1529314177725737,-1,-1,-2,0,0,0,-1,-2
1529314177725737,-2,-2,-1,0,-1,-1,0,-1
1529314177740744,1,1,-1,-2,-4,-2,-2,-2
1529314177740744,0,-1,0,-1,-1,-1,-1,-1
1529314177748794,1,1,0,0,-1,-1,0,1
1529314177748794,-1,1,1,-1,-1,0,-2,-1
1529314177755949,0,0,-2,0,1,0,0,1
1529314177755949,-2,1,-1,-1,-1,-2,-3,0
1529314177763814,-1,-1,1,0,0,0,-2,-2
1529314177763814,0,1,1,-1,-2,-2,-1,-1
1529314177785890,-2,-3,-5,-1,0,1,1,0
1529314177785890,0,-2,-1,-4,1,0,-2,0
1529314177793886,-1,-2,-1,0,1,0,0,0
1529314177793886,0,1,-1,-2,-4,-1,-3,-1
1529314177808811,0,1,0,0,0,-1,-1,-1
1529314177808811,0,0,-1,-2,2,1,1,-1
1529314177815806,0,-1,0,-2,-1,-1,1,-1
1529314177815806,-1,0,0,0,1,-1,0,0
1529314177823358,0,0,-1,-2,-1,0,0,-1
1529314177823358,0,0,-1,-1,1,0,-1,0
1529314177838663,0,-2,0,-1,1,0,-2,0
1529314177838663,0,1,0,0,0,-1,0,-1
1529314177845762,-1,1,-1,-1,1,-2,0,1
1529314177845762,-2,0,-1,1,1,-2,2,-1
1529314177860725,-1,-2,0,0,-1,-1,-1,0
1529314177860725,0,-2,0,0,-1,-1,-1,-1
1529314177868839,2,0,-1,-2,-1,-1,-3,0
1529314177868839,-1,-1,-1,0,-1,0,-1,-1
1529314177898625,0,0,0,0,0,0,-1,0
1529314177898625,1,1,-1,0,-1,-2,0,-2
1529314177905657,-1,1,-2,0,-1,0,0,-2
1529314177905657,0,-2,0,-2,0,1,-1,-2
1529314177920566,-2,0,1,-1,-1,0,0,-1
1529314177920566,-1,0,1,-1,0,1,-1,1
1529314177928544,-2,-2,0,-1,0,0,-1,0
1529314177928544,1,-2,-1,1,0,1,-2,-1
1529314177943560,0,0,-3,0,0,-1,1,0
1529314177943560,0,-1,0,-1,-1,-1,0,-2
1529314177950530,0,-2,1,-1,-1,-1,0,0
1529314177950530,1,-1,-2,-2,-2,1,0,-1
1529314177958511,0,1,0,-2,1,-2,-1,0
1529314177958511,-1,2,0,0,-1,1,0,0
1529314177965499,0,0,-1,-1,-1,-1,-4,-1
1529314177965499,0,0,-2,-1,2,-1,1,0
1529314177980461,-1,0,0,-1,-2,-1,-1,-1
1529314177980461,-1,-2,-1,0,-1,1,-1,-1
1529314177988440,0,-1,-1,1,-1,-2,1,0
1529314177988440,-1,1,0,0,-1,-2,0,1
1529314177995419,1,-1,0,0,2,0,-2,-1
1529314177995419,0,0,-1,-2,0,-1,-1,1
1529314178003344,-1,-2,1,-2,0,0,-1,0
1529314178003344,1,-1,0,-2,-2,0,0,-2
1529314178018356,-3,1,0,0,0,1,0,-2
1529314178018356,-1,-2,-1,0,-1,1,-1,-2
1529314178025337,0,0,-1,-1,-1,0,2,-1
1529314178025337,-1,2,0,-1,-1,0,-1,1
1529314178040299,1,-2,-1,-1,0,0,1,0
1529314178040299,-2,0,-1,0,1,-1,-2,-1
1529314178048277,-1,-3,-1,0,-1,-1,0,-1
1529314178048277,0,0,0,0,0,1,-2,0
1529314178055261,-1,-2,-1,0,-1,-1,0,0
1529314178055261,-1,1,-1,-1,-2,-2,0,-1
1529314178063240,0,-1,-2,-2,0,-1,-1,0
1529314178063240,-2,0,0,0,-3,0,0,-1
1529314178078171,1,0,-1,-1,0,0,-1,-1
1529314178078171,-2,0,0,0,-2,0,0,0
1529314178086144,-1,1,-1,0,-1,-1,-1,-1
1529314178086144,0,-2,0,0,0,-1,-1,0
1529314178101143,-1,0,-1,-1,3,-2,0,0
1529314178101143,0,-2,-1,0,-1,1,0,0
1529314178108064,-1,0,0,1,1,0,-1,0
1529314178108064,-2,0,2,-1,0,0,1,-1
1529314178116044,-1,-1,-1,-1,-3,-1,0,0
1529314178116044,0,-1,-2,0,-1,0,0,-2
1529314178123025,0,1,-1,-1,-1,1,1,0
1529314178123025,-1,0,-3,-1,-1,-1,0,-1
1529314178138020,-2,-2,0,-1,0,-1,0,0
1529314178138020,0,0,-1,-1,-1,0,-1,1
1529314178146015,1,-2,0,-1,-2,-1,-1,-1
1529314178146015,1,0,0,-2,0,-1,-1,-1
1529314178160923,-1,0,-1,0,0,0,-1,0
1529314178160923,-2,-1,-1,-1,-2,-1,-1,-1
1529314178167956,-2,-2,-1,1,1,0,-1,2
1529314178167956,-2,0,-2,0,0,-2,-1,-1
1529314178175883,0,-2,-1,0,0,-2,-1,-1
1529314178175883,1,-1,0,0,0,0,0,0
1529314178182864,-1,1,0,0,-2,0,-1,-3
1529314178182864,-1,0,-1,-1,-1,-1,0,-2
1529314178198889,-1,-2,0,1,-1,0,0,0
1529314178198889,-1,-2,0,0,0,-3,1,1
1529314178206045,-1,-1,0,0,-1,1,1,0
1529314178206045,0,-1,0,-2,0,1,-2,0
1529314178221456,-1,1,-2,-1,-2,0,-2,-1
1529314178221456,1,-2,0,-1,0,-1,-1,-1
1529314178228053,0,0,0,1,-1,-2,0,-1
1529314178228053,1,1,-2,0,-1,-2,0,-1
1529314178236473,0,-1,-1,-1,0,-1,-1,-1
1529314178236473,0,0,0,-2,1,-1,1,1
1529314178243668,0,0,-1,-1,-2,0,0,0
1529314178243668,0,-4,0,0,-1,-1,-2,-1
1529314178259058,0,0,-1,0,-1,-2,0,-1
1529314178259058,-1,-1,-2,1,-1,0,0,-2
1529314178266046,0,0,-2,-1,1,-2,1,1
1529314178266046,-1,0,-2,-1,0,-2,0,-1
1529314178281102,1,1,0,-1,-1,-1,0,0
1529314178281102,-2,0,0,0,0,-1,0,0
1529314178288965,-1,1,0,-1,-1,-1,0,-1
1529314178288965,-1,-1,0,-2,0,0,-1,-1
1529314178296140,-1,0,1,-2,-1,-3,1,-1
1529314178296140,0,-1,-2,-1,0,-2,0,-2
1529314178303464,-2,-2,-2,-2,-1,0,-2,-1
1529314178303464,-1,1,-1,1,1,1,2,1
1529314178318132,0,-1,-1,-2,0,-1,-3,-1
1529314178318132,-1,0,-2,-1,-1,1,-1,0
1529314178326417,1,-1,-1,-1,0,-1,-1,-2
1529314178326417,0,-1,-2,-2,0,-1,-1,0
1529314178341299,1,-2,-1,0,1,0,-2,0
1529314178341299,-2,-1,-2,0,-1,-1,-1,-2
1529314178348027,-1,0,-2,-2,-2,-1,-2,-1
1529314178348027,0,-2,0,-1,-1,0,0,0
1529314178355678,-2,-1,-1,0,-1,1,0,-2
1529314178355678,-3,-2,1,-1,0,-1,-1,1
1529314178363262,0,0,0,-1,-1,-1,-1,-1
1529314178363262,0,0,-1,-2,-1,-3,0,-2
1529314178378203,-1,0,-1,0,-1,1,1,0
1529314178378203,0,0,0,-2,1,-2,-1,-2
1529314178386578,-1,0,0,-1,0,-1,-1,2
1529314178386578,0,-1,-1,0,0,-1,-1,2
1529314178400782,-1,-3,-2,0,-2,-1,-2,-1
1529314178400782,0,-2,0,0,0,0,-2,0
1529314178415747,-1,1,-1,-1,0,1,0,0
1529314178415747,-1,-1,-1,-1,-1,-1,-1,-1
1529314178430777,-2,-1,-1,-2,0,-1,-1,-1
1529314178430777,-2,-3,-1,1,0,-1,0,-1
1529314178438665,0,-1,0,-1,1,0,0,0
1529314178438665,1,0,-2,-1,-1,-1,-1,-2
1529314178453387,-2,-1,0,1,1,-1,-1,-2
1529314178453387,0,-1,-1,-2,-1,-2,0,-2
1529314178460573,0,-2,1,0,-1,-1,-1,0
1529314178460573,1,1,-1,0,0,0,-2,0
1529314178483097,0,0,-1,1,-1,-1,-1,1
1529314178483097,0,-3,-2,-1,-1,-1,0,1
1529314178498865,1,-2,0,-1,1,-1,-1,0
1529314178498865,0,-2,1,-2,1,0,-1,-1
1529314178513832,-1,0,1,-2,-3,-1,0,-1
1529314178513832,0,-1,1,0,-2,0,-1,1
1529314178528965,-1,1,-1,-1,0,-1,-1,0
1529314178528965,0,1,-3,-1,1,-1,0,-1
1529314178543788,0,0,-3,0,-1,-1,-1,-2
1529314178543788,0,0,0,-1,0,-1,-1,0
1529314178565918,-1,0,-1,-2,0,-1,-1,1
1529314178565918,-1,0,-1,2,1,-1,0,0
1529314178580879,0,0,-2,1,0,-1,1,0
1529314178580879,0,-3,-1,-1,-2,-1,-1,-1
1529314178588597,0,-2,-1,-2,-1,-1,0,-2
1529314178588597,-1,-1,-1,-2,0,0,1,0
1529314178604049,-1,-1,0,0,-1,-1,-1,1
1529314178604049,-1,-1,0,-1,0,-1,0,0
1529314178618966,-1,2,-1,-1,-2,-2,-1,-1
1529314178618966,0,-1,0,-1,-1,1,-1,0
1529314178633060,0,2,-1,-1,-2,1,-1,-1
1529314178633060,0,-1,-2,0,0,-1,-1,0
1529314178641350,-1,-1,-1,-2,0,-1,2,-1
1529314178641350,-1,0,-3,-1,0,-2,-1,0
1529314178656299,-2,1,0,0,0,-2,-2,0
1529314178656299,0,0,0,-1,-1,-2,2,-2
1529314178671308,-2,-1,-1,0,-1,0,-1,-1
1529314178671308,-1,-1,1,0,-1,-2,-1,-1
1529314178678287,-1,-2,-1,0,0,0,1,0
1529314178678287,0,-2,-1,-2,0,1,0,0
1529314178693286,0,-1,0,-2,0,-1,1,0
1529314178693286,-1,0,-1,0,-1,-1,0,1
1529314178700268,-1,1,-1,0,-1,1,0,-1
1529314178700268,0,-1,0,-1,-1,-1,-1,1
1529314178716397,1,0,-1,0,1,-1,0,0
1529314178716397,-1,0,-2,1,-2,-1,-2,-1
1529314178731249,0,-1,-1,-1,0,-1,0,0
1529314178731249,-1,-2,-2,0,-2,-3,-2,0
1529314178738398,-1,-1,0,0,-1,-1,0,-2
1529314178738398,0,-2,0,-1,0,-2,-1,-1
1529314178753951,-1,-1,-1,-1,-2,-1,-1,1
1529314178753951,1,0,0,-2,0,0,0,0
1529314178760606,0,-1,1,-1,-1,0,-1,0
1529314178760606,-1,1,-3,-2,-1,-1,0,0
1529314178775552,-1,0,0,-1,-2,-1,0,-1
1529314178775552,0,1,-1,0,-3,-2,-1,-2
1529314178790869,0,0,0,0,0,-1,-1,-2
1529314178790869,-1,-1,1,0,-1,-1,-1,-1
1529314178798546,1,-2,-1,-1,1,-1,-1,1
1529314178798546,-1,-1,-1,-1,1,-1,0,-1
1529314178813992,-2,1,-1,-1,1,-3,-1,-1
1529314178813992,-1,0,0,0,0,0,0,-1
1529314178821044,0,0,-1,0,-2,1,-1,-1
1529314178821044,-1,1,0,0,0,1,0,0
1529314178835908,0,-2,-2,0,-1,0,0,-1
1529314178835908,-1,-2,-1,-1,-1,-1,-1,0
1529314178850649,-2,1,1,-1,-1,-1,1,-2
1529314178850649,-1,1,-2,-2,-2,1,1,-2
1529314178858612,0,-1,0,-1,0,-2,0,-1
1529314178858612,-2,-3,-2,-2,-1,1,-2,-1
1529314178873588,0,0,-2,-1,0,-2,1,2
1529314178873588,0,-1,-1,-2,-2,0,1,0
1529314178880569,-1,0,-2,0,0,-1,-1,0
1529314178880569,0,0,-1,-1,2,-2,-1,1
1529314178895539,0,-2,-1,0,-1,-2,-1,1
1529314178895539,-1,-1,-1,1,0,1,1,0
1529314178910451,0,0,-2,-1,-1,0,0,-2
1529314178910451,-1,0,-1,-1,0,-3,-1,0
1529314178918430,0,0,-2,0,1,0,0,-2
1529314178918430,0,0,-2,-1,-2,0,0,-1
1529314178933391,0,-1,-2,-1,0,0,0,0
1529314178933391,-1,-3,0,-1,-1,-3,-1,0
1529314178940372,0,0,0,-1,0,1,-2,1
1529314178940372,-1,-2,0,-1,-2,-1,-1,0
1529314178956372,0,0,-1,0,0,0,1,1
1529314178956372,-1,-2,1,-1,-1,-2,-2,1
1529314178971322,-1,1,-1,-1,-3,-1,-3,0
1529314178971322,0,0,0,-2,0,-1,-1,0
1529314178978538,0,-1,-1,-1,0,-2,0,0
1529314178978538,0,1,0,0,1,1,0,-1
1529314178993496,-1,-1,0,0,-3,-1,0,0
1529314178993496,-1,0,0,0,0,0,1,-2
1529314179000722,1,-1,-1,-1,-1,0,-2,-1
1529314179000722,1,-1,-1,0,0,-1,1,-1
1529314179015701,-2,-1,0,-1,-1,-2,-1,0
1529314179015701,-1,0,-2,0,0,0,-1,-1
1529314179031428,1,-1,-2,0,0,1,0,0
1529314179031428,-1,-2,-1,-1,0,-1,-1,2
1529314179038638,-1,-1,0,0,1,1,-2,-1
1529314179038638,2,2,0,1,-2,-1,0,0
1529314179053868,-1,0,0,-2,1,-2,-1,-2
1529314179053868,1,-2,-1,-1,-1,0,-1,0
1529314179060628,-1,-3,0,-1,-2,-1,0,-3
1529314179060628,0,-1,-1,-1,0,1,0,-1
1529314179075849,0,1,0,-2,-1,0,1,0
1529314179075849,-2,-1,1,-3,0,-1,0,-2
1529314179090815,-2,-2,-2,0,1,1,-1,0
1529314179090815,0,-1,0,1,-1,-1,-1,-1
1529314179098799,0,-1,-1,-1,-1,-1,-3,-1
1529314179098799,0,0,-1,-1,-1,-1,-2,-1
1529314179113951,1,0,-1,-2,-2,-1,-1,-1
1529314179113951,-1,0,0,1,1,-1,-1,-2
1529314179120990,-2,0,0,-1,-1,0,1,2
1529314179120990,-1,-2,-1,-1,-1,-1,0,0
1529314179136209,-2,-1,-1,0,-1,0,1,-1
1529314179136209,-1,-2,0,-2,-1,0,-1,1
1529314179151076,0,0,0,-2,-1,-2,2,0
1529314179151076,0,0,-1,0,1,1,-2,2
1529314179158929,0,-1,-1,0,-2,-2,-2,-2
1529314179158929,-1,-2,-2,-1,-1,0,-2,0
1529314179173795,-1,-2,0,0,-1,-1,0,-1
1529314179173795,0,-1,0,-2,0,-1,1,-2
1529314179180763,1,-2,-2,-1,-1,0,1,-1
1529314179180763,-1,0,-1,-1,0,-2,0,-2
1529314179195543,-1,-1,0,-2,0,-1,-1,0
1529314179195543,0,0,0,0,-1,-1,0,-3
1529314179210460,0,-2,0,-1,-2,-1,0,0
1529314179210460,-2,-2,-2,-1,-1,1,0,0
1529314179218678,0,0,0,0,-1,-1,-1,0
1529314179218678,-1,-4,-1,-1,1,0,-1,0
1529314179233399,0,1,-1,-2,0,0,-1,1
1529314179233399,2,0,-2,-2,-2,-1,-1,-1
1529314179241411,-1,1,-1,-1,0,1,-2,-1
1529314179241411,-1,-1,0,1,0,-1,0,-1
1529314179256374,0,-1,-2,0,0,-1,-1,-2
1529314179256374,-1,-1,0,-1,-3,-1,-1,0
1529314179270939,0,0,-1,-1,0,-1,-2,-1
1529314179270939,0,-1,-1,1,0,0,-2,-1
1529314179278918,1,-1,0,-1,1,-2,0,0
1529314179278918,-1,-1,0,-1,-2,-1,0,1
1529314179293822,0,0,0,0,-1,-1,-1,1
1529314179293822,-1,-1,-1,-2,-1,-2,0,1
1529314179301009,-2,-2,0,0,0,1,0,0
1529314179301009,-1,0,-1,0,0,-1,-2,-1
1529314179315706,-2,-1,0,0,-1,1,0,-1
1529314179315706,-1,0,-3,0,-2,0,0,-1
1529314179331045,0,0,0,-1,-1,0,-2,-2
1529314179331045,-1,-1,-1,0,-1,-1,-1,-1
1529314179338962,1,-2,-1,0,-3,-1,1,-1
1529314179338962,0,1,0,0,-2,0,-1,-1
1529314179353939,0,0,-1,-1,1,-1,0,-1
1529314179353939,1,1,-2,-1,1,-2,2,-2
1529314179360602,-1,-1,0,-1,-1,0,0,0
1529314179360602,-1,0,-1,0,1,-1,1,-1
1529314179376199,0,-1,-1,-2,-1,-1,0,0
1529314179376199,2,0,0,-1,1,0,1,0
1529314179391053,-2,-2,-2,-1,-3,-1,0,0
1529314179391053,0,-1,0,-1,1,-2,-1,0
1529314179398902,-1,-1,-3,-1,0,-2,0,-1
1529314179398902,1,0,1,-1,-1,0,-1,1
1529314179412793,-1,-1,0,-1,1,0,0,0
1529314179412793,0,0,-1,0,1,1,-1,-2
1529314179420726,-1,-1,1,0,1,-1,0,0
1529314179420726,-1,-2,-2,-1,-1,-1,-1,-1
1529314179435666,-1,0,0,0,-1,1,0,0
1529314179435666,1,-1,0,-2,-1,-1,-1,-3
1529314179450589,0,0,-1,0,-1,-1,0,-1
1529314179450589,-2,-1,-1,-1,-1,-1,-2,-1
1529314179458901,-1,-1,0,0,-3,-2,0,0
1529314179458901,-1,0,-2,-1,-1,-1,1,0
1529314179473841,1,-1,0,-1,-2,-1,0,-1
1529314179473841,0,-2,0,1,0,1,-1,0
1529314179481546,0,-2,-1,-1,0,-1,0,0
1529314179481546,-2,1,-1,-1,-1,0,1,-1
1529314179503450,0,1,0,-1,0,0,-1,-1
1529314179503450,-1,0,-1,0,0,-1,0,0
1529314179518988,-1,0,-1,-1,0,-1,0,0
1529314179518988,0,-1,0,0,0,1,0,-1
1529314179526154,-1,0,-1,-1,-1,-1,0,0
1529314179526154,-2,0,0,-3,0,-2,-1,-1
1529314179541067,0,-1,-2,-2,0,-1,-1,0
1529314179541067,0,-1,-1,1,-2,0,-2,0
1529314179556346,-1,-2,1,0,0,1,1,-1
1529314179556346,0,-2,0,-1,-2,0,0,-2
1529314179571301,-1,0,-1,-1,0,1,0,-3
1529314179571301,-1,-1,-2,0,-2,0,2,0
1529314179578014,-1,0,-1,-3,-1,-3,0,0
1529314179578014,-2,-2,-2,0,1,-2,0,1
1529314179593642,-1,-1,-1,0,-1,-2,-1,0
1529314179593642,-1,-1,-1,-2,0,0,-1,-1
1529314179600702,-1,-1,1,-1,0,-1,-1,-2
1529314179600702,0,-1,1,0,0,-1,0,0
1529314179615398,-1,0,0,0,-2,-1,-2,0
1529314179615398,-1,-1,0,-2,-1,0,-2,-2
1529314179631290,0,-1,0,-2,-2,-1,-1,0
