timestamp,emg1,emg2,emg3,emg4,emg5,emg6,emg7,emg8
1528278238940818,4,9,5,16,3,28,27,5
1528278238940818,0,-2,-5,5,19,16,-2,-3
1528278238941546,2,2,-1,-5,3,9,-8,-1
1528278238941546,-9,-10,-3,-5,-10,1,17,3
1528278238955508,-1,0,-7,-19,-22,-25,-3,-2
1528278238955508,-6,-7,-4,-9,-11,-18,-7,-5
1528278238956506,-3,4,2,3,11,0,-12,-3
1528278238956506,1,-4,-2,6,3,23,-5,-3
1528278238978447,-3,2,1,-6,1,15,31,5
1528278238978447,-2,6,0,8,2,-31,-6,-1
1528278238979480,-6,-7,-4,-12,4,49,15,-5
1528278238979480,-4,-5,5,27,8,-9,-17,0
1528278239009392,7,4,1,-5,7,27,6,5
1528278239009392,0,-2,-7,-6,-13,-18,-6,-1
1528278239009392,18,11,5,-1,-17,-67,-13,5
1528278239009392,-8,-3,1,11,22,53,10,-5
1528278239015348,-7,0,0,3,12,26,3,-7
1528278239015348,-13,-11,-3,-3,-6,-9,-12,-12
1528278239016345,-4,-5,-5,-4,-21,-38,-11,4
1528278239016345,0,0,-4,-15,-12,-27,-4,3
1528278239038324,2,-1,-4,-2,9,9,-3,3
1528278239038324,4,3,-1,1,-1,27,3,2
1528278239039285,-5,-3,6,1,1,-11,2,-5
1528278239039285,0,-4,0,15,-12,-64,-26,-15
1528278239060267,-5,6,-4,-18,16,71,18,7
1528278239060267,-1,-16,-2,1,7,17,6,5
1528278239061234,-7,1,-3,-5,1,13,-4,-7
1528278239061234,11,1,1,-2,1,-27,-9,3
1528278239075189,4,7,7,10,-12,-14,-6,1
1528278239075189,-10,-3,-7,-12,-4,7,-4,-2
1528278239099125,-6,5,4,9,-2,0,5,0
1528278239099125,-2,-4,-5,3,-3,-5,-25,-18
1528278239101121,-5,-12,-1,-7,-11,-48,-15,11
1528278239101121,12,10,9,13,20,55,58,30
1528278239102119,-20,-5,-5,-9,-4,-4,-7,-15
1528278239102119,16,-5,-4,-23,-11,12,4,1
1528278239121093,-23,-7,-5,9,-9,-35,-31,-29
1528278239121093,-1,5,4,-17,-7,-20,-20,-9
1528278239121093,-4,-3,2,17,9,8,5,5
1528278239121093,-16,-9,-6,-12,1,20,12,-3
1528278239136025,-20,2,-6,-9,-19,-39,-26,-15
1528278239136025,37,-3,-3,-3,-1,7,4,14
1528278239143008,-14,-7,0,0,7,6,8,6
1528278239143008,26,12,12,24,18,30,14,9
1528278239157967,-18,-3,-20,-50,-23,-20,2,-1
1528278239157967,30,28,28,93,35,1,-17,-18
1528278239158964,-3,25,13,-5,0,13,23,30
1528278239158964,-26,-1,-12,-28,-14,-14,-14,-17
1528278239181902,16,-28,-5,1,2,-7,-3,8
1528278239181902,-13,-18,-9,-15,-14,-6,4,-6
1528278239182900,26,9,0,12,6,2,-3,-2
1528278239182900,14,9,-2,0,2,1,6,0
1528278239194868,-19,10,4,6,1,5,-1,-9
1528278239194868,-14,-5,-1,-15,-7,-4,8,9
1528278239202846,-3,-22,-10,-7,2,4,3,1
1528278239202846,-16,-4,3,9,1,5,9,3
1528278239217807,23,31,8,10,-2,-9,-15,-9
1528278239217807,-14,-15,-2,-9,-6,0,5,0
1528278239218819,-1,-11,5,7,5,0,-5,-4
1528278239218819,-2,5,-7,-11,-6,4,1,0
1528278239240756,14,1,-3,5,-2,-9,-4,0
1528278239240756,-6,0,-14,-29,-10,-7,-2,0
1528278239241744,-23,-8,6,44,15,11,-1,-5
1528278239241744,-4,-4,0,-13,0,0,1,0
1528278239254708,-2,-14,2,5,4,0,3,3
1528278239254708,-12,26,3,-16,-12,-4,-8,-5
1528278239262687,11,-30,-20,-12,-4,1,4,3
1528278239262687,2,-1,5,9,-3,-4,3,8
1528278239293604,-9,-4,10,10,11,6,2,1
1528278239293604,-7,-2,-12,-16,-14,-9,-10,-13
1528278239294613,15,14,8,2,1,4,2,1
1528278239294613,2,-3,0,4,9,5,11,10
1528278239302580,-4,-7,-3,-9,-9,-7,-2,-3
1528278239302580,16,12,4,11,-4,-8,-6,-2
1528278239303583,2,8,1,-3,-3,-1,-4,-3
1528278239303583,-8,-31,-16,-15,-6,0,2,3
1528278239315546,22,16,8,5,3,2,1,4
1528278239315546,-1,-4,-5,5,5,-3,-4,0
1528278239322526,-3,0,-1,-31,-18,-6,-1,-6
1528278239322526,-7,6,9,5,3,0,-4,-5
1528278239346497,2,-3,-11,-13,-5,-9,-5,-3
1528278239346497,-5,-3,18,33,10,5,1,2
1528278239347461,2,-3,-12,-16,0,5,3,-2
1528278239347461,-2,0,-4,-3,-6,-2,-4,-3
1528278239360480,2,-5,-3,-5,-7,-9,-5,1
1528278239360480,-9,-9,-1,4,10,8,4,-1
1528278239361424,12,7,-5,-7,-7,-5,-3,-3
1528278239361424,-1,5,3,-4,-4,-5,0,0
1528278239375386,-1,0,-2,0,0,-1,-1,-1
1528278239375386,-4,-3,0,12,6,1,1,-1
1528278239382422,2,-1,0,-5,-7,-7,-5,-3
1528278239382422,0,-4,-10,-7,-2,-4,-1,0
1528278239401570,1,0,4,-8,0,2,2,1
1528278239401570,-1,-1,-5,14,4,3,2,-2
1528278239402571,-2,-1,-1,-15,-8,-5,-3,-4
1528278239402571,-2,-6,-8,1,-3,-8,-4,-2
1528278239421520,-2,-1,-7,-7,-7,-5,-3,-2
1528278239421520,4,1,4,-18,-9,1,3,4
1528278239421520,-1,3,-1,18,26,5,-5,-5
1528278239421520,2,2,2,-3,3,17,9,3
1528278239435471,0,-3,-1,10,9,9,2,2
1528278239435471,-2,-1,-3,-10,-11,-4,-4,-1
1528278239443449,-4,-3,0,7,-10,-11,-5,-1
1528278239443449,-1,3,2,-6,-10,-9,-6,-2
1528278239458470,-1,0,0,2,10,8,3,0
1528278239458470,-3,-5,0,10,1,-4,-5,-3
1528278239459820,-3,1,1,-5,0,2,0,-6
1528278239459820,1,-3,-3,-1,-6,-4,-3,4
1528278239481619,5,1,1,1,-8,-5,0,6
1528278239481619,-11,-5,-6,-12,-2,-2,-1,-18
1528278239481619,-36,-12,-12,-6,1,11,21,-39
1528278239481619,7,2,6,2,-1,-2,-17,22
1528278239504720,51,9,3,5,6,1,-14,40
1528278239504720,29,16,7,1,3,2,12,26
1528278239504720,-87,-24,-9,2,-2,9,37,-86
1528278239504720,-34,-18,-16,-19,-19,-9,18,68
1528278239527008,58,-3,-6,10,1,-12,-37,80
1528278239527008,107,54,38,14,15,18,-12,71
1528278239527591,39,19,26,49,67,32,-38,-30
1528278239527591,-99,-22,-7,-1,2,6,56,-123
1528278239540560,-90,-28,-17,-20,-30,-24,-19,-55
1528278239540560,17,-24,-22,-27,-23,-27,-22,32
1528278239541554,14,11,-4,-16,-32,-27,13,6
1528278239541554,-33,-20,-10,4,-3,13,26,-44
1528278239563930,-53,-21,-8,-13,-17,-11,-11,-20
1528278239563930,26,-5,-41,-14,-20,-21,-58,21
1528278239564911,98,60,67,24,21,12,-9,84
1528278239564911,39,13,-10,-10,4,-6,-1,11
1528278239586869,-58,-7,23,50,-1,7,41,-62
1528278239586869,-50,-41,-32,-53,-23,-9,10,-62
1528278239586869,8,-23,-39,-32,-45,-33,-25,21
1528278239586869,31,25,13,7,19,13,-19,10
1528278239601151,7,2,3,2,11,10,9,-3
1528278239601151,-31,0,9,17,24,15,7,-10
1528278239601814,-5,-13,-20,-7,-6,-1,7,18
1528278239601814,27,10,11,1,1,0,-10,10
1528278239624279,15,15,-3,-7,5,4,-6,5
1528278239624279,-26,-7,12,8,-5,-5,13,-10
1528278239625177,-2,1,-13,-15,-7,-3,6,5
1528278239625177,2,-7,2,14,4,-3,-17,8
1528278239646768,18,0,0,-6,-1,0,3,7
1528278239646768,-17,7,7,3,-2,2,18,-14
1528278239647501,-16,-9,-1,18,12,7,-1,0
1528278239647501,7,-2,-5,-20,-20,-18,-27,3
1528278239660723,15,7,4,18,27,16,15,3
1528278239660723,-19,-2,9,9,-14,3,11,-17
1528278239661470,-3,-9,-5,22,-1,-8,-10,8
1528278239661470,15,-3,-12,-49,-26,-16,-6,9
1528278239682407,1,7,13,23,8,6,6,-6
1528278239682407,-20,-17,-40,-99,-21,-12,-5,-13
1528278239691397,-2,2,27,113,58,16,2,6
1528278239691397,7,12,39,36,-1,-6,-8,2
1528278239706665,-1,-11,-34,-75,-29,-10,-4,-5
1528278239706665,-9,-6,-15,-63,-6,0,-1,-5
1528278239707341,-5,-6,-23,-53,-38,-18,-4,1
1528278239707341,0,-2,-12,9,18,15,8,2
1528278239720708,11,6,22,31,12,-2,-3,2
1528278239720708,-4,1,13,37,0,-2,2,0
1528278239729284,-3,-4,-10,-25,-10,3,-1,-1
1528278239729284,0,-1,-4,-28,10,2,-3,3
1528278239743387,2,4,6,27,-14,-3,2,1
1528278239743387,-5,-3,-10,-53,1,-1,2,-4
1528278239751224,-7,4,18,82,14,-6,-6,-4
1528278239751224,3,1,0,-1,-11,-6,-8,1
1528278239766429,2,-2,-13,2,1,11,8,3
1528278239766429,-4,0,8,-4,10,-3,0,-5
1528278239768178,-7,-8,-8,-57,-26,-8,-7,-2
1528278239768178,5,-2,-9,-6,-9,-4,-3,0
1528278239789384,-2,-2,-10,-29,-7,-10,-2,-6
1528278239789384,-3,0,9,59,15,8,3,-3
1528278239790422,-2,-3,-5,-37,-7,-4,-4,0
1528278239790422,3,3,-4,7,2,-2,-1,1
1528278239803307,-1,4,6,6,5,2,0,0
1528278239803307,-2,1,16,52,24,13,3,1
1528278239811546,1,-2,-11,-46,-20,-6,0,2
1528278239811546,1,0,-2,-1,3,1,-4,-2
1528278239826594,0,0,11,35,22,7,6,1
1528278239826594,-3,0,1,8,3,2,0,-2
1528278239828327,1,0,-1,-2,-7,-5,-5,-1
1528278239828327,-1,-4,-13,-27,-14,2,3,1
1528278239840535,2,2,9,15,34,9,1,-1
1528278239840535,-2,0,1,22,-4,-5,-1,-1
1528278239849271,-1,-3,-7,-32,-7,4,3,2
1528278239849271,0,-2,3,19,8,-5,-2,-1
1528278239863472,-3,-5,-12,-30,-23,-12,-6,-2
1528278239863472,-1,4,8,29,17,11,4,-1
1528278239870458,0,1,1,-8,-5,0,-1,-2
1528278239870458,-2,-4,-1,-1,-2,-3,-4,0
1528278239893399,-5,-4,-7,-9,-9,-7,-4,-5
1528278239893399,0,-1,-5,-10,-7,-3,-1,0
1528278239902183,-1,-1,1,-4,-6,-8,-5,-2
1528278239902183,-1,0,11,52,32,13,3,0
1528278239903127,-2,-1,2,10,-4,1,0,0
1528278239903127,-2,-5,-15,-36,-18,-8,-2,-3
1528278239909413,-2,-1,-3,-19,0,7,5,0
1528278239909413,-2,2,15,34,21,0,-5,-4
1528278239924375,-1,-1,-9,-21,-13,-8,-2,-2
1528278239924375,0,-1,1,25,1,-5,-1,-1
1528278239925371,-1,-3,-4,-10,-2,1,1,1
1528278239925371,1,3,1,-8,-7,-3,-3,1
1528278239946734,-2,-1,-1,-7,-1,0,-3,-4
1528278239946734,-3,-1,3,1,-12,-8,-3,-3
1528278239948309,2,0,2,4,13,11,2,0
1528278239948309,1,-5,-7,-3,-3,-2,2,3
1528278239960835,2,2,-3,-17,-6,-3,-1,1
1528278239960835,-16,-6,-1,-3,-5,-3,-1,-33
1528278239969104,-49,-14,-5,-3,-27,-16,2,-49
1528278239969104,18,3,-2,3,35,21,-11,60
1528278239983776,68,26,12,1,2,1,1,48
1528278239983776,-5,13,17,20,16,14,12,2
1528278239985771,-30,-26,-25,-14,-10,-13,-14,-71
1528278239985771,-62,-14,-6,-7,-11,16,82,-51
1528278240006769,-17,-22,-21,-22,-14,-18,-34,55
1528278240006769,118,39,17,16,8,-11,-65,119
1528278240007718,84,55,44,39,33,19,7,26
1528278240007718,-26,-9,-5,-12,-12,3,27,-31
1528278240020027,-106,-35,-11,2,11,18,16,-116
1528278240020027,-58,-40,-28,-26,-45,-29,6,-6
1528278240028994,20,-5,-13,-8,-2,0,0,66
1528278240028994,28,24,14,11,5,-6,-20,7
1528278240043617,-3,8,6,0,-2,7,20,-15
1528278240043617,-32,-19,-13,-14,-9,-8,-10,-44
1528278240050886,-3,-9,-10,-4,-11,-14,-9,15
1528278240050886,12,3,3,9,27,23,5,4
1528278240066559,4,-2,3,11,-4,-10,-12,-3
1528278240066559,5,12,5,-11,8,7,2,3
1528278240068555,-4,-10,-4,2,-5,-6,10,4
1528278240068555,0,-4,-7,-14,-17,-14,-23,-9
1528278240089692,10,2,-7,-23,-8,-5,-10,9
1528278240089692,2,3,8,35,21,10,20,-6
1528278240090501,-12,2,14,27,11,5,4,-3
1528278240090501,-3,-4,-9,-15,-20,-18,-32,-7
1528278240103803,20,9,2,-4,1,2,5,14
1528278240103803,-10,-6,-4,-19,-7,5,19,-11
1528278240110832,-11,-1,-4,-19,4,3,-4,-6
1528278240110832,7,-6,-1,17,-2,-5,-15,8
1528278240127048,5,3,-6,-5,-2,-2,9,1
1528278240127048,-6,-5,-12,-12,5,10,5,-13
1528278240127712,0,7,20,35,10,-2,-8,2
1528278240127712,4,-1,-6,-27,-19,-10,-4,3
1528278240148920,-2,-2,-6,-4,-1,-1,4,-3
1528278240148920,-8,-5,-7,-4,5,-3,-7,-12
1528278240150659,1,4,29,79,27,11,0,4
1528278240150659,2,-6,-13,-38,-30,-12,-4,-2
1528278240162615,-1,-3,-10,-21,8,9,1,-3
1528278240162615,3,10,33,45,5,2,1,2
1528278240171591,-3,-5,-18,5,-9,-2,3,1
1528278240171591,1,3,9,-16,-6,-7,-6,-1
1528278240186796,0,-7,-15,-9,-12,-5,-4,-1
1528278240186796,-2,-3,-17,-50,-14,-3,3,-2
1528278240188781,-5,0,3,17,5,1,0,-1
1528278240188781,-1,-1,-5,-22,-4,-2,-6,-1
1528278240208493,1,-3,-5,-3,1,-1,2,2
1528278240208493,0,3,5,9,-12,-6,-2,-5
1528278240210486,-2,2,14,34,27,6,-1,-2
1528278240210486,1,-1,-5,-15,-15,-3,-5,0
1528278240231674,3,3,5,-4,-11,-7,-1,0
1528278240231674,-4,-7,-21,-23,14,3,-1,-4
1528278240233425,-4,-4,-11,-34,-35,-15,-7,-3
1528278240233425,3,2,9,25,49,33,10,4
1528278240246692,-5,-3,-1,-18,-10,-6,-3,-2
1528278240246692,0,-1,-9,-15,-8,-4,-1,-3
1528278240248826,-2,-4,-6,-9,-1,-2,-3,-1
1528278240248826,-2,-2,1,45,11,2,1,-1
1528278240269639,1,4,19,15,1,0,-3,1
1528278240269639,-2,-3,-8,-4,6,3,1,-1
1528278240270627,1,-5,-21,-55,-7,0,2,0
1528278240270627,-2,-3,8,41,1,-6,-3,-3
1528278240291571,1,-1,-3,-14,0,-2,1,2
1528278240291571,-2,0,5,14,-3,-5,1,-1
1528278240293578,-2,-1,-3,-20,-4,3,0,-3
1528278240293578,0,0,-5,-3,-21,-14,-4,-2
1528278240307219,0,1,9,32,35,14,2,0
1528278240307219,-4,-1,5,6,-10,0,-4,-3
1528278240307874,-1,-1,-6,-12,-5,2,5,2
1528278240307874,-2,-4,-18,-51,-14,-10,-5,-1
1528278240336798,-2,0,10,43,2,-4,-4,-4
1528278240336798,-1,-5,-4,2,-3,1,2,-1
1528278240344098,-2,0,-5,-11,-4,-3,-4,-1
1528278240344098,-1,0,-1,-3,0,-2,0,-1
1528278240344098,-4,-5,-10,-28,-21,-6,-2,-2
1528278240344098,0,4,15,50,19,5,2,-1
1528278240351512,0,-2,-10,-17,-9,-2,-3,1
1528278240351512,-4,-5,0,-11,0,-6,-3,-4
1528278240366146,-1,1,7,28,-15,-9,-3,-1
1528278240366146,-1,2,-1,-19,18,12,1,1
1528278240368141,-1,-2,-9,-23,-9,-5,-3,-1
1528278240368141,-3,0,2,24,-5,-8,-5,-2
1528278240396359,-1,-4,-6,-32,-15,-4,2,-1
1528278240396359,-2,0,10,28,5,-3,-3,-5
1528278240398061,-2,-2,1,11,4,0,-1,-1
1528278240398061,-1,-5,-10,-21,6,6,1,-1
1528278240403254,1,1,-2,4,-1,-7,-3,1
1528278240403254,-1,-2,-4,-5,-7,-2,-2,-1
1528278240410029,-2,-3,0,-6,3,3,3,0
1528278240410029,0,2,3,9,-11,-9,-4,-2
1528278240425987,-5,1,1,2,9,4,0,-10
1528278240425987,-39,-14,-9,-5,-5,-2,2,-34
1528278240427982,22,-4,-6,-11,-1,8,12,60
1528278240427982,50,24,15,13,10,8,-4,35
1528278240448961,-17,-1,11,20,4,-4,-4,-47
1528278240448961,-73,-20,-16,-27,-19,1,14,-77
1528278240450954,-1,-14,-16,-7,-9,-16,-34,35
1528278240450954,87,24,13,14,12,7,-9,59
1528278240462920,59,27,23,16,15,9,-6,27
1528278240462920,-26,-4,-6,-12,-8,3,47,-51
1528278240471899,-83,-34,-23,-19,-23,-15,-4,-43
1528278240471899,7,-10,-8,-2,-9,-18,-60,1
1528278240486880,25,21,14,14,17,11,6,27
1528278240486880,2,-2,6,1,5,0,-7,-1
1528278240487822,-27,-4,0,3,-12,-2,31,-37
1528278240487822,-58,-28,-26,-23,-12,-3,11,-27
1528278240508819,7,-3,-7,-3,-3,1,-2,22
1528278240508819,35,5,-4,-23,-3,-1,-5,41
1528278240510759,23,13,20,27,20,8,1,-11
1528278240510759,-20,2,21,51,11,-1,3,-17
1528278240522773,-23,-2,-16,-21,-10,-3,2,-21
1528278240522773,31,-7,1,2,1,6,-9,37
1528278240531751,11,8,-3,-19,-10,-8,-14,5
1528278240531751,-25,-7,0,-7,3,6,18,-20
1528278240546718,-6,1,-4,-13,-5,-6,6,5
1528278240546718,25,10,2,12,2,-3,-14,18
1528278240547718,16,7,3,0,4,4,-5,-5
1528278240547718,-25,-7,-2,-3,0,4,16,-5
1528278240568606,-17,-17,-11,-5,-10,-12,-9,-9
1528278240568606,16,15,5,0,-6,-8,-13,12
1528278240570629,20,9,8,11,7,5,7,15
1528278240570629,-13,4,5,-2,1,4,7,-11
1528278240582571,-8,-12,-10,-11,-6,-4,-8,-4
1528278240582571,3,-2,-3,0,-2,-9,-9,0
1528278240591544,-8,-3,-2,9,8,0,0,-10
1528278240591544,1,1,-2,-13,-2,4,9,-2
1528278240613552,-7,-8,-4,-11,-4,-3,-2,0
1528278240613552,3,4,0,9,12,13,1,11
1528278240620518,2,5,11,24,12,11,1,-6
1528278240620518,1,1,-1,-6,-7,-6,-3,-4
1528278240629475,-8,-6,-3,8,7,0,-1,-8
1528278240629475,0,2,-3,-6,-10,-6,-1,11
1528278240630468,4,-1,-5,-14,-6,-6,-4,-4
1528278240630468,-1,-2,-5,-11,-3,0,0,-10
1528278240642462,-5,0,1,-1,-1,-2,3,3
1528278240642462,5,-5,-5,-5,-5,-5,-8,6
1528278240651434,-1,2,1,-8,-9,-6,-6,-7
1528278240651434,-2,-1,-2,12,1,-1,4,-3
1528278240665399,-6,-4,4,11,7,4,1,-1
1528278240665399,4,1,0,-7,-1,-4,-5,4
1528278240674325,0,0,-1,-4,1,1,0,-7
1528278240674325,-2,-1,-5,-13,-5,-6,1,-2
1528278240689335,-1,-6,-5,0,-14,-5,-3,1
1528278240689335,0,2,5,15,27,17,4,3
1528278240690333,-1,-3,-6,-13,-3,-4,-1,-2
1528278240690333,-3,-3,-3,-4,-8,-3,-2,-2
1528278240702305,-1,-2,-4,-1,-3,-3,-1,-3
1528278240702305,-2,-1,2,-12,-5,-7,-5,1
1528278240711276,0,0,0,15,-2,-3,-1,-3
1528278240711276,0,0,-1,1,2,2,0,0
1528278240725194,-3,-2,-3,-3,3,4,2,-2
1528278240725194,0,-2,-2,-2,-9,-8,-6,0
1528278240734163,-1,0,-2,-8,-1,2,0,0
1528278240734163,-3,-1,3,4,-1,-2,-1,-4
1528278240749363,-2,7,-1,-2,2,0,-1,0
1528278240749363,-18,-4,-1,-8,-6,-5,-1,-1
1528278240751308,13,8,7,20,10,5,6,14
1528278240751308,-11,-6,1,1,0,1,2,-6
1528278240763280,-11,-6,-6,-6,0,0,-4,-5
1528278240763280,-4,9,3,5,-2,-4,3,3
1528278240771064,13,2,1,-8,-4,-2,-4,-8
1528278240771064,-49,-11,-4,-1,0,-1,-2,5
1528278240786072,1,0,-4,-7,1,4,1,-2
1528278240786072,0,-5,3,13,1,-1,-3,-3
1528278240793005,-27,-2,-7,-7,-7,-4,-5,-5
1528278240793005,26,2,5,17,12,3,5,4
1528278240808963,-7,-1,-6,-15,-13,-5,-4,-6
1528278240808963,-1,-3,-5,1,-1,-1,-3,2
1528278240810958,-6,-1,-1,-6,-3,-1,-2,-5
1528278240810958,16,1,-4,-5,-2,0,-2,-2
1528278240823182,-2,-3,1,-1,2,0,3,3
1528278240823182,16,1,1,9,-2,-5,-4,0
1528278240847955,-4,-7,1,0,2,1,2,-1
1528278240847955,0,4,-2,-6,-5,-3,-2,-4
1528278240848857,7,-1,0,0,4,1,2,3
1528278240848857,-3,-5,-6,-13,-6,0,0,0
1528278240853087,0,2,-3,-11,-5,-4,-2,-2
1528278240853087,0,-11,-3,3,-1,-1,-1,-2
1528278240868806,3,-1,4,9,2,-1,-4,-2
1528278240868806,0,1,-2,-12,-3,0,-2,-3
1528278240870797,3,-4,-4,-2,1,-1,1,2
1528278240870797,0,4,2,-3,-6,-2,-2,-3
1528278240882768,2,-6,-8,-3,-4,-2,0,1
1528278240882768,-13,-5,6,35,11,2,3,0
1528278240892011,7,11,-6,-6,-2,0,-2,-3
1528278240892011,11,5,19,-1,-1,0,3,5
1528278240906251,-5,-2,-3,3,-2,1,0,-1
1528278240906251,0,-4,-5,-14,-6,-2,-1,-1
1528278240913402,-5,-6,-2,1,-1,1,-1,-1
1528278240913402,-4,-2,-14,-12,-3,-4,-2,-5
1528278240929252,0,-4,-1,-7,1,-1,2,1
1528278240929252,5,8,8,27,6,-1,-2,-2
1528278240930250,-2,-6,-5,-8,-5,-4,-1,-2
1528278240930250,0,1,-2,-4,0,0,-1,-2
1528278240943428,0,-1,0,-5,-2,-2,-1,0
1528278240943428,-1,-4,-9,-15,-8,-5,-4,-4
1528278240951509,1,-1,6,15,7,0,-1,-1
1528278240951509,0,0,-8,-4,-5,-3,0,1
1528278240965479,-1,2,15,19,6,1,-2,-2
1528278240965479,3,-1,-8,-37,-8,-1,-1,0
1528278240974136,1,-5,-2,10,0,-2,-3,0
1528278240974136,0,-1,-6,-3,-2,-1,-1,-2
1528278240989092,-8,0,0,-18,-2,-1,-1,-3
1528278240989092,9,-1,0,34,4,-1,1,2
1528278240990090,-1,-4,-4,-25,-6,-1,1,0
1528278240990090,-2,7,-1,-11,-3,-6,-3,-5
1528278241012188,-8,-19,-4,5,0,1,1,0
1528278241012188,-2,-8,0,-8,-2,-4,-5,-4
1528278241013027,1,0,-2,-12,-8,-7,-7,0
1528278241013027,-2,1,4,16,7,2,3,0
1528278241024993,2,-3,-8,-6,-8,8,8,-2
1528278241024993,-3,7,7,2,-2,-26,-29,-7
1528278241034033,1,-4,1,12,-1,-20,-6,0
1528278241034033,3,-1,1,-2,6,36,23,5
1528278241047932,-2,1,-3,-32,-3,16,23,2
1528278241047932,-6,-4,-6,22,2,-6,-10,-6
1528278241064201,0,2,12,20,-2,-21,-27,-4
1528278241064201,6,-1,-8,-5,-5,0,17,5
1528278241071503,-3,-5,-1,13,9,28,9,0
1528278241071503,2,1,-9,-46,-16,-6,3,-2
1528278241073186,-9,-3,2,6,-3,-26,-28,-11
1528278241073186,1,4,-2,2,-3,-24,-8,0
1528278241085147,1,-1,2,15,17,44,35,10
1528278241085147,5,3,-2,3,12,31,17,5
1528278241094121,-3,-6,-5,2,-1,8,5,-3
1528278241094121,-11,-7,-13,-46,-24,-32,-33,-16
1528278241109084,-2,0,-7,-1,-17,-69,-40,-13
1528278241109084,2,3,7,4,-11,-37,-16,5
1528278241110082,9,15,8,6,20,44,54,16
1528278241110082,2,-6,3,4,19,94,39,8
1528278241132266,1,1,-3,4,5,2,-9,-3
1528278241132266,-7,-8,9,37,7,-9,-18,-10
1528278241133017,-14,-10,-7,-20,-19,-32,-21,-8
1528278241133017,13,5,0,-1,-13,-26,-8,0
1528278241144984,3,-7,-13,-29,-13,-17,-15,-5
1528278241144984,2,2,1,4,6,13,14,5
1528278241154066,-11,2,1,-5,2,10,6,-5
1528278241154066,4,-12,1,6,3,-7,-6,0
1528278241169272,2,6,5,16,7,1,-3,4
1528278241169272,-3,3,-1,-23,-6,-1,5,-1
1528278241170916,-2,-8,-2,10,4,16,7,-2
1528278241170916,-2,-1,-2,0,-2,-12,-15,-5
1528278241191859,0,4,3,5,-3,-14,-10,-1
1528278241191859,-11,-9,-6,-11,-2,19,24,0
1528278241192857,6,1,-6,-15,-10,-22,-25,-2
1528278241192857,2,-1,5,22,4,-32,-2,4
1528278241205930,3,4,6,6,25,77,41,11
1528278241205930,-2,1,-5,-8,0,10,2,-4
1528278241229758,-4,-7,-7,-7,2,12,2,-4
1528278241229758,-12,-1,-3,4,-10,-34,-24,-10
1528278241230755,0,0,1,-3,-13,-28,-13,-4
1528278241230755,0,-2,-3,-4,-2,2,2,2
1528278241232755,3,0,1,0,1,1,5,3
1528278241232755,-4,-2,-1,-1,-1,1,-2,-3
1528278241252060,-2,2,-2,-1,-4,-11,-4,-2
1528278241252060,3,-3,-1,0,1,7,2,0
1528278241253041,2,1,-3,-1,-3,-7,-2,0
1528278241253041,-4,1,0,-3,3,11,3,2
1528278241265849,-1,-2,0,6,-2,-5,-7,-3
1528278241265849,1,2,-2,-8,-3,-9,-5,-1
1528278241281776,1,0,0,-2,0,10,9,2
1528278241281776,-4,-1,-2,0,3,4,1,-2
1528278241288761,0,-1,-2,0,-4,-13,-7,-3
1528278241288761,0,-2,-3,-3,-5,-2,-4,-1
1528278241290759,0,-1,0,-1,0,8,5,0
1528278241290759,-1,-1,-1,1,1,5,0,0
1528278241311697,-2,-2,-1,-2,-4,-15,-9,-2
1528278241311697,-1,0,1,-2,-2,3,1,1
1528278241312939,2,-2,1,3,2,3,2,-1
1528278241312939,-4,-2,-1,-2,-1,-3,-3,-3
1528278241324979,0,0,0,-2,-4,-4,-2,-2
