timestamp,emg1,emg2,emg3,emg4,emg5,emg6,emg7,emg8
1529313551424340,-2,-3,-1,-22,-21,-19,-14,-5
1529313551424340,-2,-1,-10,7,3,3,11,0
1529313551425337,-1,-6,-8,1,6,2,1,3
1529313551425337,0,-1,-4,8,-16,-17,-9,-5
1529313551426335,-2,2,-6,-13,-10,-4,-2,-1
1529313551426335,-1,1,2,5,7,10,-3,-2
1529313551431321,3,5,5,0,0,-7,-1,-2
1529313551431321,-4,-5,-4,4,17,17,10,3
1529313551436307,0,4,13,2,-4,-12,-3,-1
1529313551436307,0,-2,15,-11,-22,-15,-11,-5
1529313551445283,-2,-5,14,-2,-13,-4,-10,-6
1529313551445283,-3,-4,8,-3,1,-7,2,0
1529313551451268,1,-5,4,10,12,11,4,2
1529313551451268,-3,-12,-25,-18,-16,-9,-9,-3
1529313551466228,2,2,-2,16,25,15,13,3
1529313551466228,0,-2,8,7,-4,4,-2,1
1529313551477198,1,0,-3,-4,-21,-28,-14,-5
1529313551477198,0,4,8,10,23,30,13,4
1529313551497145,-3,1,-5,-19,-2,-13,-3,0
1529313551497145,-2,2,-5,13,-8,-17,-11,-4
1529313551498142,-3,-7,-3,-17,-16,7,0,-2
1529313551498142,-2,-6,-6,-2,-9,-12,-3,-3
1529313551511107,-1,-3,-2,-2,-5,2,-1,-1
1529313551511107,2,2,-3,-2,16,9,7,3
1529313551552995,-2,-3,9,3,25,23,11,1
1529313551552995,1,1,-3,7,11,1,6,6
1529313551553994,-2,-3,-2,-10,-19,-8,-8,-5
1529313551553994,-3,-7,-12,-6,-8,-4,-10,-9
1529313551556986,4,6,0,13,21,-9,7,9
1529313551556986,-3,-4,-5,3,14,10,7,0
1529313551557984,-4,-2,2,7,0,11,3,1
1529313551557984,1,-3,-11,-30,-22,-7,-4,2
1529313551562969,-5,-3,-10,19,7,2,3,-3
1529313551562969,2,6,-16,32,25,5,-1,0
1529313551570948,-3,-9,-8,-50,-37,-12,-9,-3
1529313551570948,-1,-10,-6,-13,-15,-7,-3,-3
1529313551580930,-1,-6,-10,9,-3,-5,-5,-4
1529313551580930,1,-7,-11,-19,-19,-3,1,0
1529313551593887,0,-8,-27,20,3,0,-1,-3
1529313551593887,1,10,17,8,2,4,1,-1
1529313551600867,-1,4,7,-11,-3,-3,-4,-2
1529313551600867,-1,-1,-17,4,-11,-4,-8,-2
1529313551624805,2,7,-9,4,24,8,5,2
1529313551624805,2,6,-14,-28,6,3,0,0
1529313551630789,1,-2,1,0,-16,3,2,1
1529313551630789,-4,3,16,1,31,12,19,9
1529313551639764,1,-3,7,15,-14,-10,-9,-4
1529313551639764,-2,0,13,-6,6,-1,5,0
1529313551647744,-3,-20,-41,16,-2,0,4,0
1529313551647744,0,2,37,-58,-32,-17,-14,-7
1529313551662707,2,2,14,27,48,15,7,4
1529313551662707,-2,-20,-5,-9,-24,-15,-6,-2
1529313551663704,-2,-13,20,-25,-26,-6,-7,-5
1529313551663704,0,-11,-10,3,-7,-3,1,-2
1529313551684644,-3,-11,-8,31,27,2,1,0
1529313551684644,-3,15,7,-43,-43,-12,-11,-8
1529313551686639,2,7,69,0,10,1,-5,-1
1529313551686639,1,3,-22,36,5,3,2,0
1529313551698606,2,7,-29,-3,-3,-7,-3,0
1529313551698606,-2,9,40,22,27,8,2,-1
1529313551707587,-2,12,-19,-17,-5,-2,-4,-1
1529313551707587,10,12,-3,72,-6,-12,-17,-3
1529313551722544,-9,-7,-14,-104,14,27,20,1
1529313551722544,-7,-21,-42,52,12,0,4,0
1529313551723540,0,-19,-63,-14,-12,-8,-4,0
1529313551723540,-3,-24,13,22,-3,-3,-7,-5
1529313551744485,7,-20,4,-1,-21,-7,-13,-5
1529313551744485,-5,-34,-20,-3,21,4,17,9
1529313551746480,-1,-32,26,-5,4,0,-1,1
1529313551746480,-4,-40,-1,-40,-8,2,-2,-3
1529313551758486,2,-21,34,43,-9,-9,-2,-1
1529313551758486,2,-22,-23,-4,5,5,-4,0
1529313551767423,-4,-4,10,-35,-11,-6,-8,-4
1529313551767423,2,8,-17,0,1,-3,0,-2
1529313551782382,-5,-24,54,-20,-13,0,1,-1
1529313551782382,9,25,35,71,19,-3,-10,-3
1529313551784379,-12,-26,-41,-24,-31,12,10,-1
1529313551784379,-7,-35,-49,-75,-36,-11,-11,-7
1529313551804380,-10,-27,8,-27,-12,-12,-2,-5
1529313551804380,5,-5,-7,6,5,5,3,3
1529313551806320,0,-24,-5,31,7,-4,-10,-5
1529313551806320,6,-12,12,7,22,12,9,4
1529313551818289,0,10,11,39,-14,-22,0,3
1529313551818289,-6,-106,-25,-46,0,1,-6,-4
1529313551833285,2,-7,-26,21,11,7,4,3
1529313551833285,4,5,15,11,11,4,1,2
1529313551842225,1,51,-28,14,10,5,-2,0
1529313551842225,-9,71,-3,33,-14,-8,-5,-6
1529313551844220,4,64,2,-31,-13,-9,-5,-2
1529313551844220,-3,30,4,-6,-22,-14,-14,-5
1529313551864175,6,42,11,92,96,44,35,15
1529313551864175,-8,47,-70,-56,-27,2,-2,-6
1529313551866161,3,8,-17,47,-3,-10,-2,2
1529313551866161,-3,34,-71,-3,4,-13,-2,-1
1529313551878178,-8,15,11,3,-29,-8,-4,-4
1529313551878178,-1,5,-22,7,16,-2,-4,0
1529313551887104,-3,17,-2,-69,15,8,1,-2
1529313551887104,2,10,-24,2,-5,9,-1,-1
1529313551902063,1,3,-18,53,-7,-18,-7,-1
1529313551902063,1,-1,53,16,21,15,17,7
1529313551904058,8,10,-8,-58,4,1,-3,2
1529313551904058,-1,5,77,-52,14,9,4,1
1529313551925002,-22,-13,-2,-11,-51,-23,-21,-18
1529313551925002,2,11,32,28,-12,-10,-4,1
1529313551925999,-1,4,15,-8,-7,-8,-6,-4
1529313551925999,-3,-6,18,48,32,24,21,6
1529313551937969,4,0,-37,20,21,21,6,3
1529313551937969,-5,4,2,-77,-11,-6,-6,-5
1529313551946945,-6,2,10,23,-3,-3,-2,-2
1529313551946945,-2,-4,5,-10,-17,-11,-10,-6
1529313551962900,0,1,-12,-22,6,-4,3,1
1529313551962900,2,2,-11,33,19,10,2,4
1529313551975918,4,-5,27,56,16,11,3,4
1529313551975918,-7,3,-35,-2,-17,-13,-9,-5
1529313551984850,0,-2,2,-44,-16,-8,-10,-3
1529313551984850,2,5,-16,-27,1,2,1,1
1529313551986836,-2,-6,11,9,7,2,1,0
1529313551986836,-6,-4,19,18,-9,-3,-4,-5
1529313551998852,5,8,2,-32,-21,-12,-15,-3
1529313551998852,3,37,3,32,13,10,14,3
1529313552007796,-2,-19,5,9,6,-1,1,1
1529313552007796,-9,-12,-21,-18,2,-1,1,0
1529313552021795,1,10,-25,-26,-4,1,1,-2
1529313552021795,4,10,23,25,15,-1,-11,-3
1529313552023739,0,-34,-52,-30,-57,-8,0,-1
1529313552023739,-10,52,20,-1,5,1,2,-10
1529313552044683,15,46,19,7,2,-3,-5,29
1529313552044683,8,-55,-22,15,4,6,39,7
1529313552046677,-10,30,15,-10,2,-6,-14,-19
1529313552046677,16,5,-53,41,31,7,2,5
1529313552059642,-49,11,94,-49,-32,-21,-86,-55
1529313552059642,27,-44,-9,-40,-29,18,91,89
1529313552067622,0,-84,-93,8,5,-3,-31,9
1529313552067622,-22,-25,-53,-1,-18,-36,-64,-80
1529313552089561,-40,-67,-75,-9,17,-21,-22,-48
1529313552089561,-1,2,-3,-6,-16,-6,-37,-8
1529313552091556,-12,30,4,24,8,13,32,-6
1529313552091556,12,-55,-19,16,6,1,12,16
1529313552112503,-7,19,27,-26,-17,-1,-16,-14
1529313552112503,-24,7,13,0,-1,3,-11,-21
1529313552113499,26,16,20,23,7,4,38,43
1529313552113499,0,25,33,74,56,16,-17,-6
1529313552118485,17,-21,-81,4,17,16,41,19
1529313552118485,15,1,44,-37,-71,-11,-9,0
1529313552127461,-10,56,45,5,25,-8,-24,-19
1529313552127461,-4,46,40,54,54,-1,10,8
1529313552142420,34,-4,80,97,43,38,34,32
1529313552142420,-7,-11,-55,-67,-62,-7,-10,-6
1529313552143417,-11,4,-26,-72,-76,-35,-29,-22
1529313552143417,-7,-17,21,-37,-22,-3,4,5
1529313552172557,20,-5,-14,56,59,10,28,11
1529313552172557,-4,2,-52,75,68,-1,-31,-15
1529313552174334,-2,2,-44,12,6,2,1,1
1529313552174334,17,12,41,-21,-17,5,20,30
1529313552178324,-6,23,19,-41,-21,-8,-18,-51
1529313552178324,-14,8,13,5,-2,-4,2,2
1529313552187301,37,-10,16,9,20,11,13,51
1529313552187301,12,-17,-11,-12,-14,0,7,6
1529313552201303,9,-14,-18,-24,-25,-1,1,12
1529313552201303,-14,29,-21,-3,9,-6,-15,-32
1529313552208297,0,-16,51,28,14,9,12,-5
1529313552208297,-8,-26,-68,-28,-13,10,6,5
1529313552224201,1,14,60,1,-24,-10,4,10
1529313552224201,-1,10,14,27,24,-1,-12,-7
1529313552226203,-7,12,7,-8,7,-3,-10,-12
1529313552226203,-10,-11,-12,-9,-35,-17,-2,-3
1529313552238198,-6,-22,-46,-81,-21,-2,6,7
1529313552238198,3,-8,2,33,30,4,-1,-2
1529313552247142,-7,-4,-26,27,9,9,3,-6
1529313552247142,-2,3,0,-23,-7,-3,-2,0
1529313552262304,1,-13,-45,6,9,3,7,14
1529313552262304,13,35,-21,29,4,-7,-9,-5
1529313552268415,-10,-3,4,-22,-6,-8,-6,-14
1529313552268415,19,-3,-53,78,24,14,12,18
1529313552284578,-11,-22,-59,-85,-39,-2,-2,-2
1529313552284578,-3,1,26,-30,-8,-7,-6,-10
1529313552286342,-9,-32,-10,24,-17,-13,-8,-8
1529313552286342,-5,-18,-34,-68,-9,-1,1,1
1529313552316043,3,31,25,54,28,5,5,2
1529313552316043,-3,-12,25,14,12,3,-1,-5
1529313552318036,2,-7,-4,-9,4,3,2,0
1529313552318036,-13,8,94,-14,-22,-10,-10,-6
1529313552322266,5,2,-1,4,3,3,6,6
1529313552322266,-1,-34,-12,35,-24,-12,-4,2
1529313552324021,1,32,47,17,19,5,-3,-1
1529313552324021,-3,9,-27,-77,20,10,-1,-3
1529313552345225,-11,-34,-52,-41,-93,-33,-11,-4
1529313552345225,7,0,-6,73,35,9,5,6
1529313552346236,-2,11,-19,-54,5,6,0,-2
1529313552346236,-6,-2,37,-16,-2,2,2,-2
1529313552367502,8,-4,-45,38,21,4,2,8
1529313552367502,-2,15,76,-75,-17,-6,-4,-3
1529313552369178,-5,-8,-48,26,21,3,-4,-7
1529313552369178,1,0,-1,-38,-31,-8,-1,1
1529313552382389,-1,32,74,87,54,-1,-7,-5
1529313552382389,-8,-55,-128,-79,-50,-9,-3,-5
1529313552390147,-2,-9,-49,52,-27,-15,-2,0
1529313552390147,-7,-18,1,-90,-55,-19,-6,-6
1529313552405056,4,-6,-7,13,24,4,4,4
1529313552405056,1,37,36,95,40,3,-5,-4
1529313552406020,2,-22,3,35,13,8,2,-1
1529313552406020,-1,-1,16,19,-4,-3,-3,0
1529313552426994,-4,10,12,-5,-12,-7,-3,-2
1529313552426994,-3,-25,-12,-26,11,2,-1,-3
1529313552428960,7,2,-7,25,0,-5,-2,3
1529313552428960,-12,-7,-40,6,-22,-9,-5,-9
1529313552442957,5,1,3,-55,9,9,6,4
1529313552442957,0,-12,10,37,3,-4,0,2
1529313552443949,-2,2,34,-16,-9,-8,-9,-6
1529313552443949,3,-2,2,47,22,10,4,4
1529313552465217,0,-21,-35,10,-10,1,0,3
1529313552465217,-9,-4,-27,29,1,-12,-9,-6
1529313552466895,5,2,-19,-32,27,20,8,2
1529313552466895,2,-15,-11,22,-25,-6,-2,3
1529313552494528,-7,-2,9,-16,-36,-15,-6,-5
1529313552494528,1,8,11,23,15,-1,-1,1
1529313552504514,-9,-8,23,19,11,3,1,-4
1529313552504514,10,4,-24,-21,29,12,4,4
1529313552505761,-1,-9,17,-8,0,4,3,0
1529313552505761,2,-1,-61,-69,-6,-3,-2,-1
1529313552508755,-2,0,47,-48,-18,0,-1,-3
1529313552508755,0,9,22,30,11,0,-2,0
1529313552532438,-1,-5,32,36,7,2,2,0
1529313552532438,-5,-2,-20,-14,-4,-1,-5,-6
1529313552533701,1,5,8,-70,-11,-7,-2,-1
1529313552533701,3,2,11,65,44,12,5,2
1529313552547690,-1,-26,-56,-21,-13,-2,-4,-2
1529313552547690,2,9,14,-14,-18,0,1,1
1529313552548688,-6,-18,-23,12,-17,-10,-6,-2
1529313552548688,-1,-6,-8,3,1,0,4,-1
1529313552568929,-1,10,2,23,22,11,3,2
1529313552568929,0,-16,-26,-8,6,1,2,2
1529313552576957,-1,-6,-19,2,-2,-2,-2,-1
1529313552576957,1,10,32,-11,-12,-9,-7,-3
1529313552591886,4,22,9,-5,3,4,4,2
1529313552591886,-3,-3,7,-14,1,6,2,-4
1529313552591886,-1,-14,-1,20,-1,-6,-3,1
1529313552591886,-10,-24,29,-12,-10,0,-10,-12
1529313552614803,-4,-5,21,-6,5,8,6,-3
1529313552614803,9,12,38,-8,-1,-3,-4,-2
1529313552615801,-6,50,19,-3,-7,-8,2,3
1529313552615801,-15,1,-26,2,-4,-1,-21,-60
1529313552628765,2,-30,-63,-7,2,5,23,75
1529313552628765,26,-15,24,-11,-5,1,18,18
1529313552629762,-62,57,90,15,-1,-3,-37,-105
1529313552629762,27,-69,-109,-2,6,17,55,-11
1529313552651756,52,-36,-34,15,12,4,27,17
1529313552651756,-27,29,104,-12,-10,-5,26,-70
1529313552652753,13,-50,-101,-7,-7,-4,-14,24
1529313552652753,-17,51,81,3,-10,-12,-21,-29
1529313552666717,-3,33,52,-3,-4,-5,-26,-25
1529313552666717,8,-9,-23,1,3,6,-13,37
1529313552667712,-3,-7,-26,-12,-12,-9,1,-17
1529313552667712,11,37,-13,8,2,0,6,30
1529313552688639,-7,-12,25,-6,-10,-10,-14,-2
1529313552688639,-14,13,30,3,0,-1,-12,6
1529313552689636,1,4,17,5,8,2,7,6
1529313552689636,16,92,3,25,21,1,-7,19
1529313552711602,1,2,31,49,62,14,-3,-2
1529313552711602,-30,-38,-19,-99,-91,-43,-24,-36
1529313552712601,13,-9,66,20,19,5,13,22
1529313552712601,-3,-12,24,-28,-15,-8,-5,20
1529313552726555,-14,7,-16,40,24,-1,-1,-25
1529313552726555,5,21,13,26,36,21,8,9
1529313552727555,19,38,46,-8,9,5,1,13
1529313552727555,-14,-14,11,-8,-21,-4,1,8
1529313552749497,-16,-12,0,-23,-30,-9,-11,-22
1529313552749497,9,-22,-44,20,12,0,-1,9
1529313552749497,11,-15,-23,19,-1,1,5,15
1529313552749497,-4,-19,-41,4,14,0,-5,-8
1529313552771437,-1,4,23,-29,-12,-6,-5,-11
1529313552771437,-1,1,4,1,-9,2,-1,6
1529313552772382,-3,-19,-52,-17,2,-1,2,-4
1529313552772382,2,-25,-13,18,2,2,4,7
1529313552786397,-2,-1,-28,-29,-24,-7,-4,-1
1529313552786397,-2,-2,9,15,25,3,-6,-1
1529313552787341,2,-8,-27,4,-7,8,6,4
1529313552787341,0,-12,20,-17,-20,-6,-3,3
1529313552809339,-3,-8,-37,8,0,-3,-3,8
1529313552809339,0,14,17,20,18,4,-1,-6
1529313552810291,-3,-33,-69,-47,-26,-7,-1,1
1529313552810291,5,4,-26,30,18,3,1,9
1529313552839256,-10,-5,-51,18,3,6,1,-11
1529313552839256,-15,-46,-46,-49,-30,-16,-12,-12
1529313552840199,3,12,17,30,23,9,8,10
1529313552840199,-11,-21,-24,-47,-7,-7,-7,-6
1529313552846183,5,16,35,48,25,6,1,-2
1529313552846183,3,8,-11,-21,-10,-1,-1,3
1529313552847180,1,-3,6,21,8,1,0,-1
1529313552847180,-5,13,48,-5,5,2,-6,-5
1529313552869122,0,12,16,26,20,3,0,-3
1529313552869122,-2,7,18,-47,-12,1,-1,1
1529313552870156,-1,-32,-60,-39,-69,-21,-7,-2
1529313552870156,-3,-20,-19,-2,1,-11,-4,0
1529313552892098,0,28,64,55,5,8,2,-2
1529313552892098,0,-28,-9,-1,16,4,1,-1
1529313552893073,5,30,51,78,35,2,3,3
1529313552893073,-10,-5,-6,-13,-14,-9,-7,-6
1529313552907057,-3,-31,-56,-83,-50,-10,-2,-3
1529313552907057,12,13,3,40,34,10,9,8
1529313552907057,-1,-22,-42,-9,32,3,-2,0
1529313552907057,-6,-10,58,37,6,5,-3,-3
1529313552929461,-9,-45,-86,-82,-76,-31,-12,-8
1529313552929461,4,21,14,43,16,8,3,3
1529313552930469,3,2,-23,-25,-13,-2,1,3
1529313552930469,10,33,39,45,63,12,6,6
1529313552952468,-12,-32,-8,-32,-16,-6,-8,-9
1529313552952468,4,4,-22,36,1,-1,2,3
1529313552953466,-2,-5,10,-39,-13,-3,-2,-3
1529313552953466,0,-8,-53,41,-4,3,3,1
1529313552966432,6,-5,-31,65,21,8,4,2
1529313552966432,-6,-1,-1,-50,-3,-3,-7,-5
1529313552967428,-5,-11,1,-2,-12,-2,-4,-6
1529313552967428,1,-20,-33,-15,-15,-1,3,3
1529313552989363,-1,16,-10,-77,4,-1,-1,-2
1529313552989363,-4,-18,-29,55,-6,-12,-4,-1
1529313552990046,-4,-18,7,8,-4,5,-1,-1
1529313552990046,0,9,11,-30,-20,-3,-3,-1
1529313553012501,8,60,-17,-14,23,-4,-8,-4
1529313553012501,-7,-12,-51,-45,-22,-8,-5,-5
1529313553013499,-3,-1,11,9,2,3,2,4
1529313553013499,0,0,-1,2,8,-1,-1,-1
1529313553026708,1,-1,-15,24,6,3,-2,-3
1529313553026708,-1,0,-25,-2,7,4,1,-2
1529313553027471,-6,9,-10,8,-18,-10,-3,-3
1529313553027471,0,-8,-45,-68,-22,-6,-3,-1
1529313553049439,-7,-43,17,-4,4,-1,-1,-1
1529313553049439,-4,2,40,54,-10,-6,-4,-3
1529313553056642,7,7,11,39,55,20,10,6
1529313553056642,-8,-18,-21,10,-31,-12,-10,-6
1529313553072906,-3,4,-5,-25,-23,-4,7,2
1529313553072906,1,21,10,-23,5,-4,-1,0
1529313553072906,-3,-14,-29,28,16,10,2,-1
1529313553072906,3,-2,28,7,8,-1,4,2
1529313553087437,-3,13,46,52,8,-1,-1,-1
1529313553087437,3,7,25,2,7,3,1,1
1529313553087437,-1,-11,10,-4,-12,-5,-3,-1
1529313553087437,3,11,17,-21,-7,2,0,2
1529313553108943,-1,-6,-11,59,36,5,2,2
1529313553108943,-7,-26,-18,-69,-44,-9,-5,-4
1529313553109940,1,36,38,-45,-3,-10,-5,-2
1529313553109940,-6,-10,-8,15,-12,-7,-3,-4
1529313553140169,1,8,15,0,0,1,-1,-1
1529313553140169,2,23,80,54,27,11,2,1
1529313553140169,-1,22,2,-42,-19,-8,-7,-4
1529313553140169,-1,-19,9,0,10,6,6,2
1529313553147259,2,34,31,-6,8,4,4,0
1529313553147259,4,14,15,20,13,10,9,4
1529313553148179,4,-17,-9,11,-24,-10,-4,-1
1529313553148179,-2,12,16,-12,16,1,-2,-2
1529313553169404,2,18,13,-20,-25,-4,-2,0
1529313553169404,-5,-17,-15,-3,-4,-7,-2,1
1529313553170090,-6,18,-8,2,-2,-5,-12,-5
1529313553170090,2,4,-9,19,11,5,-1,-1
1529313553199673,-12,-1,31,-3,-2,-9,-7,-13
1529313553199673,31,-12,-10,10,11,23,-42,40
1529313553200322,-5,-68,-66,-25,-3,-2,-18,-23
1529313553200322,-17,-7,16,-8,-16,-19,-20,16
1529313553206837,-19,13,26,-18,-2,-8,-7,-73
1529313553206837,39,-7,-8,19,7,9,-34,65
1529313553214078,6,-17,-11,0,-9,-6,34,-6
1529313553214078,-31,-45,-43,-16,-13,-8,-35,-39
1529313553229043,22,-4,-34,-2,10,10,38,7
1529313553229043,-37,-24,20,24,25,-7,-30,-36
1529313553229778,-9,-39,9,-15,-22,-9,-35,-25
1529313553229778,10,14,-52,-37,-33,-18,36,30
1529313553251975,-31,-35,-12,-20,-24,-4,65,-5
1529313553251975,28,19,-31,36,59,17,23,15
1529313553251975,26,55,41,57,46,25,8,12
1529313553251975,-13,-24,-29,-66,-67,-12,11,-68
1529313553267010,-6,6,-25,-3,-8,-25,-41,111
1529313553267010,-5,-21,-63,39,14,-16,7,-9
1529313553267010,-24,-12,26,2,56,4,-12,-7
1529313553267010,-2,-26,-44,-56,-56,-24,-19,-5
1529313553289157,15,25,65,-34,-3,7,-23,-35
1529313553289157,-13,8,-61,-6,-35,-18,16,1
1529313553289915,-4,41,73,17,15,6,14,90
1529313553289915,12,15,82,42,33,22,21,-29
1529313553312259,12,-49,-88,-6,10,10,-36,-54
1529313553312259,-17,13,-47,8,-11,-5,23,-64
1529313553312259,-36,-14,62,-33,-37,-12,5,40
1529313553312259,37,-9,15,31,35,24,9,27
1529313553326819,-15,3,9,7,-4,-8,-20,-6
1529313553326819,-13,-54,8,-24,-6,-7,-7,-46
1529313553327439,25,47,-69,-2,-23,17,20,-16
1529313553327439,-8,0,-8,7,23,1,-7,0
1529313553349756,-1,-36,-46,12,12,8,2,18
1529313553349756,-1,11,-1,-99,-42,-13,-6,0
1529313553349756,6,-20,-28,8,3,-6,5,-9
1529313553349756,7,14,20,58,61,15,9,32
1529313553371890,11,2,-2,42,27,13,13,0
1529313553371890,-17,-19,-35,-63,-80,-25,9,3
1529313553372883,2,26,0,4,1,-4,-11,-21
1529313553372883,0,6,-24,28,13,11,-2,-7
1529313553385585,5,2,29,34,34,5,4,6
1529313553385585,-6,16,31,-9,4,6,1,-17
1529313553394928,1,-20,-42,-11,-5,-11,-5,-22
1529313553394928,-1,35,34,25,5,-1,-8,21
1529313553409774,3,-33,-7,-16,-19,-3,7,24
1529313553409774,-2,4,51,33,12,10,11,-2
1529313553409774,4,-2,-22,-16,-3,0,16,8
1529313553409774,4,23,22,16,11,4,4,12
1529313553432472,-2,21,18,-10,-16,-8,-12,-13
1529313553432472,-1,12,15,-18,-6,-1,5,1
1529313553433459,-1,17,6,2,7,-1,-7,-13
1529313553433459,-3,-7,-5,-19,-23,-8,-7,-10
1529313553446760,1,4,-1,12,12,-1,0,7
1529313553446760,5,7,18,5,-9,4,-1,-1
1529313553447422,-3,-12,15,-6,-11,-4,-4,-13
1529313553447422,-1,5,-3,12,-1,-2,-3,2
1529313553469398,0,23,-6,-25,-6,-4,-4,-9
1529313553469398,-5,-38,28,37,39,10,9,8
1529313553469398,-3,-17,-29,-26,-25,-4,-7,-8
1529313553469398,-1,21,12,-19,-8,-6,-3,-4
1529313553492664,-9,-35,-16,-6,-21,-8,-5,-9
1529313553492664,3,8,-18,24,22,5,8,19
1529313553493298,3,-8,-6,17,2,4,1,-3
1529313553493298,-5,-9,10,-1,-2,-2,-3,1
1529313553506588,1,-5,-6,16,-4,-3,2,-2
1529313553506588,-2,-1,4,-15,-10,-6,-6,-3
1529313553514633,-4,-3,13,-20,-3,-7,-6,-10
1529313553514633,0,0,-17,1,3,1,2,1
1529313553529529,2,2,-13,-4,-4,1,-3,-2
1529313553529529,2,2,-25,18,5,1,1,0
1529313553530199,3,6,1,26,18,5,4,1
1529313553530199,-6,-10,-24,-54,0,0,-4,-8
1529313553560390,-3,-9,-6,-21,-23,-8,-2,3
1529313553560390,3,0,-1,5,1,-1,0,-2
1529313553560390,-3,1,7,16,23,6,-2,-3
1529313553560390,2,-30,-45,3,-18,-2,0,0
1529313553575387,1,6,5,-4,-8,-2,1,-2
1529313553575387,-5,72,10,-24,-13,-6,-4,-4
1529313553576079,4,127,51,99,59,9,1,0
1529313553576079,-1,67,-5,-25,-34,1,1,-3
1529313553590231,-2,-101,7,8,-17,-13,-3,0
1529313553590231,-4,-103,17,13,-1,-6,-4,-8
1529313553591042,-3,-88,-46,-12,-1,-3,-3,-1
1529313553591042,2,-128,28,44,38,11,2,1
1529313553613028,1,-82,-12,-16,-2,6,1,2
1529313553613028,1,-64,-28,-10,8,1,-1,2
1529313553613028,2,-84,-2,-14,-10,1,-2,-1
1529313553613028,-3,-79,-20,15,2,-5,-2,-2
1529313553625952,-1,-24,-27,-40,-17,2,2,1
1529313553625952,1,-13,-13,26,7,0,0,1
1529313553633928,-4,-70,-29,-38,-19,-9,-5,-3
1529313553633928,-3,-16,-49,-7,-18,-8,-4,-3
1529313553649887,-3,22,3,-8,4,-1,-3,-1
1529313553649887,1,-29,15,6,16,12,4,2
1529313553649887,-3,-25,-9,-12,-16,-1,-1,0
1529313553649887,2,6,13,33,17,0,-1,0
1529313553671827,-2,8,13,-13,-18,-6,-4,-3
1529313553671827,-1,-17,-12,-5,-10,-1,5,1
1529313553672824,-2,-10,2,-3,-13,-3,-2,-1
1529313553672824,-3,10,26,24,10,0,-1,-5
1529313553685789,0,-8,-8,22,18,1,1,1
1529313553685789,1,-1,7,-9,-9,-6,-7,-4
1529313553693800,-2,4,-9,-4,-4,2,0,0
1529313553693800,1,-8,12,1,7,4,1,0
1529313553709852,0,1,-17,-7,-4,1,1,-1
1529313553709852,-2,3,-20,-8,-4,-3,-1,-3
1529313553709852,1,-4,10,2,-4,-2,1,-1
1529313553709852,-1,-6,-5,-15,-3,-5,-2,-1
1529313553731966,0,4,-7,5,-4,-2,-6,-3
1529313553731966,-1,4,-6,-2,-2,5,-1,-2
1529313553732964,-3,-10,-12,13,18,4,18,7
1529313553732964,0,0,-17,-13,-8,-3,-2,-2
1529313553745950,-4,8,-23,5,8,2,0,-2
1529313553745950,0,-5,13,-6,-13,-10,-11,-4
1529313553754235,0,-5,-17,-13,-11,-4,-4,-3
1529313553754235,0,2,-5,2,4,0,1,-1
1529313553769197,0,2,9,14,13,6,5,0
1529313553769197,0,-4,-20,-6,-1,-3,-3,-2
1529313553770198,-3,-2,-15,-10,-11,-4,-5,-3
1529313553770198,1,2,14,-1,-5,-5,0,0
1529313553792135,-2,-2,1,5,0,-3,-11,-29
1529313553792135,0,0,8,-6,-5,-6,8,32
1529313553793133,5,0,10,0,-6,-5,1,7
1529313553793133,-4,-2,-23,-5,5,14,1,-6
1529313553815077,0,0,7,3,8,5,2,3
1529313553815077,-2,-39,-17,-1,-2,-4,-4,-16
1529313553815077,0,-62,-5,-7,-17,-8,-7,4
1529313553815077,-1,-67,30,4,10,-2,2,-1
1529313553829040,4,-72,31,4,4,0,5,6
1529313553829040,0,-17,30,-2,-2,-3,-5,-5
1529313553830034,-3,73,-14,-3,3,8,1,-4
1529313553830034,-2,62,28,-1,-5,-7,-5,-3
1529313553852253,-2,76,46,-2,-6,-9,-5,2
1529313553852253,-1,49,2,6,11,15,10,0
1529313553853021,-2,8,39,-3,0,-3,-6,-10
1529313553853021,0,-6,-42,-1,-2,-2,1,3
1529313553875059,-1,-26,-62,2,2,-1,-1,3
1529313553875059,-3,-18,-37,-11,-16,-10,-6,-6
1529313553875059,1,-14,58,3,-1,0,-1,0
1529313553875059,-2,-26,54,-2,4,1,0,0
1529313553889058,2,-43,6,3,6,-1,-1,2
1529313553889058,-1,-38,-4,-2,-10,-2,0,-4
1529313553890018,-2,-41,8,-14,-8,-5,-5,-1
1529313553890018,1,-33,-43,-3,-6,-11,-8,1
1529313553911959,-1,-16,-6,4,10,11,4,0
1529313553911959,0,-4,3,0,-5,-5,-3,-1
1529313553912966,-4,-16,-35,-4,-4,-6,-6,-5
1529313553912966,0,-4,-16,8,14,12,13,6
1529313553934902,1,3,-7,2,1,-2,-1,1
1529313553934902,-1,-1,6,8,4,-1,-1,-4
1529313553935909,-2,-18,-39,-11,-15,-8,-3,-2
1529313553935909,0,3,-7,-6,-7,-5,-5,-3
1529313553948860,-3,-11,31,0,4,3,2,2
1529313553948860,-3,-3,-22,2,1,0,-1,0
1529313553949857,-2,-1,-31,-3,-8,-5,-2,-5
1529313553949857,-1,7,-42,1,-2,0,-2,0
1529313553971799,-1,11,-45,-3,-3,-3,1,2
1529313553971799,-1,2,-24,-4,-1,0,-1,-2
1529313553972796,-1,2,18,5,6,2,2,0
1529313553972796,0,6,36,-3,-3,-1,-1,2
1529313553994742,0,12,35,-3,-9,-6,-3,1
1529313553994742,0,8,25,2,4,0,-1,-2
1529313553995735,4,20,32,8,7,3,2,0
1529313553995735,-1,5,-13,0,-5,-4,-4,-2
1529313554009080,-3,5,-14,-6,-9,-5,-4,-3
1529313554009080,-1,5,-3,2,4,2,1,1
1529313554009714,0,2,-21,-3,0,0,-1,1
1529313554009714,0,3,1,-9,-10,-4,-4,-3
1529313554032883,0,10,19,3,3,0,-1,1
1529313554032883,1,9,29,7,8,3,2,-1
1529313554033807,-3,0,13,-8,-6,-3,-2,-2
1529313554033807,-1,5,20,-3,-4,-2,0,-2
1529313554054824,-1,9,9,-1,0,1,1,0
1529313554054824,-2,5,-4,-4,-2,-4,-2,-2
1529313554055575,-1,5,-2,5,1,0,-1,-3
1529313554055575,-2,5,-11,-4,-4,-2,-1,-2
1529313554069770,-3,7,-4,-4,-2,-2,-2,-1
1529313554069770,0,3,2,0,1,0,-4,-1
1529313554069770,-3,-2,-4,1,-2,2,-4,-1
1529313554069770,-1,4,-4,-1,2,4,0,-1
1529313554092710,-4,-1,-33,-9,-5,4,-1,-3
1529313554092710,-3,-1,-24,-11,-4,13,1,-2
1529313554093745,1,6,-2,4,2,12,5,1
1529313554093745,-2,1,-11,-4,-1,3,0,-1
1529313554114896,2,8,15,1,-1,-1,2,-2
1529313554114896,1,6,17,-1,-2,-2,0,0
1529313554115649,-1,4,5,-5,-2,-3,-2,-1
1529313554115649,-1,3,3,5,0,-2,-3,-2
1529313554129755,1,3,-1,-4,-4,-1,-1,2
1529313554129755,-3,4,-11,-2,1,-5,-1,-2
1529313554129755,-2,1,1,1,-1,-8,-3,-1
1529313554129755,-1,-1,19,0,-1,-9,-3,-2
1529313554152661,0,-3,2,2,1,-5,-2,-1
1529313554152661,0,0,-13,0,0,-9,1,-1
1529313554153729,0,-1,-21,0,-1,-15,-2,-1
1529313554153729,0,1,-5,-4,-2,-15,1,-1
1529313554175602,-1,2,2,1,1,-13,-2,-1
1529313554175602,0,1,3,0,-2,-4,-2,0
1529313554176355,-3,1,-3,0,1,5,-2,-2
1529313554176355,-2,-1,2,-5,-2,7,-2,0
1529313554189580,-1,2,4,2,1,5,0,-3
1529313554189580,-2,1,7,3,1,8,0,0
1529313554189580,0,0,5,0,0,1,-1,-1
1529313554189580,-2,0,-4,-1,-1,0,-2,-1
1529313554212564,-1,-4,-2,0,-1,-5,-1,0
1529313554212564,-1,-1,4,1,1,-7,-1,-1
1529313554213769,-2,-1,1,-2,-2,-7,0,0
1529313554213769,-2,0,-11,-1,-2,-4,-2,-1
1529313554235212,0,1,-2,1,1,-2,1,0
1529313554235212,-1,-2,-1,-2,-3,-2,0,-2
1529313554235898,0,1,-2,-2,1,2,0,-2
1529313554235898,0,0,-6,2,-2,1,2,0
1529313554249025,-1,1,-12,0,-1,5,-1,1
1529313554249025,-1,-1,-3,-1,0,1,-2,0
1529313554257838,-1,-1,2,1,-2,1,-2,-1
1529313554257838,0,3,9,5,1,4,0,1
1529313554272940,-3,-2,3,-1,-3,2,-2,-3
1529313554272940,-1,-3,-2,0,-1,1,0,0
1529313554273795,1,2,7,-1,-1,0,-1,-1
