timestamp,emg1,emg2,emg3,emg4,emg5,emg6,emg7,emg8
1529563070693538,0,-1,-4,-1,-5,0,-1,-2
1529563070693538,-1,-2,-2,-3,1,5,4,-1
1529563070693538,-1,-2,-2,-5,-13,-4,0,-1
1529563070693538,-1,2,-1,-1,3,-5,-5,0
1529563070716474,-1,0,1,1,-8,-6,-2,1
1529563070716474,0,0,0,0,1,-2,2,0
1529563070717472,-3,-3,-2,2,11,7,1,0
1529563070717472,1,0,-1,3,12,9,1,1
1529563070730437,-3,0,-2,-5,-17,-5,-3,-1
1529563070730437,-3,-1,-3,-4,-10,-2,1,0
1529563070731434,1,0,-2,3,15,-5,-3,0
1529563070731434,-1,-1,-2,-5,-8,4,1,-1
1529563070753376,-2,-2,-4,-2,9,-4,-4,-3
1529563070753376,0,1,1,-2,-10,-11,-5,-1
1529563070754373,-1,-1,1,0,-11,5,7,0
1529563070754373,0,-2,1,4,23,1,0,1
1529563070776315,-3,-3,2,-3,-27,1,-2,-4
1529563070776315,-2,-1,-3,-1,6,-5,-8,-2
1529563070777313,-2,-1,0,5,10,-6,-5,-1
1529563070777313,-2,-2,-5,-8,-22,0,2,-1
1529563070790277,-2,-3,2,-8,13,-1,-2,-3
1529563070790277,-1,-2,-1,5,13,3,-5,-2
1529563070791275,0,-2,-2,-1,-33,1,7,0
1529563070791275,-1,-1,1,4,6,-5,-3,-2
1529563070813216,-1,-2,-3,12,13,1,5,2
1529563070813216,0,0,0,-10,2,8,-4,-2
1529563070814215,0,-1,-6,-2,14,-5,-5,-3
1529563070814215,0,-1,0,-3,-25,-5,1,0
1529563070836193,-1,0,1,8,-25,-5,1,2
1529563070836193,-3,-3,1,32,41,1,3,-2
1529563070837153,0,0,-1,-24,-31,0,-4,-1
1529563070837153,-1,-2,-2,-26,-12,-10,-6,-2
1529563070851161,1,0,-9,3,13,-9,-2,-2
1529563070851161,-2,0,16,-2,17,21,11,2
1529563070851161,0,-2,3,9,-13,-9,-5,0
1529563070851161,0,-1,3,3,-19,-8,4,1
1529563070873058,2,2,4,0,26,13,-5,-2
1529563070873058,-1,-2,-6,17,0,2,4,0
1529563070874055,-1,-2,-5,-11,6,5,2,1
1529563070874055,-2,2,7,-5,5,5,-3,-2
1529563070895996,-4,-2,-3,-5,-15,-14,-2,-2
1529563070895996,1,-3,-7,-8,-12,-13,-5,-4
1529563070896992,0,1,3,-9,-2,3,0,0
1529563070896992,-1,-1,-7,7,5,7,8,5
1529563070910954,-3,-1,0,5,12,0,-1,0
1529563070910954,0,-1,-10,-9,12,4,-1,0
1529563070911987,-2,1,33,21,-7,-7,-6,-2
1529563070911987,-1,-4,-19,-15,-14,5,3,2
1529563070932899,1,-2,-6,-33,5,-1,4,0
1529563070932899,0,1,16,-7,-52,-21,-8,-3
1529563070933895,-1,-4,-30,-8,41,21,3,-1
1529563070933895,-2,-5,10,29,28,7,-5,-2
1529563070956832,-1,0,10,5,-21,1,4,1
1529563070956832,0,0,-6,-12,-4,-2,-1,0
1529563070956832,-1,1,1,10,-23,-28,-8,-2
1529563070956832,-2,1,1,2,37,12,-1,-2
1529563070970794,0,-2,-10,-10,-37,1,1,-1
1529563070970794,0,-1,2,7,7,-8,-3,-2
1529563070971795,-1,-2,-4,-10,6,-1,2,-2
1529563070971795,-2,-2,-6,-1,-22,-8,-1,-1
1529563070992738,1,-1,4,6,11,-3,-2,0
1529563070992738,-2,-2,-15,-16,-18,-1,-4,-2
1529563070993734,-1,0,12,17,-2,-9,-2,-2
1529563070993734,1,1,-1,-17,0,2,-4,-3
1529563071016674,-3,-1,0,14,17,11,2,-2
1529563071016674,0,0,-3,3,-13,0,4,3
1529563071017670,0,0,-10,1,23,1,-3,-1
1529563071017670,-1,-1,-2,1,-28,-15,-6,-4
1529563071029678,-1,0,11,21,7,-12,-6,-1
1529563071029678,-3,-6,-39,-15,23,30,8,2
1529563071038660,-3,0,17,-14,-37,-14,-3,-1
1529563071038660,1,0,-1,2,10,-15,-5,-3
1529563071053624,0,-1,2,30,6,11,-1,-1
1529563071053624,-1,-1,8,11,-2,1,1,0
1529563071053624,-1,0,-13,-31,7,19,3,0
1529563071053624,-1,-2,-9,2,-5,-9,-4,-3
1529563071076556,0,-2,0,-14,5,-4,-3,-1
1529563071076556,2,6,10,5,9,-7,-2,0
1529563071077509,-3,-3,-12,-3,-8,6,1,0
1529563071077509,2,2,15,19,5,-4,0,0
1529563071090475,-2,-1,-9,-20,1,4,0,-2
1529563071090475,-1,0,-1,-18,-24,-4,3,2
1529563071098455,-1,-3,7,20,18,1,-2,-1
1529563071098455,0,-1,-5,-19,-21,-4,1,0
1529563071113416,-2,0,0,-4,19,3,1,-3
1529563071113416,1,-1,6,34,7,9,0,3
1529563071114437,-1,1,3,13,-2,-3,0,-1
1529563071114437,-1,-3,-2,-9,6,0,0,-1
1529563071137350,-3,0,9,-12,-25,-15,-5,-3
1529563071137350,-4,-7,-28,-29,-39,-6,-2,-2
1529563071137350,0,1,-4,16,3,4,3,0
1529563071137350,-1,5,12,22,9,-2,-6,-3
1529563071150316,0,-5,1,1,6,9,8,6
1529563071150316,-2,-2,-5,-54,8,-10,-5,-3
1529563071158295,1,2,3,-7,10,6,1,1
1529563071158295,-2,-2,1,-15,-50,-4,1,-1
1529563071173253,-2,4,1,6,7,-6,-4,-3
1529563071173253,-2,1,13,35,-3,-4,-5,-3
1529563071174250,1,-3,-14,-19,-4,0,4,3
1529563071174250,-2,4,15,16,13,-4,-6,-2
1529563071196193,-1,-8,-16,11,21,16,5,0
1529563071196193,-1,2,9,-11,-9,-11,-6,-6
1529563071197192,-1,-2,-7,-31,-12,3,0,-2
1529563071197192,1,2,6,49,24,7,3,3
1529563071210156,-1,1,-13,-3,-23,-14,-5,1
1529563071210156,2,0,7,1,42,5,-1,-1
1529563071219132,-4,-4,-10,8,-28,-5,-7,-5
1529563071219132,0,-2,1,-23,-5,-1,-1,-3
1529563071232096,-1,-1,-4,0,0,5,4,0
1529563071232096,-2,0,8,31,-5,-10,0,2
1529563071241072,0,14,6,1,8,-15,-4,-1
1529563071241072,-1,-5,8,13,42,42,7,3
1529563071256037,-4,-10,-10,8,-13,-11,-6,-3
1529563071256037,-2,3,9,0,-8,-13,-5,-4
1529563071258027,2,0,-2,-42,-29,4,4,3
1529563071258027,-7,-5,1,33,17,-11,-8,-6
1529563071269995,0,-2,-21,-26,-13,-2,-4,0
1529563071269995,-3,-1,14,-4,3,-2,-2,-3
1529563071278971,0,1,5,71,8,0,-4,-3
1529563071278971,1,-13,-17,-59,-19,-6,0,3
1529563071292933,0,1,13,-24,9,-1,-3,-2
1529563071292933,0,-4,-11,-1,-14,-9,-2,2
1529563071301909,-2,-5,-1,34,13,10,3,-1
1529563071301909,1,5,-19,-17,28,4,4,4
1529563071317052,-6,-4,8,62,-21,1,-2,-3
1529563071317052,3,9,0,-26,-20,-8,-5,-2
1529563071317867,0,-6,-13,-12,37,-14,-3,-3
1529563071317867,0,-10,-32,-12,-82,-12,1,1
1529563071329835,6,9,18,-66,53,43,8,4
1529563071329835,-6,1,19,91,31,-3,-6,-6
1529563071338991,-7,-9,-21,-19,-61,-49,-11,-6
1529563071338991,0,1,-10,10,38,61,8,1
1529563071352776,2,2,12,-33,-1,-25,-8,-1
1529563071352776,5,-5,-17,12,-19,26,14,6
1529563071361752,4,13,23,0,7,9,-5,0
1529563071361752,-7,-11,-2,16,55,-32,-6,-5
1529563071376710,0,5,-5,-24,-21,-7,-3,-2
1529563071376710,1,2,11,6,21,4,-1,-1
1529563071377708,-4,-10,-35,-8,-4,-3,2,-2
1529563071377708,3,14,56,0,-31,-26,-7,-4
1529563071389858,-5,-25,-55,17,-16,7,-2,-2
1529563071389858,-3,-6,-19,-16,21,-19,-5,-5
1529563071398832,5,6,19,-12,36,45,8,6
1529563071398832,2,10,20,-11,-41,-23,-6,-1
1529563071412977,-1,-1,-2,53,31,14,-1,-4
1529563071412977,-2,-2,-9,-43,-51,4,1,-1
1529563071420152,-1,-4,6,11,32,2,-1,0
1529563071420152,-2,-5,-25,1,-9,15,5,1
1529563071436344,-2,3,10,14,-36,-33,-6,-3
1529563071436344,1,4,8,-8,23,10,5,1
1529563071438161,1,-1,-22,1,13,21,2,2
1529563071438161,-7,7,21,-42,-31,-37,-10,-5
1529563071459675,-2,-4,3,15,25,6,2,-3
1529563071459675,3,7,-6,-25,-1,19,7,3
1529563071460670,-3,-2,4,22,-8,-10,-4,-3
1529563071460670,-1,-1,-8,6,1,-17,-3,-5
1529563071473634,2,-2,-23,-24,9,24,6,4
1529563071473634,-2,-2,23,4,10,-3,-5,-2
1529563071487772,-4,-3,33,5,-28,-13,-5,-2
1529563071487772,1,4,-36,-3,4,6,2,0
1529563071496750,-3,-5,40,-8,-13,-18,-3,-1
1529563071496750,0,-4,-17,-6,-14,-13,-3,-1
1529563071498642,-2,-6,21,-1,11,1,0,-1
1529563071498642,0,-6,-29,9,-9,19,6,3
1529563071518753,-2,-5,-7,-2,24,-1,-5,-3
1529563071518753,-3,-4,11,10,-21,-14,-2,-1
1529563071526344,-2,1,1,-28,-15,-8,-4,-5
1529563071526344,-1,-1,23,7,16,-6,-6,-2
1529563071534491,1,0,-40,-56,-33,-1,1,2
1529563071534491,-4,-2,5,49,6,-13,-3,-3
1529563071535398,1,-3,-37,-59,-7,-5,1,-1
1529563071535398,1,-6,-26,13,16,18,2,0
1529563071555837,-1,7,26,15,5,0,0,-2
1529563071555837,-1,-2,-10,-3,-3,6,1,0
1529563071563850,-3,-1,-4,-5,5,-1,-1,-1
1529563071563850,1,4,13,31,-15,4,-1,0
1529563071578820,-4,-1,12,-61,-18,-4,2,1
1529563071578820,-3,-4,-37,-44,-29,-7,-3,-2
1529563071580637,-4,-4,-6,42,15,-2,0,-2
1529563071580637,-2,-3,6,-18,-3,-16,-2,-4
1529563071601580,-1,3,-1,30,-26,-13,-4,-4
1529563071601580,1,2,11,-2,19,14,-2,0
1529563071602577,-1,-2,3,47,22,-14,-2,-1
1529563071602577,-1,-5,3,-25,23,17,2,1
1529563071614544,-1,6,5,14,-19,-7,-1,0
1529563071614544,-5,-17,-16,-17,0,2,-3,-5
1529563071623521,1,-3,-2,-8,-31,-13,-4,-2
1529563071623521,-1,-2,8,6,12,7,4,3
1529563071638515,-2,-10,-3,24,39,-5,3,-9
1529563071638515,13,17,17,-14,-28,38,26,63
1529563071640477,-12,9,-9,-21,1,6,-20,-38
1529563071640477,-8,14,8,3,5,22,2,-26
1529563071662417,-24,-31,29,0,-24,-50,-30,-38
1529563071662417,17,-12,-42,7,5,12,29,38
1529563071664411,7,14,37,28,28,-17,9,60
1529563071664411,-4,-28,-38,-44,-23,29,-10,-17
1529563071675383,-19,13,-14,8,53,16,-19,-40
1529563071675383,-13,6,-14,-21,-1,7,-6,-43
1529563071684393,22,9,35,5,-45,-24,14,30
1529563071684393,11,27,1,7,-91,-75,2,15
1529563071699357,11,-5,-11,29,91,106,26,34
1529563071699357,1,-8,13,-20,28,-1,-1,4
1529563071700329,-7,-4,-26,-36,-25,-12,-8,-13
1529563071700329,-5,-5,-17,-13,-57,-58,-8,-3
1529563071721305,7,-11,-7,21,68,25,3,5
1529563071721305,0,18,36,8,-51,-32,-13,-10
1529563071723302,-5,-15,-45,-17,56,34,3,-19
1529563071723302,-4,-4,75,52,28,-2,-7,1
1529563071735221,4,6,-7,-28,-86,-80,-10,9
1529563071735221,-6,-2,10,-21,-13,18,-2,-16
1529563071744241,-2,0,28,39,18,21,-1,-4
1529563071744241,0,-14,-12,37,38,6,0,7
1529563071758200,6,12,8,-48,-25,-14,3,7
1529563071758200,-6,-10,-15,-43,-65,-52,-22,-18
1529563071765181,-4,-11,-11,-54,-36,2,2,-6
1529563071765181,4,4,-14,17,24,37,10,7
1529563071781137,3,6,32,104,-13,1,-1,3
1529563071781137,-2,-3,-8,-37,86,3,-8,-8
1529563071783094,-3,-10,-13,20,-83,-37,-5,-3
1529563071783094,-3,-3,-16,60,46,13,-4,-4
1529563071803040,8,13,-1,-81,-11,7,7,7
1529563071803040,-7,-12,-9,-5,-29,-21,-8,-5
1529563071812016,1,9,-25,62,23,-8,0,-4
1529563071812016,-1,9,39,63,89,33,3,4
1529563071818000,3,3,8,-33,-56,3,6,2
1529563071818000,0,5,6,-22,-42,-19,-7,-2
1529563071824981,-6,-7,-5,-29,59,23,-2,-8
1529563071824981,1,-6,2,16,-23,-25,-1,3
1529563071840939,-2,-5,-29,-16,21,45,6,4
1529563071840939,8,5,-11,25,41,23,11,6
1529563071842933,-1,-10,-43,-87,3,8,4,-1
1529563071842933,-11,-12,-13,21,-57,-37,-18,-9
1529563071854901,-3,4,8,4,-75,-56,-10,-3
1529563071854901,-6,-9,-14,53,99,26,4,-5
1529563071863879,2,-1,-9,-38,-51,17,5,5
1529563071863879,5,12,4,-57,38,5,4,3
1529563071877842,-1,-1,-24,-11,-3,-9,-2,-2
1529563071877842,-4,-12,16,12,-87,-22,-9,-5
1529563071884823,2,6,24,20,43,2,4,2
1529563071884823,0,3,-10,-61,-25,23,5,5
1529563071901778,-1,-1,8,38,19,-21,-9,-2
1529563071901778,6,7,-1,17,21,14,3,-20
1529563071902775,-14,-25,6,4,13,-11,-15,4
1529563071902775,15,25,-6,-34,-31,-5,10,10
1529563071914743,-26,4,1,-2,-28,0,2,4
1529563071914743,7,-13,-19,18,47,-18,-6,-3
1529563071923720,9,3,28,-5,-32,47,15,7
1529563071923720,-9,-16,-17,-20,7,-18,-16,-40
1529563071938717,4,-5,11,10,3,-11,1,25
1529563071938717,-19,17,-12,14,29,-13,-6,-14
1529563071944834,-10,-4,0,4,-32,-13,-8,10
1529563071944834,9,13,-6,-25,-4,31,12,-1
1529563071961760,1,0,2,-2,26,9,-1,-15
1529563071961760,-7,-40,-8,-9,-41,-6,-3,1
1529563071963637,3,7,13,18,-19,-30,-5,-3
1529563071963637,-2,0,17,-13,26,6,1,8
1529563071983701,8,0,-38,-19,44,51,9,0
1529563071983701,2,8,5,-6,-16,16,3,7
1529563071985553,2,2,4,38,28,-3,0,-5
1529563071985553,-7,-9,3,-64,-69,-47,-16,-2
1529563071998912,3,4,24,52,7,-13,-2,-4
1529563071998912,2,5,21,6,4,12,2,9
1529563072004726,-1,7,-13,-43,-4,-3,-1,-9
1529563072004726,-6,-10,-22,29,8,-1,-2,0
1529563072021996,2,-4,10,-29,24,5,3,1
1529563072021996,0,10,4,-25,-56,-10,-1,3
1529563072022679,-6,0,18,45,-22,-40,-14,-15
1529563072022679,2,-4,-2,-7,24,40,12,9
1529563072044659,3,1,-2,12,7,12,4,3
1529563072044659,2,3,-10,-18,48,13,3,1
1529563072045657,-4,2,5,-6,2,-28,-13,-10
1529563072045657,-2,-13,-22,19,16,7,1,3
1529563072058924,-5,-5,9,99,4,-25,-11,-8
1529563072058924,2,3,-10,-48,30,9,5,2
1529563072065870,-2,-3,11,-17,-39,-7,-3,-2
1529563072065870,-6,-3,0,-83,26,-7,-4,-3
1529563072082593,6,0,-26,-103,-45,31,12,4
1529563072082593,-6,-2,20,127,3,-22,-11,-5
1529563072083556,0,-2,-23,-63,53,30,3,-2
1529563072083556,-4,-5,27,12,-59,-29,-10,-3
1529563072104586,1,2,9,52,20,-12,-2,-2
1529563072104586,0,0,9,-103,-44,-2,-1,1
1529563072105494,1,-2,-27,-15,-38,-1,3,-1
1529563072105494,-2,1,17,34,2,6,-1,1
1529563072117257,-2,1,32,44,99,7,0,-1
1529563072117257,-9,-14,-79,-62,-104,-40,-15,-7
1529563072126410,2,3,16,62,64,8,3,-1
1529563072126410,10,6,-2,-62,81,13,12,7
1529563072142056,-13,-19,-22,-78,-83,-34,-15,-8
1529563072142056,0,5,14,22,81,16,6,2
1529563072143057,1,5,-4,23,-4,-3,-3,-3
1529563072143057,0,0,-19,12,-31,-2,2,0
1529563072164003,4,6,7,-19,12,41,10,3
1529563072164003,-2,-7,-3,54,25,-9,-5,-1
1529563072165999,2,0,-5,-12,-4,7,5,3
1529563072165999,-4,-2,-9,-44,-67,-23,-5,-3
1529563072177962,-2,-5,-14,44,-35,-18,-4,-2
1529563072177962,-6,1,29,15,53,3,-9,-6
1529563072184981,3,9,14,9,30,24,9,3
1529563072184981,-1,-5,2,21,4,-6,-4,0
1529563072200933,0,-11,-19,-46,-52,-35,-5,-1
1529563072200933,-1,3,-19,21,33,39,11,-4
1529563072202896,-3,-6,17,14,-20,-9,-7,-2
1529563072202896,-3,-10,-9,-10,10,14,0,-2
1529563072223843,2,5,-4,0,29,4,4,2
1529563072223843,14,18,30,6,-32,-10,4,22
1529563072225836,-6,0,-4,-14,-9,-18,-10,-16
1529563072225836,-12,-25,-13,10,-23,7,-7,-16
1529563072238308,-9,-17,-5,15,23,-7,-2,-11
1529563072238308,17,5,8,7,-10,-2,11,28
1529563072245363,-6,15,1,-25,-21,-11,-9,-9
1529563072245363,3,-5,5,29,16,3,-10,-22
1529563072261494,-6,17,-12,-6,-5,-14,-8,-9
1529563072261494,-4,-8,-1,-21,-24,-7,0,-2
1529563072263313,2,-22,-8,0,4,18,15,33
1529563072263313,-1,8,3,19,22,-7,-1,12
1529563072284437,-2,1,6,-14,-31,-4,-9,-40
1529563072284437,-4,2,4,4,-19,-24,-6,-12
1529563072285254,7,3,5,2,82,72,18,15
1529563072285254,2,5,5,10,-42,-19,-2,7
1529563072297594,8,9,-5,-17,-25,-12,1,29
1529563072297594,-5,-7,-19,-11,-5,-4,-3,-9
1529563072306236,-7,-2,14,31,8,-24,-8,-34
1529563072306236,-1,2,-9,18,-2,7,1,0
1529563072322217,5,11,24,2,8,11,5,8
1529563072322217,-8,-27,-17,-5,-5,-4,-6,-5
1529563072323156,0,-11,-10,9,-7,-7,1,5
1529563072323156,1,19,45,37,20,14,5,0
1529563072344626,-1,-2,-26,-17,-4,-15,-6,3
1529563072344626,0,-5,-21,-27,10,13,3,-3
1529563072345578,1,0,19,32,0,11,2,12
1529563072345578,-4,-10,-31,-97,-36,-5,-7,0
1529563072357857,0,7,1,57,42,4,2,-1
1529563072357857,-3,11,24,1,-7,-9,-6,-4
1529563072366522,3,16,15,-2,-42,-19,-1,-9
1529563072366522,0,-20,-43,-13,24,24,2,10
1529563072381713,0,-17,-14,-28,-26,-5,0,-3
1529563072381713,-5,5,29,16,8,4,-4,-9
1529563072383735,-1,1,-35,-17,-12,-20,-3,1
1529563072383735,-3,-16,-1,25,25,-2,2,-2
1529563072403598,1,-17,-10,10,-11,7,4,4
1529563072403598,2,3,10,-5,2,1,0,4
1529563072405593,-2,-5,8,-35,-31,-19,-11,-3
1529563072405593,-3,-3,-33,-27,30,-19,0,-3
1529563072419022,-2,-6,-21,61,-16,13,4,2
1529563072419022,-3,3,41,31,52,16,-3,1
1529563072425118,-3,-8,-23,-59,-6,20,3,-3
1529563072425118,0,9,12,9,-38,-23,-2,-2
1529563072441918,-2,4,29,-28,1,-11,-3,-1
1529563072441918,-1,-5,-54,16,5,5,0,-4
1529563072442911,-1,-6,5,-1,-4,-6,-4,-2
1529563072442911,-1,4,19,27,18,6,1,2
1529563072464032,-4,0,-4,-15,-7,0,2,2
1529563072464032,1,5,8,-14,-27,-3,-2,-3
1529563072465878,0,-5,-23,11,19,-1,-3,-3
1529563072465878,0,11,4,-19,-32,-1,0,-1
1529563072478064,-1,1,6,-8,15,2,-6,3
1529563072478064,-3,-13,-6,0,-13,-14,-7,-10
1529563072487044,4,3,1,11,2,10,11,14
1529563072487044,-1,6,14,19,10,3,-4,-4
1529563072501008,-3,2,-6,-17,-33,-12,-4,-2
1529563072501008,-2,4,7,6,20,12,3,-1
1529563072503000,-2,-6,-8,-33,-20,-6,-2,-3
1529563072503000,0,0,0,11,20,4,-2,1
1529563072524110,-2,-2,8,11,-2,-2,-5,-3
1529563072524110,-2,-7,-20,-7,-7,5,9,4
1529563072525939,-1,2,6,15,16,-18,-5,-4
1529563072525939,0,0,3,14,-10,30,7,4
1529563072538223,0,-2,2,-1,16,-4,-5,-3
1529563072538223,-1,-1,-11,-57,-21,-7,-3,-1
1529563072546514,-1,2,4,13,-11,-13,-6,-3
1529563072546514,1,6,-2,-6,3,-6,-3,-3
1529563072561256,-1,-1,-2,7,8,4,2,-1
1529563072561256,-3,-9,-7,1,-14,0,-2,2
1529563072563073,0,2,8,-8,14,8,-1,-2
1529563072563073,0,-4,-3,-7,-11,-12,-5,-6
1529563072584486,-2,3,-7,6,6,4,2,2
1529563072584486,-5,4,-8,3,-3,-4,-6,-9
1529563072586197,18,-7,24,11,2,5,15,36
1529563072586197,-22,-14,-29,9,10,2,-1,-50
1529563072597559,7,3,12,-16,-4,-4,-1,-2
1529563072597559,-2,1,11,7,-18,-2,-6,-5
1529563072606359,-5,-5,-6,18,6,3,-6,-10
1529563072606359,4,-1,-1,-31,-15,-7,4,13
1529563072621317,-4,-4,6,-2,10,1,-6,0
1529563072621317,0,-3,-13,7,5,0,3,-3
1529563072623311,-2,6,9,37,2,-1,-4,-4
1529563072623311,4,1,14,-21,0,1,1,10
1529563072644295,-4,-1,-8,-31,-5,-3,-5,-9
1529563072644295,0,0,16,-5,1,1,-1,7
1529563072645254,-4,0,-7,-6,-10,-8,-1,-7
1529563072645254,3,-2,5,16,5,-2,-3,6
1529563072658224,1,-1,12,6,1,5,2,-1
1529563072658224,0,1,-17,1,-3,3,-2,-3
1529563072667195,-4,-2,9,-4,3,5,3,-5
1529563072667195,0,1,-16,-5,-6,-7,2,6
1529563072681359,3,-2,-1,-5,-3,-1,-8,2
1529563072681359,-1,2,13,8,2,-1,4,-5
1529563072688218,0,4,-8,-13,-3,1,0,-6
1529563072688218,-2,-1,12,6,-3,-3,-8,1
1529563072704644,-3,-5,-18,5,-1,-1,5,1
1529563072704644,2,2,14,28,12,0,-3,21
1529563072705494,6,2,-5,-48,-10,-3,1,-21
1529563072705494,-12,-3,3,-30,-20,-6,3,10
1529563072736198,9,-2,-5,1,7,1,2,3
1529563072736198,-1,-5,-3,4,0,-1,-4,-2
1529563072738207,0,-3,-6,17,1,1,-6,2
1529563072738207,7,3,5,-6,-3,-2,-4,-1
1529563072741203,-5,-1,1,-8,-3,2,3,-1
1529563072741203,-2,0,4,12,4,0,2,0
1529563072747363,-2,-7,-10,3,0,0,-5,1
1529563072747363,-2,1,1,5,5,0,1,-7
1529563072764321,-5,-5,2,0,-3,-2,-2,-1
1529563072764321,6,1,0,-6,-1,-3,-2,-7
1529563072766221,-3,-2,1,5,0,0,0,3
1529563072766221,2,8,2,6,2,0,-4,0
1529563072778170,-3,1,4,4,-1,-2,3,4
1529563072778170,0,-3,-4,-10,-2,-2,-1,-4
1529563072786469,-7,0,-2,-5,-5,-4,-4,-2
1529563072786469,1,-3,-3,15,8,3,3,3
1529563072800435,2,7,-4,-6,-4,-1,-1,-2
1529563072800435,-2,-6,0,-16,-4,2,2,-2
1529563072807417,-4,0,-3,13,1,-3,-3,2
1529563072807417,-2,-9,1,14,6,-1,-2,-3
1529563072824370,10,-6,-12,-13,-6,1,1,0
1529563072824370,-19,6,2,-14,-6,-2,-2,-3
1529563072825368,-3,-5,-1,5,4,1,0,-3
1529563072825368,3,-2,-2,-23,-10,0,-1,2
1529563072837479,-3,-2,2,30,18,1,-3,-2
1529563072837479,4,3,3,-26,-27,-8,-3,-1
1529563072846312,2,0,-4,8,1,-1,-6,0
1529563072846312,-1,4,2,12,5,-2,0,-4
1529563072861478,-7,-3,0,-12,-6,-1,0,-1
1529563072861478,2,3,-4,20,10,2,-1,-2
1529563072867398,-7,-3,1,-11,9,-2,1,-2
1529563072867398,5,1,-3,-7,-30,-4,-1,1
1529563072884211,-3,2,6,-2,3,-4,-5,-4
1529563072884211,1,0,-7,-14,-1,2,5,2
1529563072885347,4,-3,2,12,-4,-5,-4,-3
1529563072885347,-3,-5,-10,2,7,-1,-1,0
1529563072906332,-4,1,0,-1,-7,-2,-1,-2
1529563072906332,-1,-3,-7,2,-3,-2,-1,-1
1529563072908328,0,0,-3,-12,-7,0,-1,1
1529563072908328,4,8,19,13,5,-6,-6,-7
1529563072921293,-6,-9,-17,4,-5,-3,-4,-3
1529563072921293,5,0,4,11,8,11,6,3
1529563072927278,9,-2,-8,-21,1,-1,-2,-1
1529563072927278,-20,-3,-1,30,13,-1,-2,-4
1529563072944472,3,0,0,-60,-33,-4,-2,-1
1529563072944472,-1,-2,-1,-2,-5,-5,-2,1
1529563072945228,-6,6,5,15,4,-2,-3,-5
1529563072945228,2,-8,-12,-2,4,1,1,3
1529563072966549,0,4,5,14,8,-1,-1,0
1529563072966549,-2,-6,-1,-7,-4,-2,-2,-2
1529563072968366,-2,5,6,-16,-12,1,0,-1
1529563072968366,4,6,10,15,11,1,1,2
1529563072980335,-3,-2,-4,-3,-6,0,-1,-1
1529563072980335,3,4,5,0,2,-3,-2,-2
1529563072989309,-3,-2,-9,7,3,-2,1,0
1529563072989309,1,-2,0,4,0,-2,-2,0
1529563073004270,-3,-2,3,2,0,-3,0,-3
1529563073004270,-1,-1,0,-2,-2,-4,-3,-2
1529563073005267,-4,-5,-4,-3,-2,3,1,0
1529563073005267,0,-2,-4,-10,-2,5,0,0
1529563073026214,-2,5,-3,17,8,0,-1,-1
1529563073026214,-3,0,3,-11,-5,-4,-6,-6
1529563073028207,5,9,-2,12,0,-2,1,1
1529563073028207,-5,-4,0,-23,-11,-1,-7,-1
1529563073040201,3,10,-11,-17,8,1,3,5
1529563073040201,-1,1,3,17,8,2,0,1
1529563073049149,0,-3,1,6,-3,3,2,-1
1529563073049149,4,5,2,-7,-7,-3,-2,-4
1529563073064145,-4,-21,-6,14,4,0,-1,0
1529563073064145,4,6,-1,6,4,-2,0,1
1529563073065143,-9,-16,-3,-10,-6,0,0,-4
1529563073065143,-1,-3,-1,10,2,-3,0,0
1529563073086388,-4,-11,-4,-2,-2,-1,0,-4
1529563073086388,-3,-1,-2,-3,0,1,-1,1
1529563073088207,-4,-3,5,24,9,2,3,1
1529563073088207,-4,-10,-10,-20,-7,3,2,1
1529563073100176,1,3,4,-7,-5,-2,-3,-1
1529563073100176,-5,-5,3,19,6,2,1,-2
1529563073109152,-1,2,-1,-20,-10,-4,-4,-1
1529563073109152,1,0,-2,9,5,0,-1,0
1529563073124227,-1,4,6,-3,1,-2,0,-2
1529563073124227,-1,-10,-4,7,-4,-2,-1,-1
1529563073125223,-1,3,1,-7,0,-3,-3,0
1529563073125223,1,-2,-4,-2,-2,-2,2,1
1529563073146169,-1,2,3,4,-4,-3,-2,0
1529563073146169,-2,1,0,-4,-2,-1,-1,-2
1529563073148161,-3,-4,-10,-4,1,-2,-1,1
1529563073148161,-3,-9,-15,-8,-9,-4,-3,-5
1529563073160353,-1,4,6,6,0,3,-1,-2
1529563073160353,1,2,-1,-5,-2,-1,0,-1
1529563073169332,-2,0,-2,-14,-2,2,0,-1
1529563073169332,3,5,3,14,-5,-4,0,1
1529563073184295,-4,-9,-16,0,0,-3,-1,-1
1529563073184295,-1,-3,-1,-5,-2,1,0,-1
1529563073185294,-1,-1,0,-2,-1,1,0,-1
1529563073185294,0,-2,2,-3,5,0,1,0
1529563073206235,1,1,5,-1,-3,-2,0,0
1529563073206235,0,3,-3,-6,-4,-2,-1,-1
1529563073208229,1,-2,0,0,-3,-2,-2,2
1529563073208229,-1,0,2,-1,2,-1,0,2
1529563073220253,0,2,3,0,-2,-2,-2,0
1529563073220253,-3,-4,-3,-2,1,-1,-1,-2
1529563073229229,-6,0,-2,0,-2,-2,-2,-2
1529563073229229,7,-1,-1,-2,1,0,-1,0
1529563073243437,-2,-3,0,1,1,2,0,-2
1529563073243437,-2,-3,-1,0,-1,1,-2,-2
1529563073245429,-1,2,5,2,-3,0,-1,-2
