timestamp,emg1,emg2,emg3,emg4,emg5,emg6,emg7,emg8
1528448226518743,1,0,0,-2,-1,-1,0,0
1528448226518743,-1,-1,-1,-2,-2,-1,-1,-2
1528448226519741,-1,1,-2,0,0,-1,0,-1
1528448226519741,-2,1,-2,-1,-1,1,-1,0
1528448226526722,0,-2,-1,0,1,0,-1,-1
1528448226526722,-1,-2,2,-2,-1,-1,-1,-1
1528448226540684,0,-1,1,-3,-1,1,-1,0
1528448226540684,1,0,-1,-1,0,0,-1,0
1528448226549670,-2,-1,0,0,1,-2,-1,0
1528448226549670,-1,1,-1,-1,-1,-2,-1,0
1528448226555644,-1,-3,0,-1,0,-1,-1,-1
1528448226555644,-2,0,1,-1,-2,-2,1,-2
1528448226572634,0,0,1,0,0,-1,0,0
1528448226572634,0,0,-1,1,1,1,-1,0
1528448226578583,-2,0,-2,-1,-2,-1,-1,1
1528448226578583,0,-1,0,-1,-1,0,-1,0
1528448226593544,-1,0,-2,-1,0,0,0,-2
1528448226593544,-3,-2,-2,0,-1,0,0,0
1528448226600540,1,3,-1,-1,-1,0,0,-1
1528448226600540,-1,-1,0,-2,0,-1,-1,-2
1528448226609500,0,-1,1,-1,0,-1,0,-1
1528448226609500,0,1,0,0,1,0,-1,0
1528448226615538,0,-1,-3,0,-1,0,-1,1
1528448226615538,-1,-2,0,-1,1,-2,-1,-2
1528448226630444,-1,-1,-1,-1,-2,0,-1,-2
1528448226630444,-2,-1,-2,0,-3,-1,-2,0
1528448226638423,0,0,0,0,-1,-1,0,-1
1528448226638423,1,2,-1,1,-2,-1,0,1
1528448226647435,0,-2,-1,1,1,0,-1,0
1528448226647435,0,0,-1,0,2,-1,-2,-1
1528448226660366,-1,-1,0,-2,-1,-2,0,0
1528448226660366,0,-2,-1,-1,-1,-2,0,1
1528448226669343,0,1,0,-1,-3,0,-1,-1
1528448226669343,0,-2,1,-1,0,-2,-1,0
1528448226675326,0,-1,-1,-1,0,-2,-1,1
1528448226675326,0,0,0,0,1,0,1,-1
1528448226690287,0,-1,-1,1,0,0,0,1
1528448226690287,0,-1,0,-1,0,1,0,0
1528448226698291,-2,-2,1,0,0,0,1,0
1528448226698291,0,-1,-2,-1,0,0,-1,-1
1528448226713223,-1,-1,0,-1,-1,0,-1,0
1528448226713223,-1,-2,-1,-1,-1,-1,0,0
1528448226720210,-1,0,1,0,-1,0,-1,-1
1528448226720210,0,1,-1,2,-1,-1,0,-1
1528448226729219,-1,0,-1,1,-1,0,-1,-1
1528448226729219,0,0,-2,-2,-2,-1,0,-1
1528448226735203,-1,1,1,-1,1,-1,0,-1
1528448226735203,0,-1,-1,-1,1,0,-1,0
1528448226750125,0,-1,1,-1,0,-2,-2,-1
1528448226750125,0,-2,-1,0,-1,0,-1,-2
1528448226758104,0,-1,-2,0,-1,0,-2,-1
1528448226758104,-1,-2,-2,1,-2,-1,0,-1
1528448226773064,0,-1,-1,0,-1,0,0,-2
1528448226773064,-1,-2,-2,-1,-2,-1,-1,0
1528448226781042,0,-2,0,-1,-1,-1,0,-1
1528448226781042,-2,0,-2,0,-1,-1,1,-1
1528448226790019,0,-1,-2,-2,0,-1,0,0
1528448226790019,-1,0,0,0,1,0,0,0
1528448226796016,0,-2,0,1,-1,-2,-1,-1
1528448226796016,-2,-1,0,-3,-1,0,-2,1
1528448226810963,-1,0,0,-1,0,-1,-1,1
1528448226810963,1,0,-2,-2,0,-1,-1,-2
1528448226826967,-2,-2,0,-2,0,-1,1,-1
1528448226826967,-2,-1,-2,-1,0,-1,-1,-2
1528448226832904,-1,0,-2,-2,-3,-2,1,-1
1528448226832904,-1,0,0,-2,-2,-1,-1,0
1528448226857889,0,0,0,-1,-1,0,1,-2
1528448226857889,-1,-1,-1,-1,-2,0,-2,0
1528448226858879,-1,1,0,0,0,-1,-1,-1
1528448226858879,0,0,0,1,0,-2,0,-1
1528448226860882,0,-1,-2,-1,1,-1,-1,0
1528448226860882,-1,2,0,-1,-1,-1,0,-1
1528448226870803,-1,-2,-1,-2,0,0,-3,0
1528448226870803,-2,-1,-1,-2,-1,0,-1,-1
1528448226877838,0,0,0,0,0,1,-1,0
1528448226877838,1,-3,0,-2,0,-1,0,0
1528448226892745,-1,0,1,-1,0,-1,1,0
1528448226892745,-1,-3,-3,-1,0,1,-1,-2
1528448226900723,0,1,-1,-1,0,-2,-1,-1
1528448226900723,-1,1,0,-1,1,0,-2,0
1528448226909700,1,0,-1,2,0,-1,1,0
1528448226909700,-2,0,-1,0,1,-1,0,-2
1528448226915683,0,0,-1,0,-2,-1,-1,-1
1528448226915683,0,-3,-1,-1,0,0,0,-1
1528448226930662,0,-3,1,-2,0,-1,1,-2
1528448226930662,0,0,1,-2,0,-1,1,0
1528448226938775,1,-2,-1,-1,1,0,-1,0
1528448226938775,0,0,-1,1,-1,0,-1,0
1528448226952584,-1,0,-2,0,0,0,-1,0
1528448226952584,-1,0,0,0,0,0,-1,-1
1528448226960582,-1,0,-1,0,0,1,0,-1
1528448226960582,0,-1,-2,-2,0,-1,0,0
1528448226969634,-3,0,-1,-1,-1,-1,-2,-1
1528448226969634,0,-1,0,0,-2,-1,0,1
1528448226975666,-2,-2,-1,-2,-1,-2,-1,0
1528448226975666,-2,-1,-1,-1,-2,-2,-1,0
1528448226990813,-1,0,-1,-1,-1,0,-1,-1
1528448226990813,0,-1,0,0,1,0,0,-1
1528448226998589,-1,-2,-2,-2,-1,0,-2,0
1528448226998589,-1,1,0,0,-1,-1,-1,-1
1528448227013516,-1,0,-2,-1,2,0,0,0
1528448227013516,-1,0,1,-1,-1,-1,-2,0
1528448227020550,-2,1,-2,0,-2,-1,0,-1
1528448227020550,1,-1,0,0,0,-1,1,0
1528448227029475,0,-2,0,-1,-1,-1,0,1
1528448227029475,0,-1,1,0,-1,-1,-1,-1
1528448227044625,0,1,0,-1,0,0,0,-1
1528448227044625,1,0,0,-1,-1,-1,-2,-2
1528448227050422,0,1,-1,0,-1,1,-1,0
1528448227050422,-1,1,-1,-1,-1,-2,0,-1
1528448227058435,-2,-1,-1,1,0,-1,-1,0
1528448227058435,0,-1,0,0,1,0,-1,-1
1528448227073636,-2,-1,-1,-1,-1,0,-1,-1
1528448227073636,0,-1,-1,-1,0,-1,0,0
1528448227089623,-3,-1,-2,-1,-1,-1,-1,-1
1528448227089623,-1,0,-1,0,-1,-2,-1,0
1528448227090600,-2,-1,-3,-1,0,0,-2,-3
1528448227090600,0,-1,0,-1,0,-2,0,0
1528448227103561,0,0,0,-1,-1,0,0,-2
1528448227103561,-2,-3,-1,-1,-1,0,-1,0
1528448227110579,1,0,-1,0,0,-2,-2,0
1528448227110579,0,-1,-1,-1,-1,1,1,0
1528448227118519,0,1,0,-2,-1,-2,-1,1
1528448227118519,-2,0,-2,0,-1,0,-1,-1
1528448227133148,0,0,1,-2,-1,1,-1,-1
1528448227133148,0,-1,-1,0,0,1,-2,-1
1528448227149887,0,-2,-1,-2,-1,-1,-2,0
1528448227149887,-2,-2,0,0,-2,-2,-1,-1
1528448227150885,-2,-1,-1,-1,-1,-3,0,0
1528448227150885,-2,-1,-1,-1,-2,-1,-1,-1
1528448227164073,0,-1,-2,0,0,0,0,-1
1528448227164073,1,0,-1,-1,-2,-1,-1,-2
1528448227171095,1,1,-1,2,0,0,1,-2
1528448227171095,0,0,0,-1,0,-1,-3,0
1528448227178616,0,-1,2,-1,-3,0,0,1
1528448227178616,0,1,-1,-2,-2,-1,0,-1
1528448227193596,-1,-1,-1,0,-1,0,-2,0
1528448227193596,-2,0,-1,-1,-2,0,-1,-1
1528448227200314,-1,-3,0,0,1,0,-1,1
1528448227200314,-1,-2,0,-2,0,0,0,1
1528448227209596,-2,0,2,-1,0,1,-2,-1
1528448227209596,0,-1,-1,0,0,-1,-2,0
1528448227224250,1,1,1,-1,0,-1,0,0
1528448227224250,0,-1,-1,0,0,-1,-1,-1
1528448227231370,-1,-1,0,-2,0,-1,-1,-1
1528448227231370,-1,0,-1,1,1,-3,0,-1
1528448227238599,0,0,1,0,-1,0,-1,-1
1528448227238599,-1,-1,-3,1,0,1,-1,-1
1528448227253808,-1,-1,-1,1,0,0,1,-1
1528448227253808,-2,1,-1,0,-1,0,-1,-2
1528448227260456,0,-2,-4,0,-1,0,0,0
1528448227260456,0,0,0,-1,1,-1,1,0
1528448227269431,0,-1,-2,-1,-2,-1,0,-1
1528448227269431,1,-1,-1,-2,-2,1,0,1
1528448227283664,-1,2,-1,0,0,-1,-1,0
1528448227283664,-1,-2,-1,-1,-1,0,0,-1
1528448227290897,-1,-1,0,0,-1,-1,-1,0
1528448227290897,0,0,0,1,0,1,-1,-1
1528448227298886,-2,-1,0,0,0,-1,0,-2
1528448227298886,0,-1,0,0,1,0,-2,-1
1528448227313694,-1,-1,0,0,-2,-2,0,-1
1528448227313694,0,-2,-2,-2,0,0,0,-1
1528448227320550,-2,0,-1,-2,-2,-1,0,0
1528448227320550,0,0,-2,0,1,2,0,-1
1528448227345388,0,-2,-1,-1,1,0,0,0
1528448227345388,-2,-2,-1,-1,-1,-1,-2,-1
1528448227345388,-1,-1,-1,2,-1,-1,0,-1
1528448227345388,-1,0,1,0,-2,-1,-2,0
1528448227366484,1,0,0,-1,-2,-1,-1,-1
1528448227366484,0,-1,1,2,0,0,-2,-1
1528448227368482,-1,-1,-2,-2,1,-1,0,0
1528448227368482,-2,-1,-1,-3,-2,-3,0,-1
1528448227373540,0,0,0,-1,0,0,0,-1
1528448227373540,-1,1,-1,0,-1,-3,-1,-1
1528448227380665,-1,-1,-1,1,0,0,-1,-1
1528448227380665,0,1,1,0,0,-1,-2,1
1528448227395368,0,1,-1,-1,-1,1,-1,-1
1528448227395368,0,-2,-2,0,-1,0,-1,0
1528448227404345,0,0,-2,-3,0,0,-1,0
1528448227404345,0,-1,-1,0,0,-1,-2,-1
1528448227426285,-2,-2,0,0,0,1,-1,0
1528448227426285,3,-1,0,-1,-1,-1,-1,-1
1528448227434273,0,1,0,0,-2,-3,1,0
1528448227434273,0,-2,0,-1,0,0,0,-1
1528448227436261,0,-1,0,2,1,0,0,-1
1528448227436261,-1,0,-1,-3,0,0,1,-2
1528448227440257,0,-1,-1,-1,-2,-1,0,-1
1528448227440257,-1,0,0,0,-2,-1,-1,0
1528448227455992,0,-2,-2,-1,-1,-1,-1,1
1528448227455992,-1,0,1,0,1,-1,0,-1
1528448227464053,-1,-2,1,-1,0,-1,-1,0
1528448227464053,-1,0,1,0,-1,-1,0,0
1528448227478917,0,-1,-1,-1,-1,0,0,-1
1528448227478917,-1,-1,1,1,0,0,0,0
1528448227479569,-1,-1,-2,-3,-1,-1,0,0
1528448227479569,0,-1,-1,-1,-1,-1,1,-1
1528448227492837,-1,-1,-1,-1,-1,-2,-1,-1
1528448227492837,-1,-1,-1,0,-2,0,0,0
1528448227500815,0,0,0,2,1,0,-2,-1
1528448227500815,1,-1,-2,0,1,-1,0,1
1528448227515486,-1,0,-1,-1,-2,-2,-1,-1
1528448227515486,-1,-1,-1,-1,-2,-2,-1,-1
1528448227524074,0,-2,-1,1,-1,-1,0,0
1528448227524074,-1,0,0,-1,-1,-1,0,0
1528448227539060,0,0,0,0,0,-2,-1,0
1528448227539060,-1,0,-2,-1,-1,-1,0,1
1528448227539714,1,0,0,-1,-1,-1,0,-1
1528448227539714,-1,-2,-2,0,-1,0,0,-1
1528448227553675,-2,1,-1,-2,1,-1,-2,-1
1528448227553675,-1,-1,-1,-2,-3,-2,0,-1
1528448227560702,-2,0,-1,0,-2,1,-1,-1
1528448227560702,-2,-2,0,1,-1,0,-1,0
1528448227575616,-2,-1,0,-3,-1,0,0,1
1528448227575616,-1,-1,-1,0,1,1,0,-1
1528448227583610,-1,1,0,-1,0,-1,0,-2
1528448227583610,-1,0,-2,0,-2,-1,-1,0
1528448227598612,2,-1,-1,-1,-1,1,1,0
1528448227598612,1,0,-1,-1,-1,-1,-2,0
1528448227599553,-1,-2,0,-1,0,1,-1,0
1528448227599553,-1,-1,-1,-1,1,-1,-1,-1
1528448227613580,0,-2,-2,0,0,-2,0,-1
1528448227613580,0,1,-1,0,-1,1,-1,0
1528448227620552,0,0,1,0,0,0,-1,0
1528448227620552,-1,-1,0,-1,0,0,-2,0
1528448227635458,0,-1,0,0,-2,0,-1,-1
1528448227635458,0,0,0,-1,-1,0,-1,-2
1528448227643488,1,-2,-2,0,-1,-2,0,-1
1528448227643488,1,-1,2,-1,0,-2,-1,0
1528448227658448,0,1,2,0,0,-2,-2,0
1528448227658448,-2,-1,-2,0,-1,-1,-1,0
1528448227659393,0,1,0,2,-1,-2,-1,-1
1528448227659393,-2,-1,-2,-1,-1,1,0,0
1528448227673411,0,0,-1,0,-2,-1,1,1
1528448227673411,-2,-1,-1,-1,0,-1,-1,1
1528448227680391,-2,-1,-1,0,-2,1,-1,0
1528448227680391,-1,0,1,-1,0,-2,2,-2
1528448227704328,-1,-1,-1,1,1,-2,1,-1
1528448227704328,0,-2,0,0,1,0,-1,-1
1528448227705272,0,-3,0,0,0,0,0,-1
1528448227705272,1,1,0,0,0,-1,-1,-1
1528448227718292,-1,-1,0,0,0,0,-2,-2
1528448227718292,-1,0,1,-1,0,-3,-2,-1
1528448227719253,-1,-1,0,-1,-2,-1,1,4
1528448227719253,0,-2,-1,-1,-2,0,-1,-4
1528448227733195,-1,-1,-1,-1,-1,2,0,-2
1528448227733195,-1,0,0,-2,0,-1,0,0
1528448227740238,-1,0,-2,-2,-1,0,-1,-2
1528448227740238,0,-1,-1,0,0,0,-1,0
1528448227755194,-1,0,0,-1,-2,-2,1,-1
1528448227755194,0,-1,-2,0,0,1,-1,-2
1528448227764168,0,-1,-1,-1,-1,-1,0,-1
1528448227764168,0,-1,1,1,-3,-1,0,3
1528448227779130,-2,0,-1,-2,0,1,-2,-6
1528448227779130,-1,0,-2,0,-1,0,2,4
1528448227779130,-1,0,-2,0,0,-2,0,-4
1528448227779130,0,-1,-1,0,0,-2,1,-1
1528448227793091,-1,0,1,0,0,-2,-2,0
1528448227793091,-1,-2,-1,-2,-2,0,-1,0
1528448227801070,1,-1,-1,-2,0,-1,-3,-2
1528448227801070,0,1,-1,-1,-1,-1,0,-1
1528448227816029,-1,0,-1,-1,-1,-1,0,1
1528448227816029,-1,0,-1,1,-1,0,1,-3
1528448227824009,-3,-1,1,0,0,-1,-2,-1
1528448227824009,0,0,0,-2,-1,0,-1,-3
1528448227838966,-2,-1,1,-2,-2,0,0,0
1528448227838966,1,-1,2,0,0,-2,-2,-1
1528448227839963,0,-1,0,-1,0,1,0,-1
1528448227839963,-1,-2,-1,-1,-1,0,-1,1
1528448227852928,1,-2,-2,1,0,-1,0,1
1528448227852928,0,0,0,-1,0,-2,-1,-3
1528448227860952,-1,-1,-1,1,3,0,0,0
1528448227860952,-1,0,-1,-4,-8,-3,-2,-7
1528448227877048,0,-2,-1,-2,-2,-1,1,1
1528448227877048,0,0,-1,-1,-3,-1,0,6
1528448227883794,-1,-1,0,1,0,-1,2,0
1528448227883794,-1,1,0,1,3,0,-2,0
1528448227898753,-1,-3,0,-2,-2,1,-1,-3
1528448227898753,-1,-1,-1,-3,-2,0,0,-3
1528448227899752,-2,-1,-2,-2,0,-1,-1,2
1528448227899752,-1,0,-1,0,0,0,0,0
1528448227912748,1,-1,-1,-1,-1,-1,-1,-1
1528448227912748,0,-2,-1,0,-1,-1,-1,0
1528448227920695,-2,-1,-2,-2,-3,0,0,-6
1528448227920695,-2,-1,-1,1,-1,-1,-1,-1
1528448227935895,0,0,-1,-1,-1,-1,-2,-1
1528448227935895,-2,0,-1,0,1,0,0,-1
1528448227960120,0,0,0,-1,-4,0,-2,-1
1528448227960120,0,-1,-4,-2,-1,0,0,1
1528448227960916,-1,0,0,0,1,-1,-1,0
1528448227960916,0,0,-2,-1,0,-1,-1,-3
1528448227974680,0,0,-2,0,0,0,0,0
1528448227974680,-1,-1,0,-1,0,0,1,1
1528448227982035,0,0,0,1,2,0,-2,0
1528448227982035,-2,0,0,-2,-2,-1,-2,-3
1528448227983035,1,-1,0,-1,-2,-2,-1,0
1528448227983035,0,-1,0,-1,-2,-2,-1,-1
1528448227996271,-1,-1,0,2,-1,0,1,1
1528448227996271,-1,-1,-2,0,-4,-1,-2,0
1528448228004242,-2,-1,0,-2,0,0,-2,0
1528448228004242,0,-1,-2,-1,1,0,-1,1
1528448228017941,-1,0,-1,-2,-1,-1,-1,-1
1528448228017941,1,-1,0,0,1,0,1,-1
1528448228027059,0,-1,1,1,0,-2,-1,0
1528448228027059,1,0,-1,-1,-1,-1,0,0
1528448228032901,-1,-1,-3,-1,0,-1,0,-1
1528448228032901,0,0,-1,-2,0,1,0,-1
1528448228042007,-1,-1,-2,1,0,-1,0,0
1528448228042007,-1,-1,2,-2,1,0,0,1
1528448228055839,-2,-1,-1,0,-1,-1,-2,-1
1528448228055839,0,0,0,-2,0,1,0,0
1528448228064492,-2,-1,-1,0,-1,-3,-1,0
1528448228064492,-1,-2,-2,0,0,-1,-3,-1
1528448228078669,-1,2,-1,-1,-2,0,-1,-1
1528448228078669,-1,-1,-2,-2,0,-2,0,-1
1528448228086475,-1,1,-1,1,0,0,-1,-1
1528448228086475,-2,-1,-1,-1,0,-1,0,1
1528448228093490,-1,-1,1,0,-1,-1,-1,-1
1528448228093490,0,0,0,0,0,-3,-2,-1
1528448228101717,1,-2,0,0,-2,-2,-1,-2
1528448228101717,1,-1,0,-1,0,0,-1,0
1528448228115825,-1,-2,-2,-2,0,0,0,-1
1528448228115825,-2,0,-1,-3,0,-1,-2,-2
1528448228124603,-1,0,-1,-1,-1,0,0,-1
1528448228124603,0,-1,-1,1,0,-1,-1,0
1528448228138613,-1,-1,1,-1,-2,0,-1,-1
1528448228138613,0,0,1,0,0,-1,0,-1
1528448228146614,0,0,-2,-1,0,0,-1,2
1528448228146614,0,-1,-3,-2,-3,-1,1,1
1528448228162558,-1,0,-1,-1,0,0,-2,-5
1528448228162558,-1,-1,-1,0,-2,1,1,0
1528448228163305,1,0,0,-1,3,1,0,-2
1528448228163305,-1,1,0,1,0,0,-3,-1
1528448228176069,1,0,-2,-3,-1,-1,-1,4
1528448228176069,-2,0,-1,-1,-1,-2,-2,0
1528448228184065,-1,0,-1,-1,0,-1,0,0
1528448228184065,-2,0,1,0,2,1,0,-1
1528448228198426,-1,-2,-1,1,-1,-1,0,-2
1528448228198426,0,-1,0,-1,-2,0,-1,-1
1528448228207019,0,-1,-1,0,-1,-1,-2,1
1528448228207019,-1,-1,0,-1,-2,-1,-1,-2
1528448228222189,0,-1,0,0,0,0,-1,-1
1528448228222189,0,-2,-3,-2,-2,1,0,2
1528448228222919,0,-1,0,-1,-2,-1,-2,-6
1528448228222919,-1,-2,-1,-1,-1,0,3,-1
1528448228236145,0,2,0,1,1,0,-1,1
1528448228236145,0,-1,0,1,0,-1,0,-2
1528448228243896,-1,-1,-2,-1,-3,0,0,-1
1528448228243896,-1,0,-1,-1,-1,0,-1,-2
1528448228258059,0,0,1,2,3,7,2,1
1528448228258059,1,0,0,2,0,-6,-1,0
1528448228266803,-1,-2,-3,-7,-5,-8,-7,-1
1528448228266803,-1,0,0,-2,-3,-3,-3,-1
1528448228281816,0,-1,0,-1,-1,2,1,-2
1528448228281816,0,-2,-2,-1,1,3,-1,-1
1528448228282760,0,-3,2,1,0,-2,2,1
1528448228282760,-1,0,0,-2,0,0,0,1
1528448228296091,-2,-2,-2,0,-2,-3,-1,-1
1528448228296091,-1,0,1,1,1,3,1,-2
1528448228304330,0,-1,-2,0,0,1,-1,0
1528448228304330,1,-1,-1,-2,-1,-1,0,-1
1528448228318999,0,-1,-2,0,-1,-2,-2,-1
1528448228318999,-2,0,0,-1,-2,-2,-1,-2
1528448228326517,-1,-1,-2,-1,1,0,-1,0
1528448228326517,0,-1,0,0,0,0,0,0
1528448228341710,-1,-2,0,-2,0,-2,0,-1
1528448228341710,0,0,0,-2,-1,-1,-2,-2
1528448228342694,-1,-1,1,0,0,1,0,1
1528448228342694,0,1,0,1,2,0,-1,0
1528448228356258,0,-2,-2,-3,-2,-3,0,1
1528448228356258,-1,0,-1,1,-2,-1,-2,0
1528448228364162,-1,0,1,0,-1,0,2,-1
1528448228364162,0,0,-1,-1,-2,-1,-2,0
1528448228378123,0,-1,0,-2,-2,-1,-1,0
1528448228378123,-1,-1,0,1,1,1,0,-1
1528448228387028,-1,0,-1,-1,-1,0,1,-1
1528448228387028,-2,-1,-1,-1,0,-2,1,-1
1528448228402142,-1,0,-1,2,0,1,-1,-1
1528448228402142,0,-1,-1,-1,0,0,0,-1
1528448228403092,1,1,2,-1,-2,-1,1,0
1528448228403092,-1,-2,0,-2,-2,-3,0,-1
1528448228416195,-2,-2,-1,1,0,-1,-1,-1
1528448228416195,-1,0,0,-2,-1,-1,0,1
1528448228425451,-1,-2,-2,0,1,1,0,-1
1528448228425451,-1,0,-1,2,-1,0,0,-1
1528448228438309,-1,0,-1,-2,-3,-2,0,0
1528448228438309,0,0,-2,0,-1,-3,-3,0
1528448228447282,-1,-2,-2,0,0,0,-1,-1
1528448228447282,0,0,1,-1,-1,-2,-2,-2
1528448228469224,0,0,-1,-1,0,-2,1,0
1528448228469224,0,-3,0,-2,-1,0,1,-1
1528448228471217,-1,1,-1,-1,-2,1,0,0
1528448228471217,0,0,-2,0,0,0,0,-1
1528448228475206,0,-2,-1,1,-1,-5,-1,-1
1528448228475206,-1,-2,-1,2,-2,2,-1,0
1528448228491410,0,0,-1,-4,0,-1,0,0
1528448228491410,0,-1,1,0,0,-1,1,0
1528448228498558,-1,-1,0,-3,-1,0,0,-1
1528448228498558,-1,-1,-1,1,0,-1,0,-1
1528448228507189,-1,0,0,1,1,-1,0,-1
1528448228507189,0,-1,0,-2,2,0,-1,-1
1528448228520665,2,0,-1,-1,-1,-1,-2,1
1528448228520665,-1,0,-2,0,0,0,-1,1
1528448228537793,-1,0,0,0,-2,0,-1,-1
1528448228537793,-1,-2,-1,-1,-1,-1,0,-1
1528448228538654,-1,0,1,-1,0,0,-1,-2
1528448228538654,1,-1,0,-3,-1,-2,0,0
1528448228544678,0,1,0,-1,-2,-1,-1,1
1528448228544678,0,-2,1,0,-1,0,-2,1
1528448228558970,0,-1,-1,0,0,0,-1,0
1528448228558970,-2,-1,0,-2,-1,-1,0,-2
1528448228567591,1,-3,0,-1,0,0,2,-1
1528448228567591,-2,-2,-1,1,-1,1,1,-1
1528448228581025,0,-1,0,0,-3,-1,-1,-1
1528448228581025,-1,0,-2,-1,-1,-2,0,0
1528448228589653,0,0,-2,2,-1,0,-1,-1
1528448228589653,1,-2,0,0,0,0,-1,0
1528448228595881,-2,1,1,-1,-1,-1,-1,-2
1528448228595881,-2,-1,-1,0,-2,0,-1,-1
1528448228604901,-1,-1,1,-1,1,0,-1,0
1528448228604901,0,1,-3,-2,0,0,1,-2
1528448228618127,1,-2,-1,0,-1,0,1,0
1528448228618127,-2,0,0,0,-1,0,-2,0
1528448228627201,-2,0,-1,-1,-1,1,1,-2
1528448228627201,-1,0,1,-1,0,-1,-1,-1
1528448228641411,0,0,-2,-2,-1,0,0,0
1528448228641411,1,-1,-1,-2,1,1,1,1
1528448228650047,0,-2,-2,-1,-1,-1,-3,-1
1528448228650047,1,0,0,0,0,0,-1,-2
1528448228656397,0,1,-1,-1,-1,0,0,0
1528448228656397,-1,0,1,0,1,0,-1,0
1528448228664912,0,-1,0,-2,-1,0,0,0
1528448228664912,0,2,0,-1,0,-2,1,0
1528448228678164,0,-1,-1,-1,-2,-2,-2,-1
1528448228678164,0,-1,-2,1,0,-2,-2,0
1528448228687143,-1,-1,-2,0,1,-1,-2,-1
1528448228687143,-1,-1,-2,-1,1,0,-1,0
1528448228700395,-1,0,1,0,0,0,-1,-2
1528448228700395,0,-2,-1,-1,-3,-1,0,-2
1528448228709534,0,0,0,-1,0,-3,-1,-2
1528448228709534,-2,-1,-1,0,-1,0,-1,1
1528448228715617,0,-2,-1,1,1,-1,2,-1
1528448228715617,-2,-2,1,-1,-2,-1,0,-2
1528448228724588,-1,0,-1,1,-1,-1,0,1
1528448228724588,0,1,-1,-1,-2,-2,-1,-1
1528448228738109,-1,0,-1,-3,-1,0,1,0
1528448228738109,-1,1,0,-1,0,1,-2,0
1528448228747100,-2,-1,0,0,-1,0,2,-1
1528448228747100,-1,-2,-2,0,-1,-1,-2,-1
1528448228770280,1,0,-1,0,-1,-2,-1,0
1528448228770280,0,-1,-1,-2,0,-1,-1,-1
1528448228771237,-1,1,-1,-1,-1,-1,0,0
1528448228771237,0,-1,0,0,0,-2,0,-1
1528448228776445,-2,-2,1,0,-1,-2,0,-1
1528448228776445,1,0,0,-1,0,-1,0,2
1528448228784507,-1,0,0,-2,-2,-1,-1,0
1528448228784507,-1,0,-1,-1,-1,-2,-1,-1
1528448228798830,-1,1,0,2,0,0,0,-1
1528448228798830,1,0,-2,0,-1,1,-1,-1
1528448228814733,-1,0,-2,0,-2,-1,-1,-2
1528448228814733,0,0,0,0,-1,0,-2,-1
1528448228821149,0,-1,-1,-1,0,1,-2,-1
1528448228821149,-2,-2,0,0,-1,-1,0,-1
1528448228829487,0,-2,-1,1,0,0,-2,0
1528448228829487,-2,-1,-2,-2,0,-1,0,-1
1528448228835618,-1,-1,-3,-1,-1,-2,0,0
1528448228835618,0,0,-1,-2,-1,-2,1,-1
1528448228844596,0,0,0,-2,0,-1,0,-1
1528448228844596,-1,0,0,0,0,-1,1,0
1528448228858772,-1,-1,0,-1,0,-2,-1,-1
1528448228858772,0,-1,-1,0,0,-1,-2,-2
1528448228867537,-3,0,0,0,0,0,2,0
1528448228867537,1,-1,-1,-1,-1,2,0,-1
1528448228880725,-2,0,0,-2,0,0,0,-1
1528448228880725,0,-1,-1,0,0,0,0,-1
1528448228889730,0,0,-1,-1,0,-2,1,0
1528448228889730,-3,-2,-1,0,-1,-1,0,-1
1528448228895953,-1,-1,-1,0,-1,-3,-1,1
1528448228895953,0,0,0,0,-1,-2,-1,0
1528448228904971,0,-1,-1,-1,-3,-1,-2,-1
1528448228904971,0,-1,-1,-2,-1,0,-1,-1
1528448228918261,0,-2,1,-1,0,0,-1,0
1528448228918261,-1,-2,0,0,0,0,0,-2
1528448228927214,0,-3,-1,0,-1,0,-2,0
