timestamp,emg1,emg2,emg3,emg4,emg5,emg6,emg7,emg8
1529292367225767,10,3,3,-9,19,52,-14,-6
1529292367225767,-7,-9,12,21,-19,-31,-29,-13
1529292367240728,7,-4,-10,-26,-21,-16,10,11
1529292367240728,0,21,26,18,-8,-47,-10,-4
1529292367248753,17,12,6,18,20,36,21,6
1529292367248753,-3,-20,-16,11,1,-2,-3,2
1529292367270648,-5,-5,-5,10,45,55,10,8
1529292367270648,21,12,18,15,29,2,19,11
1529292367285658,-6,-6,-1,5,-15,-15,-15,-5
1529292367285658,-14,-11,-22,-3,-1,18,19,-7
1529292367293636,-2,-5,-2,7,-39,-38,-19,-9
1529292367293636,7,14,23,19,-3,44,15,9
1529292367308547,-14,-8,-9,-18,-17,4,-12,-5
1529292367308547,-5,-5,-27,-9,-9,19,-1,-24
1529292367323506,16,-1,3,3,-39,-100,-9,17
1529292367323506,-3,3,-5,-15,5,17,-12,-2
1529292367338506,-10,-16,-26,-18,11,28,9,-4
1529292367338506,-13,-4,-9,-8,-23,-47,-24,-11
1529292367345448,22,3,9,27,29,83,35,30
1529292367345448,-13,-1,-2,7,-8,-33,-28,-19
1529292367361405,17,27,31,1,-4,7,18,28
1529292367361405,-8,-7,6,12,20,30,9,-11
1529292367368387,13,-12,-38,-21,13,30,-5,9
1529292367368387,-11,-15,-11,-1,-22,-71,-24,-15
1529292367383346,-1,12,15,18,30,46,12,-7
1529292367383346,-3,-9,-7,-7,-14,-34,-7,4
1529292367398307,6,5,7,19,26,33,12,9
1529292367398307,8,10,12,25,-14,-86,-11,10
1529292367405288,-17,-9,-15,-45,-12,20,-13,-20
1529292367405288,1,5,7,20,-17,-95,-8,8
1529292367421290,-5,-5,4,2,13,92,18,-3
1529292367421290,-4,-14,-12,-7,-29,-52,-3,7
1529292367428228,-7,4,16,24,9,31,-2,-15
1529292367428228,21,13,-9,-12,16,36,27,21
1529292367443223,-1,-1,7,-6,-4,4,7,3
1529292367443223,-4,7,2,-18,-10,32,9,-7
1529292367458148,3,1,3,17,21,21,3,-1
1529292367458148,18,12,-1,-11,-7,-67,12,21
1529292367466126,-12,6,10,2,16,91,24,0
1529292367466126,10,-7,2,8,-38,-89,-43,0
1529292367481123,-7,-9,-20,-7,1,7,-6,0
1529292367481123,-2,-1,4,4,-5,17,4,-3
1529292367488100,20,12,10,7,8,37,20,16
1529292367488100,0,5,12,10,17,24,12,-5
1529292367511007,-7,1,-10,3,-5,-63,-9,-12
1529292367511007,-7,4,9,-6,-16,22,1,0
1529292367525967,5,6,10,13,17,13,13,15
1529292367525967,8,11,4,-8,7,18,-1,-2
1529292367540928,-8,-11,-4,-2,12,32,10,10
1529292367540928,1,-20,-16,8,-1,-32,-11,-6
1529292367555929,0,3,-3,-28,-18,-9,2,-6
1529292367555929,6,2,2,-1,6,29,-6,4
1529292367570892,-6,-7,-5,0,-8,-49,-13,-10
1529292367570892,-4,-1,2,10,18,56,10,-3
1529292367585849,2,2,3,4,-5,-25,-9,-1
1529292367585849,-4,3,5,1,35,-32,2,-2
1529292367600812,1,2,4,6,3,-15,-4,-3
1529292367600812,-7,-6,-8,-23,-28,26,8,0
1529292367608791,-3,-7,-15,1,3,-20,-9,-16
1529292367608791,27,4,0,2,12,15,0,7
1529292367623705,27,23,19,11,-6,-11,-3,4
1529292367623705,-13,-6,-8,-12,-24,-33,-3,-5
1529292367645648,-1,-5,-6,12,11,56,14,2
1529292367645648,-13,-11,-7,-7,-28,-95,-19,-5
1529292367653626,-7,-4,-4,-6,1,28,-1,-2
1529292367653626,11,4,1,12,11,9,9,18
1529292367668585,10,14,9,-2,-4,-14,3,2
1529292367668585,-1,9,13,13,13,47,7,-2
1529292367675566,-5,-4,2,-9,-7,13,0,-2
1529292367675566,-11,-10,-14,-2,-3,-25,-6,-3
1529292367690569,2,8,10,5,2,20,3,3
1529292367690569,-20,-4,-7,-9,-2,17,-8,-26
1529292367698503,-3,-11,-3,1,6,13,12,17
1529292367698503,-7,-7,-2,4,6,14,-14,-16
1529292367705485,-6,-10,-4,2,-1,3,2,-5
1529292367705485,0,-5,0,-9,-3,-4,-2,5
1529292367720445,8,8,6,2,3,-38,19,16
1529292367720445,-1,-2,-7,19,2,21,-8,-6
1529292367728423,-5,-2,-3,-4,-3,-11,-15,-11
1529292367728423,7,1,-2,0,0,-1,-7,0
1529292367743384,2,-3,-3,-3,4,16,5,5
1529292367743384,3,-2,-1,5,3,14,11,8
1529292367751362,-4,-8,-19,-57,-28,-41,-7,1
1529292367751362,-9,3,10,5,2,23,-1,-5
1529292367758343,-10,-3,-7,0,-6,-46,-26,-19
1529292367758343,-5,-11,-11,-24,-12,9,5,2
1529292367766323,-8,0,18,18,6,10,2,0
1529292367766323,14,17,4,13,9,0,7,14
1529292367781282,4,17,18,-14,-5,6,-9,7
1529292367781282,1,2,4,12,9,-14,4,9
1529292367788264,-11,-8,-8,2,16,50,10,-2
1529292367788264,-14,-9,-2,-1,-13,-39,6,2
1529292367803270,19,10,8,16,11,16,5,-1
1529292367803270,-2,-2,-6,-9,-2,18,4,4
1529292367811237,10,7,6,10,3,10,5,11
1529292367811237,-7,-9,-4,-6,-3,-10,-2,0
1529292367818229,-13,-14,-13,-4,-9,10,-5,-9
1529292367818229,1,1,4,-9,-7,-32,0,-1
1529292367826206,7,9,3,10,-3,-31,-3,5
1529292367826206,-2,0,-4,0,7,7,-7,-12
1529292367841123,-1,-2,-5,8,11,25,3,0
1529292367841123,-1,-5,-2,-9,-9,-7,-6,-9
1529292367848105,3,4,1,2,14,4,-2,-3
1529292367848105,-4,-9,-12,-14,-25,-26,-10,-7
1529292367863246,8,15,17,1,9,26,11,6
1529292367863246,4,11,0,13,24,70,26,12
1529292367870954,-20,-18,-11,-9,-50,-76,-17,-14
1529292367870954,3,-1,3,-3,4,18,9,7
1529292367878109,0,4,-2,-4,-4,-16,-10,-11
1529292367878109,7,4,-3,2,3,6,7,3
1529292367886100,10,6,7,9,12,23,1,8
1529292367886100,0,-1,4,0,3,-20,-6,6
1529292367901037,-9,-13,-2,0,-9,-7,-7,-4
1529292367901037,-1,-3,1,3,3,9,-1,-1
1529292367908858,-4,-5,-5,15,6,-27,-10,-8
1529292367908858,6,2,1,3,6,18,1,-1
1529292367924107,0,0,-4,-10,2,23,5,-1
1529292367924107,-8,-8,-8,-8,-14,-37,-14,-9
1529292367931141,-1,1,-2,6,5,13,13,5
1529292367931141,-4,-4,-5,-18,-9,5,-7,-8
1529292367938922,2,0,0,8,1,-39,-5,-3
1529292367938922,-1,4,0,-6,-1,38,6,3
1529292367945822,-6,0,1,-3,-11,-67,-13,-4
1529292367945822,-2,2,3,-1,1,12,4,0
1529292367961546,-4,-2,1,1,17,25,4,-2
1529292367961546,0,-5,-6,-1,9,6,-1,3
1529292367969146,11,11,4,-6,-2,29,2,3
1529292367969146,0,2,6,15,1,-24,-1,0
1529292367983407,-10,-17,-9,-9,-13,0,0,-4
1529292367983407,13,30,36,3,0,-38,-8,3
1529292367991273,5,-19,-38,-24,4,15,4,-5
1529292367991273,-1,4,6,13,13,17,7,-2
1529292367998097,-5,-3,-5,-10,-4,28,3,-5
1529292367998097,2,-4,-2,10,-13,-54,-7,6
1529292368006075,4,9,12,20,25,24,4,7
1529292368006075,1,1,0,-4,-9,-19,-1,3
1529292368021042,0,-3,-6,6,7,5,0,1
1529292368021042,-5,-5,-1,2,3,16,2,-4
1529292368027991,1,9,11,-1,-1,-3,1,3
1529292368027991,1,-6,-6,-3,20,76,14,1
1529292368042986,-10,-3,-4,-7,-34,-106,-28,-10
1529292368042986,-7,-12,-9,-6,-1,5,3,-4
1529292368050967,-4,-7,-6,-2,-5,-2,1,2
1529292368050967,-3,-7,-7,-6,-2,17,2,-3
1529292368058907,10,13,18,-3,-3,13,7,7
1529292368058907,-1,-2,-7,-1,-4,-2,-4,-6
1529292368065924,-1,1,12,7,10,-3,0,-4
1529292368065924,-9,-12,-9,-13,-5,-5,-7,-11
1529292368080848,2,-1,-9,17,-11,-8,-6,-1
1529292368080848,19,21,11,-18,1,-1,3,10
1529292368095816,-4,-6,1,7,10,35,9,5
1529292368095816,-1,-4,0,19,5,-13,-1,1
1529292368110769,-4,-8,-11,-28,-25,-9,-1,-6
1529292368110769,-12,-17,-7,7,14,59,14,-1
1529292368118748,-3,-1,-5,-7,-29,-87,-18,-9
1529292368118748,6,13,8,-4,-5,1,-1,1
1529292368125729,-5,-1,0,8,16,-4,-8,-6
1529292368125729,-5,-5,-7,1,-3,3,-3,-3
1529292368133747,3,8,7,-3,3,25,7,5
1529292368133747,-1,-3,-5,-5,-8,-28,-6,-5
1529292368148671,20,26,15,11,18,30,10,11
1529292368148671,4,9,0,-15,-6,-7,3,8
1529292368163679,9,12,11,10,21,67,16,6
1529292368163679,-9,0,4,-2,-13,-41,-12,-8
1529292368170608,-9,-10,-10,-4,2,10,-2,-4
1529292368170608,-4,-7,-7,-13,-11,4,1,2
1529292368178822,-7,-9,-6,-10,8,14,8,1
1529292368178822,-2,-1,-4,1,-7,-18,-13,-11
1529292368185802,2,6,5,0,6,23,3,-1
1529292368185802,0,-2,-3,-4,-13,-18,-3,1
1529292368200762,-14,-18,-11,-2,-3,-10,-5,-7
1529292368200762,3,2,-1,-6,-7,-25,-6,-2
1529292368208741,17,18,13,6,1,14,11,10
1529292368208741,3,4,6,11,21,8,0,1
1529292368223700,4,0,2,4,-7,-24,-2,0
1529292368223700,0,-4,1,7,22,73,17,4
1529292368230683,-18,-25,-20,-16,-25,-83,-27,-20
1529292368230683,-4,-6,-9,1,-2,0,-1,-6
1529292368238660,13,24,16,4,3,15,5,9
1529292368238660,-3,6,4,-5,-3,-1,-1,4
1529292368245641,-7,-7,-5,2,-2,23,9,2
1529292368245641,2,2,-2,-2,1,2,2,0
1529292368260946,-1,-2,0,7,-4,-5,-4,-2
1529292368260946,-2,-4,-4,-2,-1,-33,-4,-1
1529292368268939,1,2,2,9,23,33,9,3
1529292368268939,-2,-3,0,-3,-5,-52,-13,-4
1529292368284029,-2,-5,-8,-10,-7,23,-3,-8
1529292368284029,4,7,11,-5,3,-43,-8,-1
1529292368291125,-5,-6,-4,0,3,5,-5,-3
1529292368291125,-2,2,6,6,3,24,2,-3
1529292368298340,-1,-2,-10,-3,4,-3,3,6
1529292368298340,-4,-2,-4,-2,1,15,0,1
1529292368306379,-7,-4,-4,-8,-11,-4,-7,-7
1529292368306379,4,1,2,7,8,24,4,0
1529292368321130,21,25,25,8,2,-38,0,11
1529292368321130,4,2,-1,1,-2,27,9,4
1529292368328073,-8,-10,-7,-3,-11,-18,-5,-3
1529292368328073,-3,-3,-5,2,0,12,3,2
1529292368343036,-13,-13,-7,1,6,0,-5,-6
1529292368343036,-3,-3,0,6,2,8,2,1
1529292368351014,2,-3,-3,-1,-6,-8,0,-1
1529292368351014,-5,-6,-5,-8,-1,2,-4,-5
1529292368358378,-11,-19,-16,5,17,18,0,-7
1529292368358378,21,31,23,3,-7,4,5,11
1529292368366604,9,16,10,1,-2,1,-1,6
1529292368366604,-1,9,4,1,-4,-18,4,-4
1529292368381596,4,7,10,10,9,14,4,10
1529292368381596,-21,-30,-24,-8,6,-2,-9,-9
1529292368388794,5,-5,-4,-1,-3,-4,5,4
1529292368388794,9,12,10,2,3,1,-1,3
1529292368403622,-8,-7,-12,-13,-14,-27,-8,-9
1529292368403622,1,-7,-1,9,7,22,5,4
1529292368411420,-2,-1,6,-1,-2,-10,2,3
1529292368411420,-6,-12,-9,-6,-1,-5,-6,-5
1529292368418396,0,2,3,2,1,2,3,-1
1529292368418396,2,8,5,4,2,20,-3,-5
1529292368426533,-1,2,-2,1,-12,-58,-10,-1
1529292368426533,-2,-3,0,-3,-4,8,-2,-1
1529292368441339,-2,-4,0,1,25,97,21,5
1529292368441339,-10,-10,-8,-4,-29,-52,-25,-13
1529292368448319,0,-2,-3,5,7,42,3,-2
1529292368448319,3,-5,-4,0,-4,7,0,-1
1529292368463468,6,10,6,-1,-5,-17,-6,-1
1529292368463468,-1,-4,-4,1,9,10,11,4
1529292368471520,3,2,7,-5,1,1,-1,0
1529292368471520,-1,-6,-7,1,3,0,4,5
1529292368478504,-7,-6,3,-15,-20,-30,-9,-5
1529292368478504,5,11,11,6,4,-2,1,-3
1529292368486436,-19,-20,-33,-56,-48,-21,-15,-13
1529292368486436,-8,-4,-2,4,7,17,5,4
1529292368515321,-10,-14,-14,-1,-8,-24,-12,-5
1529292368515321,5,3,-1,0,10,9,1,-6
1529292368523302,2,5,10,13,12,14,0,-1
1529292368523302,10,5,4,-2,-2,3,2,3
1529292368538259,8,7,4,1,-7,-9,7,14
1529292368538259,-4,-6,-5,-7,2,12,10,7
1529292368561199,-1,-4,-1,0,-2,-3,-2,-4
1529292368561199,2,-3,-6,-5,-8,4,-2,1
1529292368576159,2,6,4,5,8,10,6,3
1529292368576159,-2,-3,-1,-1,-4,-12,-6,-7
1529292368583301,9,12,6,-1,4,15,7,5
1529292368583301,-5,-7,-7,0,-6,-24,-4,-2
1529292368598821,-1,0,-2,-1,-1,-3,-2,-5
1529292368598821,4,6,3,0,-2,1,2,2
1529292368613775,-2,5,2,-7,-3,10,2,-1
1529292368613775,3,-1,0,4,1,4,-1,0
1529292368620575,-1,-4,-5,-2,4,4,1,2
1529292368620575,-1,-5,-2,2,-1,-2,-1,-2
1529292368636062,-1,-2,-2,3,4,7,2,0
1529292368636062,1,2,-1,1,2,3,3,-1
1529292368642960,-2,2,0,-1,-7,-10,-5,-2
1529292368642960,-4,-1,0,-2,-1,4,0,1
1529292368658923,1,0,-1,3,1,-5,-3,-1
1529292368658923,-2,-3,-3,-5,-12,11,0,-2
1529292368673876,0,0,-1,3,7,-5,1,0
1529292368673876,-1,-1,1,6,1,0,-1,1
1529292368680861,-1,3,2,-4,9,6,2,2
1529292368680861,-2,0,-3,2,9,11,2,-1
1529292368695818,1,-3,-4,-10,-6,1,-2,-1
1529292368695818,0,0,3,9,7,-1,0,0
1529292368702799,-2,-3,0,-6,-16,-10,-5,-3
1529292368702799,-1,0,1,3,4,-6,-2,-1
1529292368725741,-3,-6,-2,-2,-3,-5,-1,1
1529292368725741,1,0,1,-3,1,-5,-2,-3
1529292368740701,7,8,4,11,4,2,3,2
1529292368740701,-2,0,-1,-2,-7,2,1,-3
1529292368748847,-3,-3,0,7,0,-4,1,0
1529292368748847,-5,-8,-1,4,-1,-3,0,-2
1529292368763973,-1,-7,-1,2,-1,0,-1,0
1529292368763973,1,2,2,1,-2,-1,1,3
1529292368778580,-2,-3,-3,-1,-1,-8,-2,-4
1529292368778580,0,0,2,-2,-2,-4,-2,-1
1529292368793718,-1,-4,-1,1,0,-1,-4,0
1529292368793718,-2,-2,1,-2,-1,2,0,1
1529292368808499,-1,-1,-1,2,2,-3,-2,3
1529292368808499,0,-1,-1,-3,0,0,1,2
1529292368830440,-4,-8,-4,-2,-2,0,1,-3
1529292368830440,6,7,4,-1,-4,0,0,-3
1529292368838422,12,15,9,4,-1,3,5,2
1529292368838422,-1,-6,-2,-7,-10,-3,-3,-2
1529292368860360,0,5,4,-14,-7,-7,-2,-2
1529292368860360,-4,2,-3,-4,-7,-4,-4,-2
1529292368876317,10,20,14,14,10,2,3,6
1529292368876317,5,7,5,7,8,3,0,2
1529292368891277,-6,-17,-9,-3,-3,3,-1,-5
1529292368891277,-4,-5,-2,-3,-6,6,-2,-2
1529292368906287,-2,-3,0,0,2,-2,0,3
1529292368906287,1,0,1,2,11,-6,1,2
1529292368921243,2,3,3,-2,-13,-1,-1,1
1529292368921243,-1,-2,-1,0,-5,-5,0,1
1529292368936195,0,-2,-1,0,-8,-3,-1,0
1529292368936195,0,9,2,2,5,7,-2,1
1529292368943177,-2,-3,-7,0,3,6,-1,-2
1529292368943177,5,3,-1,-1,5,5,1,-2
1529292368958136,-4,-7,-6,-6,2,-4,-2,-1
1529292368958136,2,1,2,6,3,-1,-2,-2
1529292368973058,3,2,2,1,4,-1,-1,1
1529292368973058,2,0,-1,-1,-10,-6,-3,-1
1529292368981036,-5,-3,-3,-2,-8,0,0,-3
1529292368981036,-5,-4,-6,-6,-6,-5,-1,-4
1529292368995996,-2,-3,-3,-15,-7,3,-2,0
1529292368995996,4,0,3,1,2,0,6,2
1529292369002978,-6,-7,-5,-1,2,0,-2,-5
1529292369002978,-1,-1,-1,-1,4,9,3,1
1529292369017937,2,1,1,-2,5,1,0,-1
1529292369017937,2,-3,-1,0,6,-7,-3,-1
1529292369040877,-8,-8,-8,-1,-2,2,-5,-8
1529292369040877,-1,-8,-5,-1,6,3,-2,-1
1529292369047857,7,8,5,5,2,0,1,7
1529292369047857,1,4,4,5,1,2,4,4
1529292369063817,0,5,2,4,6,3,2,4
1529292369063817,-4,1,1,-1,0,5,-2,-3
1529292369070797,-7,-9,-6,-5,-3,-4,-4,-4
1529292369070797,-1,-4,-3,-9,-2,19,1,-1
1529292369078778,-1,-3,-2,0,-5,2,1,-1
1529292369078778,0,1,-3,-2,-2,-6,1,-3
1529292369093769,0,3,1,0,-5,-4,1,0
1529292369093769,1,1,-1,-6,-5,3,1,3
1529292369100718,1,-4,-1,1,-3,-3,-2,-2
1529292369100718,1,-2,1,-1,-5,-6,-1,0
1529292369123658,1,1,2,1,-6,2,1,0
1529292369123658,1,0,-3,-9,-4,-6,-3,-1
1529292369130684,-3,-1,-2,-3,-4,-3,-4,-3
1529292369130684,-6,-2,-3,1,-1,-4,-3,-1
1529292369145597,1,0,3,2,-4,1,3,1
1529292369145597,-4,-3,0,0,3,-6,-7,-6
1529292369160596,2,-2,2,2,-2,3,-1,2
1529292369160596,1,1,1,5,-3,-4,-2,2
1529292369175518,-2,1,3,2,-4,-3,-1,-1
1529292369175518,-3,1,0,-1,-7,-5,-2,-2
1529292369183496,-4,-2,-3,-2,7,-2,2,-2
1529292369183496,0,-4,-3,-5,-6,-4,-1,-6
1529292369198473,0,-3,-5,-6,-1,-3,-1,0
1529292369198473,2,-2,-2,-5,1,3,2,-2
1529292369220398,1,-2,2,0,-2,3,1,1
1529292369220398,-4,-6,-3,1,3,0,0,-1
1529292369228378,-1,4,1,-3,2,3,0,1
1529292369228378,-2,4,2,1,2,1,1,2
1529292369243338,-6,3,-2,3,1,-5,-4,1
1529292369243338,-1,2,1,13,4,4,0,1
1529292369251315,-2,1,-1,4,5,4,3,2
1529292369251315,-2,0,-1,-2,-14,-4,0,1
1529292369266427,-2,0,1,4,-8,-8,-1,-1
1529292369266427,0,2,1,-2,3,2,2,-1
1529292369281407,-3,-6,-5,-4,1,-1,-4,-5
1529292369281407,-1,-4,-2,-1,7,8,0,-1
1529292369295760,-2,-1,3,6,-6,-1,-1,1
1529292369295760,1,0,-1,2,29,8,4,2
1529292369304058,1,0,-2,7,-12,-6,-2,-2
1529292369304058,-1,-2,0,1,5,-10,-3,-1
1529292369318879,-2,0,-1,-1,4,0,-1,-2
1529292369318879,-3,-1,-1,3,-2,-4,-3,-2
1529292369340820,0,-2,-6,-8,8,7,2,-1
1529292369340820,3,-1,0,-1,-8,-4,2,-1
1529292369348993,1,-1,-2,-4,2,-1,1,-1
1529292369348993,-1,3,2,6,-5,-1,-4,2
1529292369363937,-1,-1,-1,0,-4,-6,-2,4
1529292369363937,-1,-2,-2,-7,-9,0,-2,1
1529292369370739,-3,-5,-4,-2,7,4,0,-2
1529292369370739,0,-1,-1,-1,-1,0,0,-1
1529292369385864,3,1,3,2,2,-2,-2,1
1529292369385864,3,0,-1,-1,-2,3,-1,-2
1529292369400826,-2,-2,3,-3,0,-4,-1,2
1529292369400826,-5,-3,-3,-2,-5,1,0,0
1529292369430819,-1,-1,2,-5,-4,0,3,-1
1529292369430819,1,2,1,0,-6,0,1,-1
1529292369438920,0,0,-1,0,2,0,-2,0
1529292369438920,2,-1,1,0,1,0,0,2
1529292369453759,-1,1,-3,1,3,1,2,1
1529292369453759,-2,2,-1,0,-1,-2,1,0
1529292369468692,1,0,-1,3,-2,-3,1,-2
1529292369468692,-1,-1,-2,-8,-3,-2,-3,-4
1529292369483652,-1,0,-2,2,1,-1,-1,1
1529292369483652,-1,-1,-2,1,0,0,-1,-1
1529292369498615,2,-2,0,1,1,-2,1,1
1529292369498615,2,-1,1,-5,2,1,0,1
1529292369513752,0,-1,-1,-2,0,1,-2,-2
1529292369513752,1,-3,-2,3,-1,0,-2,-1
1529292369520563,-1,1,-1,-10,0,-1,-1,-1
1529292369520563,-2,0,-2,0,-3,-2,-1,0
1529292369535517,-1,1,1,1,-4,-2,2,2
1529292369535517,-1,3,2,3,-6,-2,-2,-1
1529292369543802,-1,1,0,3,-9,4,2,-3
1529292369543802,4,-4,-2,-7,-3,-3,0,-1
1529292369558618,-3,-2,0,-1,-1,2,-1,-1
1529292369558618,-1,1,-3,2,1,-1,-1,-1
1529292369581431,-3,-2,-2,1,1,-3,-1,0
1529292369581431,-1,-2,-2,-3,-1,0,0,2
1529292369596480,-1,-3,-2,1,0,-2,-1,1
1529292369596480,-2,0,2,5,1,2,2,1
1529292369611311,1,-1,1,-1,0,-2,0,2
1529292369611311,-1,-2,0,1,-2,1,-1,1
1529292369618474,-2,0,0,0,-1,-3,-3,1
1529292369618474,-1,-1,-1,-1,0,1,1,0
1529292369633255,-1,0,0,2,2,-1,0,-2
1529292369633255,-2,3,1,-1,0,-2,0,-3
1529292369656310,3,1,-1,-9,-4,-2,-2,3
1529292369656310,-1,2,0,-6,-1,-1,-2,-2
1529292369670973,2,-2,-1,0,0,0,2,-2
1529292369670973,2,-1,0,-1,-1,0,1,-1
1529292369685936,-3,0,0,3,3,-2,0,0
1529292369685936,-1,0,1,1,2,-1,-2,2
1529292369701115,-1,1,0,0,-1,0,0,-1
1529292369701115,-1,-4,-1,0,0,0,0,-2
1529292369716082,1,-2,1,1,1,-1,-2,2
1529292369716082,1,0,-2,-1,-1,-3,-4,0
1529292369731304,0,2,-3,0,0,-1,-2,-4
1529292369731304,-2,-1,-3,-2,-3,-2,1,-2
1529292369746143,-2,-2,0,-6,-3,-2,-2,1
1529292369746143,0,-2,2,2,0,-1,-1,2
1529292369768128,-3,-1,-2,3,-1,-1,0,-1
1529292369768128,-3,-2,0,-1,1,0,0,1
1529292369776096,-2,-1,2,3,0,0,-1,-2
1529292369776096,-1,1,-1,1,1,0,-1,-2
1529292369791350,4,-1,-3,-2,1,-1,2,-1
1529292369791350,5,0,-3,-3,-1,-1,0,2
1529292369806233,-4,1,0,1,1,1,0,2
1529292369806233,-5,-4,1,1,-1,2,-1,-1
1529292369821189,1,-1,0,0,0,0,0,-2
1529292369821189,1,1,-2,0,-3,-2,-1,-3
1529292369835981,1,0,-1,0,-1,-1,-1,-4
1529292369835981,2,0,0,0,3,0,-2,-1
1529292369843989,-1,-2,-1,-2,-3,-4,2,2
1529292369843989,1,-1,-1,-4,-1,-1,1,2
1529292369858335,1,0,0,0,0,2,-1,0
1529292369858335,-1,-1,0,0,-1,2,0,-1
1529292369873283,-1,-1,-1,-2,-1,0,0,-3
1529292369873283,-2,-1,-1,-4,0,0,1,0
1529292369881269,-3,-1,0,0,-1,-1,-1,0
1529292369881269,0,-1,-2,2,-2,0,-2,1
1529292369896074,0,-1,-1,1,1,-2,-2,1
1529292369896074,1,-1,-1,0,-2,-2,-2,1
1529292369904052,-1,-3,2,-3,-1,-2,0,0
1529292369904052,0,-2,2,-1,3,0,-2,0
1529292369919011,2,2,-2,0,-1,-1,-1,-3
1529292369919011,-4,0,-1,0,0,-2,-1,-3
1529292369933333,-2,-3,0,-2,-1,0,1,0
1529292369933333,-1,-3,0,-1,0,1,1,-1
1529292369941298,-3,-1,-3,3,-2,0,-1,-1
1529292369941298,-1,0,-1,0,-2,1,-1,0
1529292369956109,3,1,1,-7,-1,0,0,3
1529292369956109,0,1,1,0,-2,0,0,-1
1529292369963091,-2,2,-1,0,0,-1,3,0
1529292369963091,-2,2,-1,3,2,0,2,-1
1529292369978051,-3,-5,0,3,0,0,-1,-1
1529292369978051,-3,-3,0,0,1,3,-2,-2
1529292369986197,-1,-2,-2,1,1,-1,-2,-1
1529292369986197,1,-1,-2,-4,-4,-1,-1,0
1529292370008153,4,0,-2,-2,-1,-2,-2,-1
1529292370008153,0,2,0,2,-1,-1,0,3
1529292370024036,-1,-2,-4,-1,-1,-1,-3,0
1529292370024036,-1,0,-2,0,-4,1,-1,0
1529292370038892,-2,-2,-1,-6,-3,0,0,-1
1529292370038892,2,-2,2,-2,0,-3,1,-1
1529292370054058,-3,-3,1,2,1,-3,0,-1
1529292370054058,-2,-3,-2,-1,0,-2,0,-2
1529292370060830,0,-2,-1,2,2,0,-2,0
1529292370060830,0,-3,-4,-1,-1,-1,2,0
1529292370068809,-2,-2,2,0,0,0,-1,0
1529292370068809,3,0,0,-5,-3,-1,-2,0
1529292370083773,-2,-1,1,1,0,-2,0,3
