timestamp,emg1,emg2,emg3,emg4,emg5,emg6,emg7,emg8
1528873318519568,-3,-11,6,7,3,1,2,-1
1528873318519568,0,5,-4,-13,-12,0,0,2
1528873318527556,-3,0,7,-1,-3,-1,-1,-1
1528873318527556,-2,-13,-5,9,3,3,0,-1
1528873318542505,3,12,-9,-12,0,-14,-8,0
1528873318542505,-1,-2,20,10,4,9,-1,0
1528873318549487,1,10,-18,-11,4,-9,-1,7
1528873318549487,-7,-29,-16,-15,-16,3,2,-8
1528873318564447,-4,6,13,28,10,-7,0,-6
1528873318564447,16,64,26,1,0,-2,1,-3
1528873318572425,12,-4,2,10,3,8,1,15
1528873318572425,-7,-15,2,-9,2,0,1,12
1528873318587387,6,25,5,-11,-4,3,5,1
1528873318587387,-1,-18,-26,-1,6,-3,-5,-3
1528873318602392,-2,10,22,-4,-11,1,2,5
1528873318602392,3,-17,-6,-12,-2,-6,4,-3
1528873318609374,-3,38,17,7,8,12,0,-5
1528873318609374,9,32,4,-8,-5,-4,-3,12
1528873318632320,2,-23,-21,4,3,0,-2,-7
1528873318632320,-15,-26,-7,3,2,1,-2,-21
1528873318639301,-4,-31,-25,-7,-8,-9,-5,-3
1528873318639301,0,17,26,16,4,5,1,-4
1528873318654243,-18,-60,-8,-4,-6,2,-4,-9
1528873318654243,-3,17,1,-4,-4,-3,-3,-7
1528873318677147,1,-10,-2,6,6,-3,-1,2
1528873318677147,-10,-39,-7,9,1,-1,3,5
1528873318692107,-6,-36,-19,7,-2,5,-1,-5
1528873318692107,-6,-20,-31,-39,-6,0,-1,-4
1528873318700100,-11,-14,18,17,5,-1,-8,-2
1528873318700100,7,64,18,1,-2,-6,-2,-4
1528873318715044,-14,-38,-40,-13,-3,-1,4,2
1528873318715044,1,2,-11,-20,-7,1,6,5
1528873318730005,-14,-77,-32,7,6,-3,-1,-10
1528873318730005,3,50,19,7,0,1,-2,1
1528873318744970,19,44,-4,-19,-2,4,6,9
1528873318744970,9,27,31,10,4,2,5,14
1528873318751947,-2,4,-11,9,0,0,-2,-12
1528873318751947,13,19,12,-14,-3,0,-5,3
1528873318766940,-6,3,0,-3,-4,-3,3,8
1528873318766940,-8,-8,-22,-23,-9,-2,-4,-9
1528873318781893,0,10,26,9,0,-9,-9,-17
1528873318781893,-17,-61,-41,13,-3,-1,0,-4
1528873318789897,1,40,16,-22,-9,-2,3,12
1528873318789897,6,7,20,32,10,1,-3,-11
1528873318811817,-7,-15,-22,-19,-8,5,2,8
1528873318811817,14,29,1,-4,-3,0,2,5
1528873318819765,12,12,25,29,19,7,0,-2
1528873318819765,-7,-31,-1,0,-3,-2,3,0
1528873318834787,9,29,13,-16,-15,-4,0,-3
1528873318834787,1,0,7,11,9,1,-1,-1
1528873318856718,-2,-1,6,5,4,11,-2,8
1528873318856718,6,-5,-11,-26,-7,-5,-4,-6
1528873318871679,11,2,2,24,5,0,3,3
1528873318871679,-5,9,12,5,9,9,0,7
1528873318879604,2,11,-7,-19,-11,-8,0,-5
1528873318879604,0,-21,-18,-5,-9,-10,-1,-2
1528873318903596,20,23,16,-12,1,-2,2,7
1528873318903596,-5,-14,-19,-21,-5,3,-3,-4
1528873318917504,9,2,1,4,4,4,0,0
1528873318917504,13,-13,-13,2,-1,4,5,10
1528873318932464,-12,5,16,5,2,3,-4,-9
1528873318932464,11,8,6,6,-2,-21,-12,2
1528873318939474,-19,-2,6,23,0,1,4,-7
1528873318939474,-6,-2,-9,-23,3,0,-1,-7
1528873318947423,-2,1,2,24,2,-1,-1,13
1528873318947423,-3,-4,5,-3,-3,0,-1,-3
1528873318962383,-8,-6,-1,5,5,1,2,-3
1528873318962383,1,5,2,13,-2,-1,0,0
1528873318969417,-1,0,-2,-7,-3,-5,-2,-4
1528873318969417,-12,-5,0,4,-3,1,2,-1
1528873318984381,7,-2,-5,-19,-9,-4,-2,2
1528873318984381,-5,3,-1,-11,-9,-4,-5,0
1528873318992360,-6,-2,-1,7,3,3,4,-3
1528873318992360,16,-1,2,4,5,1,-1,5
1528873319007319,-2,0,0,5,1,-4,-5,-2
1528873319007319,7,3,2,-3,-12,-5,7,2
1528873319022223,-1,-3,-5,1,7,9,-6,1
1528873319022223,-18,-4,0,12,16,10,3,-5
1528873319045242,-6,-3,-5,-17,-5,-4,-5,-10
1528873319045242,14,3,10,31,31,-7,-1,12
1528873319060142,-5,1,1,-9,-3,-5,-1,-4
1528873319060142,2,2,-2,-10,-8,-3,3,4
1528873319067259,-5,-2,1,-7,5,8,4,-3
1528873319067259,-9,-2,-3,4,-20,-9,-16,-7
1528873319084088,-1,1,3,-6,-8,-9,-3,-1
1528873319084088,-9,-5,1,8,-1,4,2,0
1528873319090199,5,1,5,7,9,-2,-13,0
1528873319090199,-31,-6,-8,-13,-14,5,8,-10
1528873319105158,41,8,5,34,19,5,-13,1
1528873319105158,-7,-1,-2,-21,-5,1,16,5
1528873319112141,0,-1,-5,-6,-21,-17,1,-1
1528873319112141,13,-2,-5,-7,5,-5,-13,-4
1528873319135080,3,0,-9,-21,-5,7,-9,1
1528873319135080,-8,1,10,-4,3,-2,-7,-1
1528873319150061,-10,-8,-8,4,-5,1,9,-1
1528873319150061,11,3,1,8,6,1,-4,4
1528873319157237,-5,-1,-5,-17,-10,-9,3,2
1528873319157237,6,0,1,-6,4,6,7,0
1528873319179544,-5,-1,5,-3,-1,3,2,-1
1528873319179544,-4,2,11,28,16,3,-5,-4
1528873319195364,-21,-6,2,15,-2,4,0,0
1528873319195364,31,9,4,-29,1,3,15,6
1528873319209323,-34,-9,-17,-13,-3,1,-1,0
1528873319209323,27,3,1,-5,-5,0,-1,-3
1528873319217286,3,1,2,-3,4,6,6,4
1528873319217286,-16,-4,6,33,8,4,-1,-6
1528873319224325,0,-2,-14,-36,-11,3,5,1
1528873319224325,-20,-6,-3,-6,-4,2,-3,-7
1528873319232246,10,1,1,11,6,-1,-1,1
1528873319232246,-8,-1,2,12,-3,-1,-2,-2
1528873319247553,8,-1,-2,-8,-1,6,-2,-13
1528873319247553,-9,0,1,1,-5,-22,-5,2
1528873319262678,-8,-8,-16,-13,-17,1,6,1
1528873319262678,11,9,13,22,8,3,-16,-1
1528873319270494,1,1,-6,-9,4,2,17,13
1528873319270494,-2,-5,-5,-7,-5,1,2,-8
1528873319284493,3,0,0,-3,-7,-3,-26,-1
1528873319284493,-8,-5,-1,16,3,-3,14,1
1528873319292592,14,0,-1,-10,-9,4,-3,-2
1528873319292592,1,-8,-23,27,24,13,0,-1
1528873319307552,-5,9,13,-29,6,7,-5,-1
1528873319307552,2,0,-1,-2,-15,-5,6,0
1528873319329473,3,0,-10,-28,-15,-15,-6,6
1528873319329473,-5,-5,3,7,12,6,-9,-7
1528873319337347,-3,-12,-17,17,-27,-8,10,0
1528873319337347,5,14,25,7,27,-6,-3,2
1528873319352414,-4,1,2,2,5,10,9,-2
1528873319352414,4,2,-6,-16,-15,-3,2,-1
1528873319367282,-1,1,10,9,30,4,0,1
1528873319367282,-7,-11,-17,-16,-8,7,-3,-1
1528873319375292,-8,-1,6,12,-2,7,5,-4
1528873319375292,6,-6,-10,-19,-1,-7,-4,-10
1528873319382399,-29,-9,-5,11,3,-7,-12,-7
1528873319382399,56,16,12,-6,-9,7,5,22
1528873319390263,6,1,-10,-7,2,-4,3,-4
1528873319390263,-7,-4,-5,-24,-20,2,-2,-2
1528873319397358,-15,2,3,27,0,4,-5,-7
1528873319397358,-11,4,13,-3,-2,-1,-4,-5
1528873319412318,-1,-8,-6,-13,-9,-6,-12,-6
1528873319412318,1,4,8,3,0,0,-1,2
1528873319427328,3,-5,-12,-4,-2,10,6,-2
1528873319427328,-7,3,5,5,-4,-33,6,-2
1528873319435306,14,4,5,14,7,-13,-5,2
1528873319435306,-5,-10,-6,-2,-8,4,-10,-10
1528873319442452,-12,-5,-3,16,19,3,20,9
1528873319442452,25,8,3,2,9,5,-1,10
1528873319449973,1,0,-2,-10,-4,0,3,5
1528873319449973,-17,-9,-7,9,-4,2,-2,-7
1528873319464826,33,6,-4,-11,-5,4,-3,5
1528873319464826,-9,-2,1,4,-1,-2,-4,-3
1528873319471934,2,-3,2,12,7,-3,3,1
1528873319471934,-15,1,-4,-2,4,14,5,3
1528873319487096,-1,-4,-7,-19,6,2,-3,-4
1528873319487096,1,-1,-2,3,1,0,-2,-1
1528873319495071,5,2,3,-3,3,7,-1,1
1528873319495071,-7,-8,3,12,2,-2,0,-5
1528873319502297,-2,3,0,-7,0,-3,5,1
1528873319502297,0,-4,-9,-3,-7,6,-18,-3
1528873319510116,6,3,0,-8,-7,-2,15,4
1528873319510116,-2,-4,-6,0,-15,-17,4,6
1528873319525194,-8,-4,-7,-15,-4,5,-6,-16
1528873319525194,-9,-2,4,8,11,2,2,-3
1528873319532008,12,3,-4,-7,-4,1,-7,1
1528873319532008,5,-3,-3,-14,-13,5,3,1
1528873319555091,-3,-2,-3,18,21,18,-4,2
1528873319555091,-9,0,4,-3,-5,-4,-1,-4
1528873319561928,1,0,2,-1,-5,2,0,2
1528873319561928,3,0,-1,-12,2,-5,-4,-4
1528873319570062,-6,-3,-6,2,-17,-6,7,1
1528873319570062,1,-5,-13,7,-1,0,-11,2
1528873319576889,-1,-4,-2,5,9,6,-1,8
1528873319576889,-2,11,17,-16,-10,0,5,-3
1528873319599838,1,0,0,2,-2,-9,-6,-2
1528873319599838,3,2,3,-21,-5,6,9,3
1528873319615003,4,0,6,23,9,-7,4,5
1528873319615003,1,-2,-11,-28,-10,1,4,0
1528873319621980,-3,3,3,-7,-2,-1,-5,-5
1528873319621980,-1,-2,-1,5,1,3,-5,0
1528873319630099,-2,-1,-3,-6,-3,-7,-3,3
1528873319630099,3,0,6,7,-8,0,0,2
1528873319644919,-9,-6,-5,-15,-18,6,10,-7
1528873319644919,-66,-9,-3,18,22,-2,-9,-14
1528873319652268,87,17,3,-9,0,-3,1,25
1528873319652268,-8,2,3,10,-1,-3,-3,-1
1528873319660085,5,0,-2,-13,-1,6,9,9
1528873319660085,-8,-6,-5,2,-1,2,3,-5
1528873319675322,-34,-6,4,-4,-5,7,-9,-14
1528873319675322,7,0,1,12,29,-3,5,6
1528873319690319,1,2,-1,-1,-12,6,0,-3
1528873319690319,11,-3,-14,-12,6,2,3,4
1528873319697213,-15,-4,5,12,13,0,-4,-5
1528873319697213,14,7,6,-3,-3,-4,-1,3
1528873319712326,-6,0,3,-5,-13,-3,-2,-2
1528873319712326,-10,-2,-4,-3,-8,3,3,-2
1528873319720306,1,1,6,4,11,1,-5,-4
1528873319720306,9,1,-2,-2,-21,5,7,3
1528873319750098,6,3,4,-9,5,-12,0,0
1528873319750098,12,2,3,6,-4,0,-2,3
1528873319757192,-19,-5,-6,-8,-4,1,0,-5
1528873319757192,2,1,-1,1,5,-4,-4,-1
1528873319765302,3,-2,-6,-7,-1,3,4,1
1528873319765302,2,1,4,18,8,1,-15,-2
1528873319787519,-4,-1,1,-4,-1,-3,9,4
1528873319787519,0,-3,-2,11,8,1,-2,-4
1528873319795335,-4,-4,-4,-8,-6,-5,-3,-3
1528873319795335,1,0,2,5,0,1,0,-2
1528873319802477,-3,-3,-6,0,7,-1,-1,7
1528873319802477,2,0,2,3,-2,-3,-2,-7
1528873319809454,-2,-1,2,-3,-2,2,0,-2
1528873319809454,-2,1,-2,-3,-3,-7,3,3
1528873319817433,-2,-1,-1,4,3,-1,-3,-4
1528873319817433,-1,-2,-4,-4,-1,-1,0,2
1528873319839736,-2,3,3,2,3,1,3,-1
1528873319839736,-1,-4,-4,-1,-4,-3,-2,-1
1528873319854697,-4,-2,-2,-1,0,0,1,-3
1528873319854697,-2,1,5,12,1,3,0,1
1528873319862799,-1,-6,-16,-16,-2,1,-2,-1
1528873319862799,0,6,14,-1,-2,-4,1,-1
1528873319876802,1,-1,3,1,3,-3,0,1
1528873319876802,1,1,-4,-6,-4,-1,-1,-2
1528873319884948,1,1,0,1,10,3,1,-2
1528873319884948,0,0,-5,0,-3,-3,1,0
1528873319892817,-2,-8,-11,-10,-6,-2,-1,-1
1528873319892817,3,6,20,5,-1,3,0,0
1528873319900173,-1,-4,-6,-1,-4,2,-1,-2
1528873319900173,1,2,5,4,5,1,-1,1
1528873319915267,0,1,-1,-5,-3,-1,0,-1
1528873319915267,-2,-5,-7,-6,-3,-1,1,-3
1528873319922323,0,4,3,10,-1,0,-2,-1
1528873319922323,2,-1,2,-4,0,-8,-4,0
1528873319930121,0,-1,-2,0,1,-2,-4,-2
1528873319930121,-1,-4,-3,-3,-11,-3,2,-2
1528873319944925,-3,-3,-2,-2,13,-5,-3,-1
1528873319944925,-2,-3,-8,-1,-8,-7,-4,-2
1528873319951917,2,2,2,4,1,1,-1,0
1528873319951917,-1,-3,-5,-10,-9,-4,0,-1
1528873319966870,0,2,-2,5,0,2,1,1
1528873319966870,-2,-2,-1,0,1,2,1,-2
1528873319974991,0,-1,2,4,6,0,1,-2
1528873319974991,1,1,2,0,2,0,-1,-1
1528873319982851,-1,-2,-1,-3,-5,2,1,1
1528873319982851,0,-2,-2,-5,-1,-1,0,-2
1528873319989961,-1,0,2,4,-1,2,-1,0
1528873319989961,1,-1,-1,-2,2,-2,-1,1
1528873320004766,-1,2,3,5,3,-9,-4,-1
1528873320004766,-1,-2,-7,-3,-1,1,0,0
1528873320011746,0,-1,0,0,-3,4,-1,-2
1528873320011746,0,-1,0,1,6,4,1,1
1528873320027725,-1,-3,-3,-2,-4,-2,-2,-1
1528873320027725,0,-3,-1,-2,-1,1,0,0
1528873320034686,-2,0,-1,-4,-1,2,1,-2
1528873320034686,0,0,-2,2,-3,-1,-2,-2
1528873320042684,-1,0,0,-2,-6,-2,-1,-1
1528873320042684,0,0,-1,-3,1,6,2,-1
1528873320057623,-1,0,2,2,-2,-8,-1,-1
1528873320057623,-2,-1,-1,1,3,0,-1,-2
1528873320072583,0,-1,-1,-1,-1,-2,0,-1
1528873320072583,-3,0,0,-4,-1,2,1,-2
1528873320079565,0,-1,0,-1,1,-2,0,0
1528873320079565,0,-2,-2,1,1,-1,1,0
1528873320102559,0,3,4,8,0,2,-1,1
1528873320102559,-1,-1,-6,-11,-2,-2,0,1
1528873320109540,-3,1,1,0,0,-4,-10,-3
1528873320109540,0,-2,-4,2,-1,0,3,2
1528873320120493,2,1,0,-4,-2,2,0,0
1528873320120493,-2,-1,0,5,2,0,-2,0
1528873320124499,0,1,0,1,0,-4,3,-3
1528873320124499,0,0,0,-5,1,1,0,1
1528873320132479,-1,1,11,5,-2,1,-1,-2
1528873320132479,2,1,5,-1,-4,-2,2,-1
1528873320154366,0,-5,-11,-3,0,-1,-1,1
1528873320154366,-1,6,20,8,-1,-3,-2,-1
1528873320162372,-2,-6,-13,-6,0,1,3,1
1528873320162372,-3,-3,-4,-4,-2,-1,-3,-1
1528873320169378,-1,1,8,7,-2,-2,-1,0
1528873320169378,0,-4,-8,-6,-5,0,-2,0
1528873320177305,-2,-2,-5,-1,2,0,-2,-2
1528873320177305,3,5,6,5,4,3,1,0
1528873320184341,-1,-6,-4,-2,-4,-3,0,0
1528873320184341,0,0,-4,-3,3,0,-1,-3
1528873320215203,-1,0,-2,-1,0,0,0,-2
1528873320215203,0,-2,1,0,1,-1,-2,0
1528873320222239,-1,-1,-12,-5,-3,-2,0,-1
1528873320222239,1,3,17,4,-1,0,0,-2
1528873320230226,-2,-4,-9,10,1,-1,-1,0
1528873320230226,-1,-3,-2,-15,-4,-2,0,-2
1528873320245178,0,-1,0,3,1,-1,1,1
1528873320245178,-1,2,-2,5,2,-1,0,-1
1528873320252159,0,0,4,-5,-3,-3,0,2
1528873320252159,0,-4,-3,1,-2,-1,-1,-1
1528873320260118,-1,-3,-3,-5,0,0,0,-2
1528873320260118,-1,-3,-3,-2,-1,0,-1,-3
1528873320275096,-1,-1,-6,-3,-1,-1,-1,-2
1528873320275096,0,1,4,7,-1,-1,0,-1
1528873320282052,1,1,3,-3,-1,0,-1,-1
1528873320282052,-2,-4,-15,-4,-1,0,1,-1
1528873320290003,0,1,8,-2,-2,-1,-1,-1
1528873320290003,0,-2,-6,-1,1,-1,-2,0
1528873320296985,0,2,3,2,0,0,0,0
1528873320296985,-2,-1,-1,0,0,-1,0,1
1528873320304964,0,-4,-9,-8,-1,0,0,-1
1528873320304964,0,2,10,4,-3,-2,0,0
1528873320311999,-1,-2,0,-1,0,-2,-1,1
1528873320311999,0,-2,-8,-5,1,1,0,0
1528873320334921,-1,2,6,-2,-1,-1,0,0
1528873320334921,-1,-3,-5,-1,-2,-1,-1,-2
1528873320341909,-1,-4,-4,-2,-1,1,0,-1
1528873320341909,-2,0,1,-1,-1,0,-2,-1
1528873320349843,3,3,-2,-2,1,0,-1,-1
1528873320349843,-2,-2,-6,-4,-1,0,1,-1
1528873320356825,-1,7,12,6,1,-1,-1,-1
1528873320356825,0,-4,-8,-4,-1,0,0,0
1528873320379774,-2,3,12,5,0,0,-1,-1
1528873320379774,-1,-4,-9,-3,0,0,1,-1
1528873320394723,1,-1,-2,-2,0,0,0,1
1528873320394723,1,3,11,5,-2,-2,0,1
1528873320402761,0,-1,-2,-1,-2,0,-1,-1
1528873320402761,-3,-6,-9,-5,-3,-3,-2,1
1528873320409889,0,-1,4,1,1,4,-1,0
1528873320409889,-1,2,1,-2,2,-3,0,0
1528873320416863,3,2,9,1,-1,1,1,1
1528873320416863,-1,7,-2,0,-4,-2,0,-1
1528873320424844,3,-2,-7,-4,1,0,-1,-2
1528873320424844,-3,-5,-6,0,0,1,0,-1
1528873320432864,1,2,0,0,-2,-2,0,0
1528873320432864,1,-2,2,0,1,0,0,1
1528873320447234,-3,-2,-4,-3,-2,-5,-2,-1
1528873320447234,0,0,4,5,1,1,-1,-1
1528873320454289,-1,-5,-5,-2,-2,-2,-2,-3
1528873320454289,1,2,-3,-3,-1,0,-1,-2
1528873320462270,0,-1,0,4,-1,1,0,2
1528873320462270,-1,-1,-11,-9,2,-1,-1,2
1528873320469251,0,7,15,-1,-2,-3,-2,0
1528873320469251,-1,-3,-2,-3,-1,1,-1,-2
1528873320485211,-1,0,0,2,-1,-1,0,-2
1528873320485211,-1,-7,-6,-1,-3,-1,1,-2
1528873320492340,-1,5,-5,-1,2,1,0,-1
1528873320492340,3,5,17,8,0,1,1,1
1528873320507587,-1,-3,-6,-4,-4,-3,-2,-1
1528873320507587,0,-1,4,0,-3,-3,-2,1
1528873320514567,-2,-5,-10,-3,1,1,-1,-1
1528873320514567,0,0,9,6,2,0,0,-1
1528873320522392,-1,-4,-17,-8,-2,-1,0,-2
1528873320522392,2,11,16,9,1,-1,1,0
1528873320537507,-3,-3,-6,-7,-1,-1,2,-1
1528873320537507,0,-9,-9,-4,-1,-2,0,1
1528873320545337,-1,1,0,3,-3,1,-1,0
1528873320545337,2,12,13,1,4,6,-1,1
1528873320567269,-1,-7,-3,3,-1,-1,-1,-1
1528873320567269,-5,-6,-3,-4,-2,-1,-1,-2
1528873320574448,0,0,3,1,0,-1,1,0
1528873320574448,-1,3,-6,-1,-3,-2,-1,-2
1528873320589586,-2,-4,-1,0,-1,-4,-1,-3
1528873320589586,-1,0,1,-5,-3,-3,-2,-1
1528873320612653,-2,-5,-5,-2,-3,-2,-2,-1
1528873320612653,-2,-9,-7,-2,2,1,0,0
1528873320619480,0,6,3,-1,-4,-1,-2,0
1528873320619480,-1,1,-2,2,2,0,0,-3
1528873320634772,-1,-10,-20,-3,1,2,0,0
1528873320634772,-1,3,15,3,-3,-1,-2,-3
1528873320649755,-2,-8,-3,0,0,-3,-1,-3
1528873320649755,-3,-7,-13,-9,-2,-2,-2,-1
1528873320671888,0,2,7,4,2,2,0,0
1528873320671888,-2,-7,-10,-2,2,0,-1,1
1528873320686818,-5,-6,-8,-3,-3,0,-1,-1
1528873320686818,1,-1,1,2,-2,-1,0,-1
1528873320695120,0,0,2,-1,1,0,-1,1
1528873320695120,1,5,1,0,-1,-1,1,0
1528873320709949,-3,-5,0,-2,0,-2,-1,-2
1528873320709949,-2,-8,-2,-1,-1,-1,-1,-1
1528873320725274,-1,0,0,-3,-1,0,2,0
1528873320725274,1,-4,-9,-2,-5,-1,-1,0
1528873320740230,-2,-6,-12,-4,0,0,-1,-1
1528873320740230,0,2,7,1,-1,-2,-2,-2
1528873320747050,0,1,4,-2,-2,-1,-2,1
1528873320747050,-1,-1,-4,-3,2,1,0,-1
1528873320762011,0,4,5,0,1,1,0,0
1528873320762011,0,-2,-3,0,0,-2,-1,0
1528873320776969,-1,2,6,4,2,1,1,0
1528873320776969,-1,-1,-4,-1,-3,-4,-1,-1
1528873320784948,0,0,2,-1,0,0,0,-1
1528873320784948,0,0,2,0,1,-1,0,0
1528873320800047,-1,-3,0,0,-2,1,-2,0
1528873320800047,-3,-3,-8,-2,-1,-1,-2,-1
1528873320807025,1,2,8,3,-1,2,-1,1
1528873320807025,-1,-2,-4,0,-1,-2,-2,-1
1528873320822847,-1,-1,1,0,-1,-2,-1,0
1528873320822847,1,3,0,-2,-2,1,0,2
1528873320837828,0,-2,0,1,0,-1,-1,0
1528873320837828,-3,-1,-1,-1,0,0,1,-1
1528873320844968,-1,0,-2,-1,1,-1,-2,0
1528873320844968,1,-2,-2,-1,1,4,2,-1
1528873320859847,-1,0,0,-1,1,-1,0,-1
1528873320859847,-1,-1,-1,-2,1,-1,0,0
1528873320867855,-1,2,0,-1,0,-1,0,0
1528873320867855,0,-2,0,-1,-3,-1,-2,-1
1528873320882864,0,0,-3,0,-2,0,1,2
1528873320882864,-1,-3,-2,0,-1,-1,-1,-1
1528873320896779,1,1,-2,0,0,-1,0,0
1528873320896779,2,1,1,-2,0,0,-2,-3
1528873320905303,-2,-1,-2,-3,-4,-3,-1,-2
1528873320905303,-1,0,-1,0,-1,-1,0,1
1528873320920297,-2,-2,-1,0,0,0,0,0
1528873320920297,0,0,0,1,-1,0,-1,0
1528873320927262,1,1,0,0,1,1,1,-1
1528873320927262,-1,-1,-1,-1,-2,-1,-1,-1
1528873320942720,-1,0,-1,0,-1,0,0,0
1528873320942720,-1,1,0,-1,-1,-1,-2,-1
1528873320957823,0,-1,0,0,-2,-2,0,1
1528873320957823,-1,-1,-3,0,-1,0,0,0
1528873320964858,1,-2,0,-1,0,0,0,-2
1528873320964858,1,-2,2,0,1,-1,-1,-1
1528873320979964,0,0,2,-1,0,-1,0,-2
1528873320979964,-1,-2,1,-1,-1,-1,-1,1
1528873320987085,-2,-1,1,1,1,-1,0,0
1528873320987085,-1,0,-3,0,-1,0,-1,0
1528873321002926,0,0,-2,-3,-2,-1,0,-2
1528873321002926,-1,0,0,-1,-1,-2,0,-1
