timestamp,emg1,emg2,emg3,emg4,emg5,emg6,emg7,emg8
1529285731307417,-13,-26,-26,-20,32,-2,-5,-8
1529285731307417,-4,-8,-8,2,0,-4,1,-13
1529285731324372,1,18,38,7,-2,-7,-1,1
1529285731324372,-2,-10,-25,2,25,6,-6,-1
1529285731330356,-1,16,40,36,4,8,2,1
1529285731330356,-1,2,9,2,4,1,0,-5
1529285731347311,7,6,-3,14,-8,-12,2,12
1529285731347311,9,20,22,2,-9,-2,0,-4
1529285731353296,3,-1,-14,1,-4,-8,-8,3
1529285731353296,-9,-19,-10,-30,-11,-1,-4,-3
1529285731362272,-8,-15,-10,8,8,14,10,4
1529285731362272,-1,-16,-18,-24,-10,-5,0,2
1529285731368256,4,3,6,1,0,2,3,1
1529285731368256,11,50,37,31,8,1,3,4
1529285731391194,-13,-29,-38,-19,-10,-3,-5,-9
1529285731391194,-2,-6,16,14,9,-7,-1,-9
1529285731392192,2,-5,1,-24,-14,2,1,4
1529285731392192,11,13,17,58,26,14,13,15
1529285731407152,6,16,-5,-25,1,-5,-4,-1
1529285731407152,-22,-49,-34,-21,-12,-7,-8,-14
1529285731413136,0,2,3,-10,-14,-8,-3,-11
1529285731413136,10,32,1,-16,-11,-3,-4,2
1529285731422112,-1,-4,2,10,9,0,1,3
1529285731422112,5,25,25,16,6,1,3,0
1529285731428096,-8,-5,0,2,-2,0,-7,5
1529285731428096,-11,-36,-39,-49,-18,-2,-2,0
1529285731444054,-8,-3,-3,27,-4,-6,-4,-1
1529285731444054,-3,-31,-15,1,12,1,3,4
1529285731450039,10,47,32,23,4,-2,6,0
1529285731450039,8,15,13,-3,4,-1,-1,-11
1529285731466991,7,12,-2,-35,-10,3,3,6
1529285731466991,-21,-20,-20,5,-3,-3,-3,-18
1529285731472975,-4,-16,-2,-6,8,2,-5,7
1529285731472975,6,-13,-9,13,7,0,-2,20
1529285731481951,-2,11,4,-21,-6,0,-1,-8
1529285731481951,-1,-8,-1,6,-6,2,2,-4
1529285731487938,5,-2,-17,-14,-1,8,8,-1
1529285731487938,-6,-27,-7,3,-3,1,1,-1
1529285731503900,10,26,24,59,22,5,-1,7
1529285731503900,13,37,16,-43,-11,-4,-4,2
1529285731509879,-11,-15,-11,-12,-7,-6,-7,-10
1529285731509879,-11,-14,-7,-12,-15,-3,-2,-16
1529285731526831,-9,-21,-17,10,21,2,6,9
1529285731526831,1,-1,-1,-15,-14,-10,-3,3
1529285731532815,-1,-18,-14,32,6,2,-3,-4
1529285731532815,1,24,41,23,7,5,3,6
1529285731541792,-4,3,-14,-18,-8,-7,-3,-2
1529285731541792,7,5,-3,-20,6,0,5,9
1529285731555755,2,6,-2,-7,0,-1,2,0
1529285731555755,-20,-31,-25,-10,-13,-6,-8,-14
1529285731564733,4,5,12,26,2,4,1,1
1529285731564733,5,3,5,-26,9,13,13,17
1529285731570715,4,14,4,22,-8,-12,-14,1
1529285731570715,-1,5,17,27,17,3,-5,-8
1529285731586670,0,-1,-6,-21,-17,-8,-9,-5
1529285731586670,4,-1,-27,-25,-19,-2,3,12
1529285731592655,-2,2,18,31,27,8,4,-4
1529285731592655,-1,1,-2,14,10,5,0,-1
1529285731601633,-7,-14,-11,-27,-18,-7,-4,-8
1529285731601633,-10,-11,-13,15,6,0,-10,-20
1529285731615596,-2,-10,-11,-15,-11,-2,2,6
1529285731615596,4,12,32,61,-2,-6,-3,-18
1529285731624570,3,-4,-7,-40,6,3,1,6
1529285731624570,7,11,13,39,5,-1,1,9
1529285731630554,4,3,-5,-11,-1,2,-2,-7
1529285731630554,1,-11,-9,-8,2,4,3,16
1529285731646511,-12,-36,-56,-33,-26,-11,-10,-20
1529285731646511,7,2,-15,-9,-8,-7,-3,0
1529285731652494,0,3,13,28,16,0,4,20
1529285731652494,-16,0,-7,-29,-22,-10,-6,-18
1529285731669452,-11,-3,-1,-7,-1,-3,0,8
1529285731669452,0,5,-3,-18,3,2,2,10
1529285731675466,2,-7,-27,-10,8,11,9,-5
1529285731675466,8,4,14,-76,-8,0,2,-4
1529285731684412,1,-3,8,31,2,3,3,3
1529285731684412,-4,5,9,14,2,-4,-10,-8
1529285731690395,6,7,10,33,11,3,1,4
1529285731690395,-2,0,-11,-47,-9,-6,0,-1
1529285731706351,3,0,15,23,14,2,3,-6
1529285731706351,3,13,18,-5,-8,-2,1,5
1529285731712337,-5,-8,4,-6,4,2,-4,-4
1529285731712337,3,-10,-45,-23,-10,3,2,16
1529285731722310,3,17,49,72,-6,2,-1,-6
1529285731722310,-10,-4,-5,14,14,5,-1,-7
1529285731735276,-7,-6,-12,-16,11,-3,2,-7
1529285731735276,-4,-17,-34,17,7,1,1,2
1529285731744251,8,28,68,35,16,10,7,1
1529285731744251,-7,2,-5,-33,-23,0,1,-9
1529285731750268,11,10,17,24,-3,-6,1,5
1529285731750268,-4,-8,-3,5,11,-4,-3,12
1529285731767187,-1,-21,-46,-49,-18,-8,-3,-3
1529285731767187,5,15,37,101,25,7,0,5
1529285731773219,-6,-1,1,-21,-28,-4,-1,-5
1529285731773219,-4,1,-5,-29,-5,0,-3,-1
1529285731782149,1,3,0,30,45,14,5,1
1529285731782149,4,5,27,17,4,-9,-3,-1
1529285731795116,4,-3,-26,-49,-23,-1,-2,4
1529285731795116,-4,-11,-8,36,-7,-6,-3,-5
1529285731804092,-6,-4,-11,-16,0,0,-4,-2
1529285731804092,-13,-18,-36,-65,-25,-3,-4,-12
1529285731810076,-2,-7,-36,30,30,6,4,3
1529285731810076,3,6,11,-7,-2,-3,0,-4
1529285731827031,5,-1,5,6,-15,-9,-6,-5
1529285731827031,-3,-23,-71,-90,-1,-9,-3,7
1529285731833012,-1,14,38,23,-21,1,0,-4
1529285731833012,1,8,16,44,53,15,6,6
1529285731841990,-2,-3,-19,-46,5,7,-1,-1
1529285731841990,4,7,19,54,-8,-3,-2,3
1529285731854953,0,14,31,-35,-3,-1,3,5
1529285731854953,4,-2,-24,6,-4,-4,-2,-1
1529285731863931,2,7,29,1,-7,-9,3,-1
1529285731863931,2,-4,-30,-35,13,11,-2,-8
1529285731869915,4,0,14,-9,-10,-6,-3,6
1529285731869915,-5,-10,5,-25,-16,1,-3,-4
1529285731886871,-3,-11,1,30,4,-3,-5,-3
1529285731886871,-4,5,7,-3,-1,-3,-1,-2
1529285731892854,-8,-16,-22,-12,-9,-1,1,1
1529285731892854,-6,-3,-18,-55,-25,-3,-4,-3
1529285731901831,4,-4,-20,-45,-6,-7,1,2
1529285731901831,-3,2,39,73,29,11,-6,-9
1529285731915794,-9,-10,-20,-32,-35,-6,-6,-12
1529285731915794,-2,-5,-10,13,27,5,-2,8
1529285731924772,2,10,0,-15,-7,7,5,1
1529285731924772,1,4,-3,-17,8,-6,-1,-4
1529285731930757,1,-5,-5,-2,-1,0,3,7
1529285731930757,-2,0,-8,-5,-20,-5,0,-3
1529285731947706,-8,-10,-11,43,19,1,-6,-4
1529285731947706,4,20,34,-7,-24,-8,-2,-7
1529285731952693,-6,-11,-13,9,0,-6,-1,5
1529285731952693,14,16,37,16,8,-2,7,9
1529285731961668,-2,-15,-40,-5,-4,15,9,4
1529285731961668,-1,2,31,87,25,-1,-5,0
1529285731975631,0,9,3,-1,-3,4,-5,-11
1529285731975631,1,4,0,-72,-16,-2,-2,2
1529285731984607,-9,-5,-5,9,-5,4,-1,-6
1529285731984607,-2,-14,-30,-22,-9,5,2,6
1529285731990590,8,-1,18,51,19,5,0,-10
1529285731990590,5,-4,11,32,-5,-6,-3,-7
1529285732005552,5,3,9,-9,28,1,2,0
1529285732005552,-3,9,-1,-25,-35,-14,-2,11
1529285732012531,-5,10,8,2,17,-2,-1,3
1529285732012531,-10,-8,-7,2,-12,1,-2,-3
1529285732021511,-8,-12,-13,-28,-9,-12,-6,-19
1529285732021511,-1,0,-2,-51,-6,4,4,11
1529285732035498,0,3,9,24,0,-3,-3,0
1529285732035498,-1,-1,-2,28,13,1,-1,-5
1529285732044447,4,3,4,-8,-22,-10,-3,9
1529285732044447,2,1,15,-4,-5,-2,5,-5
1529285732050431,3,7,47,41,25,7,0,-1
1529285732050431,1,-2,-3,23,-4,-2,3,3
1529285732066388,-1,3,12,-2,25,8,6,3
1529285732066388,5,-4,-12,-13,4,2,1,-2
1529285732072372,6,1,-18,-30,-8,-4,1,-3
1529285732072372,-6,-7,-5,-15,-4,0,-4,-1
1529285732081348,8,30,62,52,0,-4,0,12
1529285732081348,-11,-3,-6,42,-1,4,2,-4
1529285732095310,-3,-6,-23,-38,-16,-1,2,1
1529285732095310,-5,11,37,-25,24,-7,-5,-15
1529285732104287,6,-1,-15,-3,-41,0,2,11
1529285732104287,3,3,18,5,33,7,7,5
1529285732110271,-7,5,9,-11,7,-2,-5,-6
1529285732110271,-6,4,-5,-1,-21,-3,1,5
1529285732125231,-11,-14,-23,-19,-2,-3,-8,-26
1529285732125231,9,1,-15,8,-3,-5,-5,11
1529285732133211,10,6,23,14,8,7,5,2
1529285732133211,5,-9,-11,27,4,8,-1,15
1529285732142185,-3,0,-4,-16,-1,0,0,0
1529285732142185,-5,-11,-7,-18,-31,-11,-5,-13
1529285732155151,3,2,-14,-17,32,8,1,-6
1529285732155151,5,0,9,-9,-19,-11,-5,-1
1529285732164126,3,-4,-13,78,26,4,2,5
1529285732164126,4,10,33,-5,19,6,1,2
1529285732170111,-4,0,-6,-15,-16,-5,-3,3
1529285732170111,-1,1,9,37,10,2,-2,-1
1529285732185071,-6,-11,-19,-10,-13,-2,-3,4
1529285732185071,-10,-15,-50,-77,-18,-7,-10,-11
1529285732193051,-7,0,0,6,-12,-4,-2,-11
1529285732193051,-1,7,-9,-9,12,3,3,-2
1529285732202025,4,9,5,-11,-1,-7,-7,-7
1529285732202025,2,-4,-2,-21,19,8,14,18
1529285732224091,5,-8,-15,4,-55,-14,-6,7
1529285732224091,-4,-9,-15,-27,-8,-5,0,3
1529285732225962,0,0,7,8,-13,-3,-4,-6
1529285732225962,1,10,26,-9,0,-3,-8,-6
1529285732239192,-4,-11,-27,-56,-4,-2,-1,-2
1529285732239192,-2,0,-1,52,-5,0,0,-6
1529285732245126,0,-10,-17,-36,-9,-5,-2,2
1529285732245126,5,0,0,41,-5,2,2,-6
1529285732261710,-6,-5,2,-7,7,1,0,1
1529285732261710,-4,2,4,9,-11,-1,-2,-7
1529285732263519,0,9,21,-9,12,5,2,6
1529285732263519,-5,-2,-7,43,5,-5,-8,-17
1529285732275895,2,-6,-13,-70,-3,1,-1,14
1529285732275895,-2,0,5,-3,-14,-5,0,-3
1529285732284462,-4,-4,5,12,26,17,6,7
1529285732284462,3,4,-1,-9,-3,-4,1,-4
1529285732298542,-3,6,27,59,11,-5,-2,-10
1529285732298542,4,-2,-6,-21,-5,0,1,-4
1529285732305543,3,-3,-7,-27,-12,-2,0,4
1529285732305543,-2,5,5,-3,-7,0,-2,0
1529285732321657,-1,-7,-1,51,9,3,-4,-4
1529285732321657,-1,-2,-7,-61,8,8,-2,7
1529285732323474,1,-1,5,3,3,-3,-3,3
1529285732323474,-7,-10,-33,15,0,-3,-4,-5
1529285732335689,-2,10,26,13,-3,-2,0,4
1529285732335689,-2,1,-2,-18,4,0,0,-9
1529285732344635,-3,0,-8,24,2,-4,-1,12
1529285732344635,4,-3,7,16,-7,4,4,5
1529285732358809,-2,-9,-18,-2,14,5,5,-3
1529285732358809,10,8,20,-3,-12,-3,0,-6
1529285732365795,-1,0,10,7,-9,-4,0,-13
1529285732365795,-2,1,5,14,12,10,7,4
1529285732381753,-8,-4,-6,-5,-1,-8,-12,-8
1529285732381753,-4,-1,8,18,32,14,3,9
1529285732383746,4,10,19,-28,-33,-8,-3,-2
1529285732383746,-1,1,17,60,6,-6,-3,-2
1529285732396052,5,-6,-3,-4,-7,1,-1,-5
1529285732396052,1,-16,-39,-33,3,0,3,1
1529285732404741,3,6,11,27,30,7,4,5
1529285732404741,3,9,14,-14,-23,-9,-3,-3
1529285732418890,-2,5,4,-11,9,2,1,1
1529285732418890,2,-4,-11,7,16,-2,0,10
1529285732425871,-1,-14,-30,23,-9,6,4,-5
1529285732425871,1,3,30,-41,0,2,0,2
1529285732441669,7,11,21,7,-2,0,1,-1
1529285732441669,-5,4,10,16,-18,-6,-4,-9
1529285732443664,-8,-1,-5,-20,7,1,3,2
1529285732443664,-6,-6,-13,5,2,5,0,-1
1529285732455673,-2,-3,-12,0,-3,4,2,-1
1529285732455673,-4,-3,5,19,-7,-4,-2,-4
1529285732464609,3,9,39,11,7,2,1,-2
1529285732464609,6,-8,-24,-46,-11,-1,-2,2
1529285732478610,6,5,-6,-9,-1,-3,1,11
1529285732478610,-5,-2,-7,10,2,-2,-2,-4
1529285732485593,0,11,27,-2,-35,-17,-7,2
1529285732485593,-3,-1,-13,4,4,18,5,-5
1529285732501510,9,7,20,31,50,14,7,2
1529285732501510,4,6,9,-12,3,1,2,3
1529285732503505,-1,-3,-9,12,-9,-3,-6,1
1529285732503505,-1,-2,-25,-30,-6,-6,0,4
1529285732515508,-10,-18,-35,-24,-18,-7,-6,-8
1529285732515508,-2,9,32,24,-12,2,-2,-2
1529285732524449,1,5,10,-12,10,0,3,6
1529285732524449,5,2,1,13,-7,-11,-7,6
1529285732538460,-7,-6,-11,-4,4,2,-3,-2
1529285732538460,-4,-3,-26,-7,-16,-2,-2,0
1529285732545394,2,-5,-6,9,13,2,0,-8
1529285732545394,1,1,21,10,-1,-1,0,-4
1529285732561349,4,1,3,10,-19,-10,0,1
1529285732561349,5,-8,-8,-37,16,4,6,1
1529285732563344,-4,-9,-16,-31,-7,-6,-6,-5
1529285732563344,-2,-8,-13,15,17,3,2,-3
1529285732575312,-3,6,22,1,-5,0,-2,-12
1529285732575312,1,12,30,33,3,2,4,9
1529285732584288,0,1,-8,14,3,-2,1,1
1529285732584288,4,8,7,4,-3,1,2,7
1529285732598251,-6,-6,-21,-39,-12,0,-1,3
1529285732598251,-7,-8,-8,17,4,0,-4,-3
1529285732605267,-6,0,-6,-16,-10,0,-3,-3
1529285732605267,-7,1,13,29,8,0,-3,-3
1529285732621191,-2,-2,0,-11,-4,0,3,0
1529285732621191,6,-1,-11,-6,1,-5,-6,-10
1529285732623186,-1,-9,-22,-7,2,-2,-3,-3
1529285732623186,-2,1,-3,-16,-1,-3,3,2
1529285732635192,4,-2,-9,6,-1,-2,1,5
1529285732635192,-2,0,-3,-12,-9,-5,-6,-4
1529285732644150,6,-1,-7,-6,2,5,7,3
1529285732644150,0,0,0,-26,-7,-1,-4,-5
1529285732658140,-3,2,9,29,7,2,0,-2
1529285732658140,-4,-5,2,1,-6,-1,-1,-6
1529285732665120,-2,-8,-23,-38,0,3,-1,-2
1529285732665120,-4,0,10,17,5,-5,-5,-1
1529285732682027,-3,-3,-9,-8,-1,-3,-4,2
1529285732682027,4,10,3,12,6,1,3,7
1529285732683060,0,0,5,-4,-4,1,0,1
1529285732683060,1,-6,-4,-15,-7,0,1,-2
1529285732695040,4,5,4,9,-2,-2,-1,0
1529285732695040,1,-3,-6,3,-1,0,-1,0
1529285732704024,-4,1,3,-2,3,1,0,-4
1529285732704024,-4,-1,-6,10,2,0,0,-2
1529285732718975,-1,0,4,-4,1,-5,3,-3
1529285732718975,3,-1,-2,9,2,1,5,4
1529285732732893,-4,0,3,4,5,0,2,-2
1529285732732893,-3,-7,-13,-7,-4,-2,2,-2
1529285732741924,1,-3,-6,-10,-4,-1,-4,2
1529285732741924,0,0,-2,-4,-5,-1,-4,1
1529285732748849,-1,1,-1,-3,-1,-1,-4,4
1529285732748849,-3,-2,0,28,2,3,4,-2
1529285732755829,4,0,-1,-3,-2,-4,-18,-5
1529285732755829,3,1,-1,-7,-4,-5,-5,-5
1529285732764807,4,0,3,-8,-1,-2,0,2
1529285732764807,-4,-2,-4,10,2,-1,1,-13
1529285732778768,0,1,-2,-20,-6,-1,9,14
1529285732778768,0,-3,0,20,10,5,3,0
1529285732785752,0,-4,0,2,-4,-1,-2,-2
1529285732785752,7,2,2,-12,2,0,-4,-3
1529285732800889,-3,-5,-2,2,-5,-1,0,-6
1529285732800889,-3,-1,-1,-12,-2,-2,2,8
1529285732807865,-3,3,5,4,2,3,1,0
1529285732807865,-2,-3,-1,-7,-1,2,-2,4
1529285732815850,-7,-3,-1,6,0,0,-2,-11
1529285732815850,4,2,-1,-8,0,-1,1,1
1529285732825039,-6,-1,6,22,3,0,1,-17
1529285732825039,8,11,3,-29,-2,4,9,14
1529285732839028,-2,-5,-6,-6,-4,-5,1,15
1529285732839028,7,-4,2,-7,-1,-1,-1,-2
1529285732845825,4,-3,0,16,-1,-3,-3,9
1529285732845825,1,0,-5,-3,-1,1,0,1
1529285732861840,-2,3,-2,6,-2,3,5,-5
1529285732861840,-6,-7,-22,-10,-3,-2,0,0
1529285732868250,0,10,4,-5,5,1,-3,-6
1529285732868250,-4,-2,-8,-1,-2,-3,-3,-2
1529285732875917,1,6,14,2,4,4,1,5
1529285732875917,-7,-7,-6,16,1,-1,-5,-7
1529285732883964,-2,-7,0,-3,-2,-1,2,-3
1529285732883964,-4,-2,1,3,-3,-6,-4,2
1529285732899106,-3,-2,-2,4,2,0,1,-5
1529285732899106,-1,1,4,-4,3,-2,-1,-3
1529285732906032,6,2,0,0,5,2,1,6
1529285732906032,6,4,7,11,3,1,3,6
1529285732921472,2,2,-7,-12,-10,-2,-8,-7
1529285732921472,-5,1,6,-8,0,1,12,1
1529285732928091,-1,-5,-3,8,10,-3,-16,4
1529285732928091,-6,-10,-11,-25,-33,-5,14,-4
1529285732935249,-3,-5,-1,16,8,-5,-27,-13
1529285732935249,7,0,-4,-9,-12,-3,-7,-1
1529285732944445,2,2,7,0,-1,-3,-23,-12
1529285732944445,-2,-4,3,8,11,4,19,-2
1529285732959153,7,-1,3,3,5,13,37,18
1529285732959153,1,3,7,1,1,1,6,1
1529285732965140,1,-2,-15,-5,-4,-2,8,0
1529285732965140,0,7,14,9,1,-4,-19,-2
1529285732981466,-2,-1,-2,-4,-6,0,-5,-4
1529285732981466,-2,-6,-5,0,2,1,-1,0
1529285732987837,-5,-6,-14,-17,-4,2,2,1
1529285732987837,6,19,36,24,13,1,-2,5
1529285733004588,-8,-6,-9,-6,32,-1,3,0
1529285733004588,-6,-6,-13,-15,-9,-3,-10,-2
1529285733006447,3,3,18,14,-15,-9,4,-5
1529285733006447,-4,-13,-19,-22,-19,-9,-8,-5
1529285733018547,-1,-2,-10,3,15,2,-8,-23
1529285733018547,-3,6,13,7,2,-1,1,9
1529285733025532,0,0,-2,-11,3,9,12,21
1529285733025532,0,-2,-7,4,-11,-2,-1,3
1529285733041483,3,3,3,-1,-12,-7,0,-1
1529285733041483,-5,-4,-5,3,3,6,2,-16
1529285733055451,2,-4,-8,-13,1,-10,-20,-9
1529285733055451,4,-2,-1,-7,-28,0,-5,2
1529285733064246,-6,0,1,-3,-7,0,-3,-1
1529285733064246,-2,5,7,6,-5,-2,-1,3
1529285733066527,-4,0,-1,6,1,1,7,1
