timestamp,emg1,emg2,emg3,emg4,emg5,emg6,emg7,emg8
1528184657430638,-1,-2,-4,1,-5,-4,-2,-1
1528184657430638,-4,-3,-2,-5,-6,-15,-2,0
1528184657431640,1,-2,-1,0,10,7,-3,4
1528184657431640,1,-1,-1,-1,-11,6,-1,0
1528184657431640,0,0,1,1,23,-3,0,0
1528184657431640,-4,0,-2,1,-11,-1,-2,-3
1528184657432633,-2,-1,-2,0,8,6,-1,-3
1528184657432633,-3,-1,-1,0,5,-4,-2,-1
1528184657436623,-1,-1,-1,-1,-8,5,1,-1
1528184657436623,-2,-1,-2,0,1,-4,-1,0
1528184657444601,0,0,2,-4,-15,-11,-2,-1
1528184657444601,1,-6,0,-2,-1,-2,-3,-2
1528184657461555,1,2,6,0,-1,7,-9,-2
1528184657461555,1,2,13,5,-3,-3,2,-1
1528184657465546,-2,-2,-25,-8,-3,5,23,1
1528184657465546,-1,-2,-20,-10,11,-2,1,-3
1528184657475518,-3,-3,1,-1,-6,-8,-6,-2
1528184657475518,1,-2,-9,-2,2,1,-10,-1
1528184657496462,-2,0,12,3,-4,11,-9,-2
1528184657496462,-2,-1,2,-3,-9,-16,9,1
1528184657497460,-2,-2,-7,-5,5,17,-1,-3
1528184657497460,1,0,4,1,7,-13,-1,4
1528184657552313,0,-4,-3,-1,21,-5,1,0
1528184657552313,-1,-2,0,1,-4,-30,-7,-3
1528184657553311,-2,-2,0,-1,-6,11,3,-1
1528184657553311,0,-5,-7,1,25,15,0,-2
1528184657557300,1,10,3,3,6,36,-1,1
1528184657557300,-2,-4,-1,-2,-15,-12,0,0
1528184657557300,-1,-3,-3,-4,-17,-23,-3,-1
1528184657557300,1,2,4,-1,-38,-16,-1,-1
1528184657558298,-2,-3,-2,-2,42,-12,-4,-2
1528184657558298,-1,0,-3,0,-9,41,7,0
1528184657564281,0,0,2,1,21,-6,-1,-1
1528184657564281,0,0,-1,-2,-12,-10,2,1
1528184657570271,-1,-1,0,-1,-31,-26,-4,-4
1528184657570271,0,0,-1,-3,26,-13,-6,-1
1528184657586223,3,-3,-4,-1,0,36,-18,8
1528184657586223,4,3,4,1,3,9,31,6
1528184657593203,-2,-2,1,0,-9,-9,-2,3
1528184657593203,-2,-3,-1,3,8,2,-7,-2
1528184657616146,-2,-1,-2,-5,-10,-14,-2,-5
1528184657616146,-3,-3,-5,-7,-14,-56,-21,-6
1528184657617140,-1,-1,-2,-5,16,53,5,-5
1528184657617140,-1,3,-1,-1,-42,28,10,-3
1528184657631103,-1,0,0,5,51,-47,-5,-2
1528184657631103,-2,0,0,1,-13,-20,-10,-2
1528184657632100,-1,-2,-1,3,16,60,6,-1
1528184657632100,0,1,-1,0,7,20,4,2
1528184657654041,-1,-1,1,-2,-2,21,9,1
1528184657654041,-1,4,-3,1,-4,-56,-8,-1
1528184657655039,0,-2,-1,-1,-26,-27,1,0
1528184657655039,0,0,-3,-6,33,31,-4,-3
1528184657675983,-2,-1,-3,-4,-47,-40,3,-1
1528184657675983,-2,-4,2,-2,28,42,-2,-2
1528184657676983,0,0,-3,1,-13,-18,-7,-2
1528184657676983,-1,-1,4,2,-13,-41,-2,2
1528184657690942,-2,-1,-4,-2,-5,-28,-3,-4
1528184657690942,-1,-1,-1,-1,36,89,-1,-1
1528184657691941,-1,-1,-1,-1,-49,3,3,1
1528184657691941,-1,-1,6,0,9,-95,-8,-2
1528184657713881,0,0,-1,2,35,92,2,-2
1528184657713881,1,3,-7,0,-19,13,3,1
1528184657714883,-2,-12,-1,-4,4,1,1,0
1528184657714883,-1,-1,-1,-1,-1,-25,0,-1
1528184657736854,0,0,2,1,-7,-13,-6,-2
1528184657736854,-3,-3,3,2,8,4,-2,-3
1528184657737818,-1,1,-4,-2,-9,-15,-1,0
1528184657737818,-1,-3,-5,-2,-8,-12,-4,0
1528184657752033,0,4,-1,0,-11,-2,2,-3
1528184657752033,1,-1,1,-3,4,37,4,0
1528184657752955,-1,-1,0,-1,-21,-81,-9,-3
1528184657752955,-3,-2,-4,-4,30,59,-4,-1
1528184657774018,-1,0,0,3,2,28,10,2
1528184657774018,-1,-2,-1,5,-8,-14,3,0
1528184657775016,1,2,3,1,25,-6,-1,0
1528184657775016,-1,1,-3,-6,-34,0,0,0
1528184657796999,-4,-4,-5,-16,1,-11,-5,-4
1528184657796999,-1,-4,0,5,-9,-50,-7,-3
1528184657797955,-2,1,-1,-8,17,22,-1,-2
1528184657797955,-1,1,-3,13,19,41,5,-2
1528184657819895,0,-4,-3,5,-20,-13,3,1
1528184657819895,-3,-4,2,-3,-7,-29,-4,-3
1528184657819895,0,-2,-4,-3,18,13,0,-2
1528184657819895,0,0,-3,-6,-15,-6,-1,2
1528184657841877,-1,0,0,-3,-2,-6,-4,-2
1528184657841877,-1,-1,-1,-2,1,2,1,-1
1528184657842846,-2,1,-6,0,-8,-19,-3,0
1528184657842846,-1,-9,-6,-4,-6,13,0,-3
1528184657856798,-1,0,5,-1,4,13,0,-2
1528184657856798,0,1,-3,2,5,0,-2,0
1528184657857794,-1,3,3,-1,-6,-2,-1,0
1528184657857794,-2,0,-2,-1,-1,-12,0,-1
1528184657871757,-2,-4,0,0,-2,-2,-1,-3
1528184657871757,0,1,-4,-5,0,7,-2,-2
1528184657871757,-2,-3,2,3,9,4,1,-3
1528184657871757,1,-3,1,-2,-8,-3,-1,4
1528184657893698,-1,2,-11,-2,-4,-15,-4,-1
1528184657893698,-2,5,8,-3,-15,17,1,-1
1528184657894695,-1,-4,-7,1,13,5,0,-1
1528184657894695,-2,-4,1,1,4,-4,-1,-1
1528184657916675,-1,0,4,4,-11,-2,-2,0
1528184657916675,0,-2,-9,-5,15,-8,-2,-1
1528184657917634,0,3,10,2,-9,2,-1,-2
1528184657917634,0,1,0,1,1,5,2,0
1528184657930600,2,-10,-11,-3,-1,-5,-1,0
1528184657930600,0,-1,-2,-2,-3,-2,-2,-1
1528184657938579,-1,5,-4,0,-4,5,1,0
1528184657938579,-3,-5,-12,-1,5,-5,-3,-1
1528184657953537,0,14,13,2,-3,2,0,0
1528184657953537,-5,-23,10,-1,-5,-2,-4,-5
1528184657954535,2,6,-2,-5,1,1,2,2
1528184657954535,-2,6,-7,4,-1,-15,-19,-15
1528184657977518,0,-2,-7,-4,-1,15,12,-28
1528184657977518,5,5,1,1,1,1,10,39
1528184657977518,0,-1,3,1,-4,-5,0,2
1528184657977518,1,-3,-2,-9,-4,2,6,7
1528184657991685,-4,-2,1,3,2,-6,-10,0
1528184657991685,-4,-3,-9,-2,1,-1,-5,-19
1528184657992435,0,-4,-6,0,-11,1,-1,-1
1528184657992435,-2,-2,5,-6,-1,-3,-2,-2
1528184658014390,-1,2,4,6,9,2,-2,-4
1528184658014390,-2,-1,-5,3,-5,0,2,-2
1528184658014390,-2,0,-1,-5,-14,-5,-4,0
1528184658014390,-1,2,7,-2,-7,-1,2,-5
1528184658037314,-2,-6,-5,-1,-1,0,1,7
1528184658037314,1,14,1,3,19,-1,-2,-2
1528184658038313,-2,-15,-3,-2,0,1,-2,-4
1528184658038313,1,16,6,-3,-6,-1,1,-5
1528184658050280,3,-10,14,0,-4,-2,0,7
1528184658050280,-2,3,-23,-6,-12,-2,-4,-5
1528184658059508,0,-1,5,-1,1,1,-2,-5
1528184658059508,0,-4,-2,3,1,0,2,5
1528184658074305,2,19,-17,-3,-1,-4,-4,3
1528184658074305,-3,-14,25,0,-2,0,-1,-8
1528184658074305,-2,0,-5,3,2,0,1,0
1528184658074305,-2,-8,6,3,9,5,2,1
1528184658097259,-1,2,1,-6,-1,-2,0,2
1528184658097259,1,1,-1,-5,-3,-2,-2,-4
1528184658098246,0,-3,-11,5,-6,-4,-4,-2
1528184658098246,0,5,1,-7,1,2,1,1
1528184658111507,-1,-2,-1,-2,-1,-1,-1,-2
1528184658111507,-1,-3,-11,-4,-1,-1,-1,1
1528184658119446,0,13,28,5,-2,-1,0,0
1528184658119446,-2,-5,-28,6,4,1,-2,-2
1528184658134147,-3,-9,2,-7,-1,-2,-1,1
1528184658134147,1,-2,-16,3,-5,0,0,0
1528184658135146,-2,-7,-6,-14,-6,-3,-2,0
1528184658135146,-2,2,18,-4,-10,-5,-2,-2
1528184658157084,-3,-8,-2,5,9,5,-1,0
1528184658157084,0,2,8,8,5,2,1,-1
1528184658158081,-1,-1,-12,1,4,-3,-1,-2
1528184658158081,-1,-10,0,-3,-5,-2,0,1
1528184658171048,-1,-9,-14,-1,0,-1,-1,0
1528184658171048,-2,-1,-7,-6,-5,-2,-2,-1
1528184658179026,0,-2,-4,-10,-3,-5,-3,-3
1528184658179026,0,-1,16,-12,7,2,1,-1
1528184658194288,0,7,-6,2,12,-1,-2,0
1528184658194288,-2,1,10,3,-1,-5,-1,-2
1528184658194983,-3,-2,34,37,-19,-2,-8,-7
1528184658194983,6,4,-74,3,22,4,6,9
1528184658216936,-1,-1,7,-1,-4,-9,-31,-4
1528184658216936,-7,-7,-4,-35,-21,2,14,-10
1528184658217923,-4,-14,-10,-8,-3,0,22,-2
1528184658217923,7,11,0,-4,-9,-3,1,26
1528184658230888,-8,-18,-5,18,-14,1,-6,-14
1528184658230888,5,2,-17,-15,-16,1,8,7
1528184658238866,-3,-3,1,-14,1,4,-7,-12
1528184658238866,-1,-6,10,13,1,6,17,-1
1528184658254130,2,10,-7,-10,-11,-12,-13,3
1528184658254130,-2,4,23,17,16,-4,-8,1
1528184658254825,0,0,-8,-20,0,-3,-30,-2
1528184658254825,-1,5,14,17,-1,-2,17,-8
1528184658277862,-1,-3,-3,-28,-20,-4,-1,1
1528184658277862,0,-3,-8,-5,-2,0,-1,-8
1528184658277862,3,5,1,-21,-22,-6,-1,5
1528184658277862,-1,-5,-11,84,90,17,-11,-1
1528184658290952,1,9,23,-12,4,7,12,-5
1528184658290952,-2,-1,-1,-8,3,1,-4,2
1528184658298761,-1,0,-16,-19,-8,-4,4,7
1528184658298761,-4,-8,14,-34,-44,-10,-12,-11
1528184658322966,1,-1,-5,34,13,3,12,8
1528184658322966,-1,1,3,1,9,-2,-6,-3
1528184658322966,-2,-5,-7,7,9,3,0,-4
1528184658322966,-6,7,19,-9,-19,-5,-1,-3
1528184658337604,3,-17,-9,2,6,1,4,3
1528184658337604,1,-18,-4,9,-6,-4,-5,1
1528184658337604,6,55,14,13,7,0,1,-6
1528184658337604,-12,-31,8,-9,-7,-1,-8,1
1528184658350571,11,72,-16,-12,-7,-5,1,10
1528184658350571,6,-73,-19,0,2,0,-1,-4
1528184658358578,-18,-7,-29,10,6,2,4,-28
1528184658358578,-18,12,1,-20,-9,-3,-4,-5
1528184658374736,-11,32,86,-1,-3,-2,-2,-5
1528184658374736,-2,-26,-31,3,-4,-2,-4,-5
1528184658374736,10,-16,5,7,12,1,2,13
1528184658374736,5,-3,-30,-11,-16,-4,-4,-3
1528184658404424,-8,-11,-4,-4,-1,-2,1,-2
1528184658404424,-10,26,17,11,3,3,1,-3
1528184658405421,-2,-23,2,-12,-4,0,1,4
1528184658405421,4,-2,-3,5,9,0,-1,-1
1528184658410412,-4,-3,0,1,1,-1,1,-4
1528184658410412,12,28,29,1,4,-1,-1,4
1528184658419605,6,-19,-47,-5,-2,-1,-1,6
1528184658419605,-13,-14,5,-12,-17,-6,-5,-5
1528184658434351,10,9,26,7,6,1,-1,-8
1528184658434351,-12,10,-30,-4,8,2,0,9
1528184658434351,3,5,22,3,1,-2,2,1
1528184658434351,9,10,16,2,-5,2,-2,-2
1528184658456635,0,-17,-18,-2,1,-1,1,-1
1528184658456635,-1,12,16,9,-4,-1,-3,-2
1528184658464264,-3,7,-10,-15,-3,-2,-1,3
1528184658464264,5,-11,-5,3,-4,-2,-2,-1
1528184658487464,-2,-16,-14,-9,1,-1,1,2
1528184658487464,-4,12,4,3,-3,0,-2,-9
1528184658488273,2,-9,12,4,-2,0,-1,4
1528184658488273,2,14,-6,-10,-8,-4,-1,-4
1528184658494184,-3,-34,-22,1,-5,2,-1,-2
1528184658494184,-1,-7,-1,-2,-1,-2,0,0
1528184658495449,-3,6,11,7,3,0,1,0
1528184658495449,0,0,8,-11,-8,-3,-1,-3
1528184658516125,-2,-2,-12,4,2,3,2,0
1528184658516125,4,2,-19,-3,-6,-1,0,1
1528184658525100,-2,9,34,2,0,-1,0,1
1528184658525100,2,-3,-18,-4,5,-3,-2,-2
1528184658539106,-1,-9,-17,-7,2,-2,0,0
1528184658539106,-2,1,10,8,0,-1,-2,0
1528184658547042,0,0,-19,6,-6,0,1,-1
1528184658547042,2,-1,-5,1,2,-4,-4,-2
1528184658561005,-2,0,21,10,-5,0,0,1
1528184658561005,-2,3,-18,-30,-6,0,-1,-2
1528184658569982,-2,-5,-7,1,11,4,1,-1
1528184658569982,1,-3,7,4,-5,-3,-1,-1
1528184658575964,-1,-6,-6,30,9,0,-1,-1
1528184658575964,1,9,22,-3,-5,-6,-3,-1
1528184658584941,-4,-8,1,-25,-10,-2,-1,-2
1528184658584941,2,-3,-42,-26,-8,-1,-2,-1
1528184658599901,-3,0,-7,-5,-6,-2,0,0
1528184658599901,-1,-1,8,9,-3,-8,-6,-3
1528184658600899,4,10,13,11,8,-5,-19,-1
1528184658600899,-6,-4,30,20,4,1,-3,-6
1528184658621842,0,-2,-6,19,17,20,48,3
1528184658621842,5,4,-33,-74,0,1,0,8
1528184658623837,-8,-14,-19,24,-15,-7,-10,-8
1528184658623837,1,2,25,-3,-3,2,-2,-6
1528184658636123,5,10,-2,-11,26,3,-9,5
1528184658636123,-5,-9,20,14,12,6,6,-3
1528184658644795,0,0,-4,27,7,-4,-19,1
1528184658644795,0,2,4,15,16,2,-8,3
1528184658659999,-5,-11,-3,30,18,0,-7,-5
1528184658659999,-1,-2,-16,-16,-12,-8,-4,-3
1528184658661922,-5,-9,3,-54,-21,-3,-18,-3
1528184658661922,0,-2,-13,2,-2,15,46,9
1528184658682821,1,4,17,-3,-27,-13,-11,4
1528184658682821,2,8,11,35,0,0,2,-8
1528184658683686,0,-2,-9,-34,-11,-6,0,0
1528184658683686,-2,0,1,2,13,-2,-2,-6
1528184658696570,2,4,3,-34,-14,-9,-3,5
1528184658696570,-5,2,-9,4,-31,-7,-25,-1
1528184658712149,-3,0,4,16,35,10,31,-2
1528184658712149,-1,1,-1,-14,-7,-3,-5,-3
1528184658719165,-5,-9,-8,-3,0,-4,-15,-7
1528184658719165,0,-2,10,24,-9,-3,-8,-1
1528184658726112,2,0,-5,14,9,7,19,4
1528184658726112,-1,0,-3,-9,-8,-4,-5,2
1528184658742069,-1,-3,-12,-11,-14,-7,-3,-4
1528184658742069,-5,-6,6,8,6,3,-2,1
1528184658744064,3,0,0,-17,0,2,3,0
1528184658744064,0,-4,2,8,2,-1,-4,-1
1528184658765008,0,14,-6,-1,-15,-4,-9,-3
1528184658765008,-1,-9,0,-6,12,4,9,-1
1528184658766005,-2,-4,11,4,-2,-2,2,2
1528184658766005,-5,-4,-10,-4,-13,-7,-10,-3
1528184658779023,3,9,2,-16,1,0,-4,0
1528184658779023,-2,3,-8,11,7,1,8,-1
1528184658786011,-2,3,7,2,-2,-2,3,-2
1528184658786011,-5,-6,-16,-3,-10,-3,-8,-6
1528184658801958,-1,-8,-31,-14,4,0,1,0
1528184658801958,11,1,-4,-2,-3,0,4,5
1528184658803905,0,-2,14,12,1,0,-7,-4
1528184658803905,-10,-2,4,-7,-1,-1,3,16
1528184658815927,-2,-10,-1,3,-3,-2,0,-18
1528184658815927,-1,-1,-3,-4,0,0,2,0
1528184658824848,3,1,-15,2,-1,-4,-9,-3
1528184658824848,6,-3,17,1,1,1,-1,-2
1528184658838868,-7,4,10,0,-4,-3,-4,1
1528184658838868,-3,-7,4,2,5,2,6,1
1528184658846847,1,6,-2,1,-6,-1,2,0
1528184658846847,-4,0,4,0,3,-2,-2,-4
1528184658861810,-1,-9,-10,-12,0,2,-3,-1
1528184658861810,-1,3,-7,-3,2,-2,-5,-4
1528184658863744,0,9,38,7,-3,0,2,3
1528184658863744,1,-4,-48,-7,-8,-5,-2,-4
1528184658875769,-3,-7,-8,6,5,0,0,0
1528184658875769,-1,3,34,4,1,0,2,0
1528184658884692,-1,-2,7,-5,-3,-1,1,2
1528184658884692,2,-1,-20,-5,-3,1,-4,-4
1528184658898706,2,3,11,1,-5,-2,1,2
1528184658898706,-5,0,-5,5,2,0,-2,-1
1528184658905633,-4,-10,-20,5,5,-2,-1,-2
1528184658905633,1,3,16,-11,-2,-3,-3,-3
1528184658929623,-2,-4,-13,-5,-5,-2,-1,3
1528184658929623,-1,1,3,1,-1,-1,0,-1
1528184658931625,-3,-5,-14,-4,-4,-1,1,-3
1528184658931625,1,0,-1,1,2,-1,-1,0
1528184658944581,-3,-5,8,-4,-1,-1,2,0
1528184658944581,-1,0,2,-3,0,-3,-4,-4
1528184658946577,-1,1,-18,-1,-2,1,2,0
1528184658946577,2,2,8,14,5,0,-2,0
1528184658958543,-2,-4,20,4,-2,1,-1,-1
1528184658958543,-2,7,-22,-10,-1,-3,-2,-3
1528184658965473,-2,-22,-26,-5,-4,-2,0,0
1528184658965473,0,-3,-6,-11,-3,-2,-1,0
1528184658989464,0,-3,-11,1,1,1,-1,0
1528184658989464,-2,0,3,6,-2,0,1,1
1528184658991403,-2,5,4,7,0,0,-2,1
1528184658991403,-2,-1,7,-13,1,-2,-2,0
1528184659004424,0,-2,5,-1,-2,2,-1,-2
1528184659004424,-2,-4,-5,-7,-4,0,0,-1
1528184659006364,0,-1,-3,4,-3,0,-1,-2
1528184659006364,0,-2,9,6,2,-3,-2,-2
1528184659019463,1,4,2,-2,1,1,1,-1
1528184659019463,-3,-9,-9,3,3,0,-3,-1
1528184659026518,0,3,7,-6,-8,-2,0,-1
1528184659026518,-2,3,5,3,-3,0,-1,0
1528184659042418,-3,-4,-3,-9,9,-1,-1,-1
1528184659042418,1,-6,-5,-19,-22,-5,-1,0
1528184659043671,2,8,10,43,46,14,3,0
1528184659043671,0,1,2,4,-5,-1,-1,-1
1528184659064347,-2,-2,-7,1,-6,-4,-2,-1
1528184659064347,-1,0,5,-10,-18,-7,-1,-2
1528184659066352,-2,-2,-7,-9,-3,-2,-2,-2
1528184659066352,-1,1,8,4,12,3,2,0
1528184659079305,1,-2,9,4,-1,1,0,-1
1528184659079305,-1,1,-8,0,-1,1,-1,-1
1528184659085291,-2,0,0,-6,-15,-5,-2,0
1528184659085291,1,0,-6,-4,-2,-2,0,-1
1528184659102592,-1,-1,2,-7,-5,-3,0,-1
1528184659102592,0,-3,13,6,8,0,-1,-1
1528184659103242,0,1,1,-7,-6,-1,-2,0
1528184659103242,0,-2,-34,-4,-3,2,0,-1
1528184659124192,-2,1,6,5,0,1,0,0
1528184659124192,-1,-1,-1,-2,7,1,-1,0
1528184659126258,-2,-1,-4,-4,-1,-1,0,-2
1528184659126258,0,-2,11,-1,-6,-4,-3,-3
1528184659147234,-1,-4,-9,-3,-3,-1,0,-2
1528184659147234,-1,0,-3,9,3,0,0,-1
1528184659149120,-2,1,6,-9,-7,-6,-1,1
1528184659149120,-1,1,3,-2,-8,-5,-2,0
1528184659162084,-3,-5,-3,8,3,4,1,-1
1528184659162084,0,-1,6,2,9,1,-2,0
1528184659164078,-2,-1,-9,4,-6,-2,-2,-2
1528184659164078,0,-2,-2,-10,0,-2,0,-1
1528184659185330,0,1,5,-3,-8,-4,-4,-1
1528184659185330,-2,-1,3,13,1,2,0,-1
1528184659186020,-2,-2,-9,-17,-3,0,-1,0
1528184659186020,0,-2,9,4,-1,-2,-1,-1
1528184659197989,-2,1,-14,-10,-9,-5,-3,-2
1528184659197989,-1,1,3,-1,3,0,1,-1
1528184659207280,-2,-2,-1,14,20,3,-1,-2
1528184659207280,-3,-2,5,0,1,0,-1,0
1528184659222416,1,-1,6,-2,-3,-1,-1,0
1528184659222416,-1,-1,-13,-6,-1,-3,-1,-1
1528184659224341,-1,3,-3,-7,-9,-5,-2,-2
1528184659224341,-2,-4,0,-3,-8,0,-1,-3
1528184659245332,-2,-2,-3,1,2,-2,-1,0
1528184659245332,-1,0,3,3,2,0,-1,0
1528184659247118,-1,-3,2,-8,-4,-1,-2,-1
1528184659247118,0,1,-4,0,1,0,1,1
1528184659259119,-2,1,0,-1,-1,-4,-1,0
1528184659259119,0,1,6,3,-1,-2,-3,-1
1528184659267204,-2,-5,-9,-4,-4,0,0,-2
1528184659267204,-3,0,6,9,1,0,0,-1
1528184659282256,1,-2,-15,-3,2,2,1,0
1528184659282256,-3,-1,4,-7,-7,-3,0,-3
1528184659284011,0,-1,0,-4,0,3,-1,-1
1528184659284011,-1,1,11,10,-2,-3,-3,-2
1528184659305197,-3,-6,-30,-27,-2,-3,-3,-1
1528184659305197,-3,-1,-3,1,1,-2,-2,0
1528184659306213,2,-1,2,-5,-4,-1,0,0
1528184659306213,-1,-1,0,-1,-1,-1,-2,-3
1528184659318950,-1,1,6,5,-2,-1,-1,-1
1528184659318950,-2,0,-5,-2,2,1,0,-1
1528184659326900,-3,-2,-1,1,-3,-3,-2,-2
1528184659326900,-1,-1,-6,-4,0,-2,-1,0
1528184659342897,-2,0,6,8,1,-1,-1,-2
1528184659342897,0,-3,-4,-2,2,1,-2,0
1528184659343852,-1,1,-4,-3,-2,-3,2,0
1528184659343852,-1,-2,-6,-7,-3,-1,-2,1
1528184659364796,0,-1,1,3,-1,0,-2,0
1528184659364796,1,2,5,0,-2,-1,0,0
1528184659365792,1,1,0,-3,-2,-3,-2,-1
1528184659365792,-2,-2,-5,-19,0,-3,-2,-2
1528184659378846,-1,-2,-1,12,-6,-1,1,-4
1528184659378846,0,-1,0,-1,-20,-4,-2,-2
1528184659387734,0,-1,1,31,66,13,1,0
1528184659387734,-3,-2,-2,-5,-4,2,1,-2
1528184659401699,-1,-2,9,23,18,3,0,-1
1528184659401699,-3,-1,-4,-13,-17,-3,0,1
1528184659403697,-1,1,1,0,-24,-3,-1,-1
1528184659403697,-2,0,-1,-2,1,-3,-2,-3
1528184659424719,0,-3,-3,-10,3,-1,-1,0
1528184659424719,-1,-1,-4,-1,1,-3,-1,-1
1528184659426986,-2,-2,-2,-12,-14,-6,0,-1
1528184659426986,-2,-5,4,3,1,-1,0,1
1528184659438842,1,0,-1,-5,-4,-1,-1,0
1528184659438842,0,-2,-4,-2,3,2,0,-3
1528184659447061,-1,1,4,-2,-10,-2,-4,-1
1528184659447061,0,-2,-20,-5,5,3,5,0
1528184659462908,-1,-1,1,-2,-7,-1,1,0
1528184659462908,0,-3,0,2,9,0,1,0
1528184659463786,-1,-2,2,-3,-6,-2,-5,-2
1528184659463786,0,2,5,5,-6,-2,-3,1
1528184659484728,-2,-3,-14,-11,-10,-2,2,-2
1528184659484728,0,3,1,3,21,7,-1,0
1528184659485914,-1,-3,-1,-7,-10,-3,-1,-1
1528184659485914,1,2,5,5,1,-2,-4,-2
1528184659498973,0,1,4,-9,-6,-3,-3,0
1528184659498973,-2,-4,-3,1,-2,-1,-1,-2
1528184659514839,0,-1,-4,5,4,0,0,1
1528184659514839,1,0,1,11,8,1,0,-1
1528184659522085,-1,1,2,-4,-3,1,-1,-2
1528184659522085,-1,-2,-4,-6,-11,-6,-2,-2
1528184659523815,-3,-1,-2,-2,14,0,-1,-1
1528184659523815,-2,-1,0,0,-4,-3,-1,-2
1528184659545182,0,0,3,-1,7,2,0,0
1528184659545182,0,2,5,0,0,-1,0,0
1528184659546899,-2,-4,-4,-1,-11,-4,2,-1
1528184659546899,-1,-1,-1,-1,-3,-1,0,0
1528184659558722,-2,2,3,0,-1,-2,-6,-2
1528184659558722,-1,0,15,3,0,-1,-8,-1
1528184659567716,-2,-6,-25,-16,-5,-5,-7,-1
1528184659567716,-2,0,1,1,2,0,3,1
1528184659583715,-2,-2,3,-2,-7,-3,3,1
1528184659583715,-1,2,-3,2,-3,-5,-1,0
1528184659584713,0,0,6,2,-7,2,0,-1
1528184659584713,-2,-2,-3,-7,0,-1,-7,-2
1528184659604659,-1,-1,-1,7,7,1,-2,0
1528184659604659,0,-2,-3,-4,-4,-1,1,-1
1528184659606654,0,0,6,0,-15,-6,-1,-1
1528184659606654,0,-2,-4,-1,7,4,2,-2
1528184659618947,-2,1,5,9,3,-2,-1,-2
1528184659618947,-1,-2,-6,-1,3,-2,-1,-2
1528184659627636,-2,-1,2,0,-1,-2,-2,-1
1528184659627636,1,0,0,-3,-6,-1,0,0
1528184659642784,-1,-2,0,-2,-2,-1,0,-1
1528184659642784,-1,-4,-6,-4,1,0,-2,0
1528184659644534,1,2,1,0,0,0,-7,0
1528184659644534,-2,-1,3,-1,-7,-3,9,-2
1528184659664483,-2,-1,-8,-3,-3,-2,0,0
1528184659664483,-3,-4,-10,0,1,1,3,-1
1528184659666481,-2,-1,5,-1,4,2,-1,0
1528184659666481,0,-2,-2,-3,-2,-4,-8,-3
1528184659678824,-2,-3,0,-1,-9,-3,2,-1
1528184659678824,1,0,1,-4,7,2,0,-1
1528184659687421,-2,1,-2,6,7,2,-9,-2
1528184659687421,0,-1,3,7,6,4,-1,0
1528184659709622,-1,-2,-4,-3,4,2,0,-2
1528184659709622,0,-1,3,4,-2,0,-7,2
1528184659711627,-1,-1,7,-6,-4,-4,11,-1
1528184659711627,0,2,-10,0,-5,-3,-6,1
1528184659724819,-3,-4,6,-1,-6,-2,-4,-3
1528184659724819,-1,-3,-17,-4,6,0,1,-1
1528184659726849,-2,-1,4,-1,-4,-2,-2,-1
1528184659726849,-1,-1,-4,-7,-5,1,1,-1
1528184659738789,1,0,-7,-3,3,-1,-2,-1
1528184659738789,-2,1,14,9,-1,-2,0,-1
1528184659747803,-3,-4,-8,-3,-5,-1,1,-1
1528184659747803,1,4,6,3,-3,-2,-1,-1
1528184659761864,-2,-3,-4,-5,1,-2,-3,-1
1528184659761864,0,-1,-2,-3,-3,-1,-7,-2
1528184659767826,0,-2,-8,-8,-2,0,0,0
1528184659767826,-3,-7,-12,-7,-5,-3,2,-2
1528184659784993,1,5,17,12,1,3,16,2
1528184659784993,-1,-4,-25,-19,-7,-4,-4,-2
1528184659785988,0,2,12,12,-2,-3,-11,0
1528184659785988,-1,0,4,-3,2,5,19,0
1528184659797750,0,1,8,-2,-2,0,-1,0
1528184659797750,-3,-1,-27,-5,-4,-1,6,-3
1528184659807721,-2,-6,-36,-22,4,-2,-5,-5
1528184659807721,-5,-5,44,24,-2,-5,-8,-1
1528184659821995,-6,-4,3,8,-2,-1,-6,-5
1528184659821995,2,4,4,2,-2,0,2,2
1528184659828979,18,-1,-36,-23,0,1,3,-4
1528184659828979,-11,4,15,9,2,-3,-14,0
1528184659844940,11,-14,-33,26,-5,-9,-2,2
1528184659844940,-10,10,28,-27,0,0,0,7
1528184659846209,-16,-4,-63,-9,-5,3,9,-33
1528184659846209,5,3,-9,-21,0,2,-15,0
1528184659859099,-35,-5,2,-3,2,0,-7,-27
1528184659859099,52,-2,1,-3,-2,3,22,-10
1528184659867225,18,8,32,21,0,-1,4,0
1528184659867225,16,-3,21,14,0,-1,6,7
1528184659882224,34,5,-52,-9,1,-1,-15,12
1528184659882224,-72,-32,24,35,2,-4,-13,-5
1528184659888164,-5,-2,53,-9,-1,-1,6,3
1528184659888164,-14,-5,-25,-10,0,-2,-9,-7
1528184659904447,20,9,18,-3,2,1,2,8
1528184659904447,3,4,-1,-9,-3,1,4,-6
1528184659906424,0,-3,6,12,-4,-1,0,6
1528184659906424,-20,-2,-13,-4,2,0,3,1
1528184659927610,0,6,21,-9,-4,-2,-2,0
1528184659927610,5,0,-21,4,1,-1,-18,-2
1528184659928601,-10,-9,11,22,0,-1,7,18
1528184659928601,8,1,-51,-25,-5,0,6,-20
1528184659941334,-10,6,23,-14,-2,-2,-8,-3
1528184659941334,-1,-1,-39,2,-2,-3,-10,-4
1528184659948936,0,2,14,-3,-2,1,13,7
1528184659948936,13,-4,5,3,-1,-2,2,10
1528184659964525,-4,-1,14,1,-3,-3,-13,9
1528184659964525,-16,3,-4,-3,-1,-2,-5,-1
1528184659966519,10,-9,-29,-3,1,-2,-13,-2
1528184659966519,-8,3,5,-2,-5,-3,3,-4
1528184659987683,2,-4,-3,-6,-4,-1,-1,-3
1528184659987683,38,6,13,3,0,-2,-2,9
1528184659988643,-57,-11,-1,-7,-2,1,-5,-9
1528184659988643,5,12,11,5,-1,-1,-4,4
1528184660001425,-10,-7,-15,-3,0,-1,-2,-1
1528184660001425,11,1,7,-2,0,0,4,0
1528184660015408,11,4,5,0,0,0,4,0
1528184660015408,-10,-9,-11,-1,-3,-4,-10,-3
1528184660024704,1,2,6,2,1,3,10,0
1528184660024704,-8,2,4,-8,-3,0,5,0
1528184660026360,-8,2,-1,-9,-4,-3,7,0
1528184660026360,1,-7,-8,7,0,-2,-20,4
1528184660047302,15,2,-8,5,1,-1,24,-6
1528184660047302,-3,2,18,1,-2,-2,-9,5
1528184660049543,6,4,-13,-14,-4,0,2,3
1528184660049543,-6,-8,-5,3,0,-1,0,-3
1528184660061265,-7,9,6,1,-1,0,-5,-1
1528184660061265,-9,-9,-2,-4,-3,-2,-2,-4
1528184660070384,9,2,-10,0,-2,-3,-9,5
1528184660070384,4,0,0,-3,-1,1,8,0
1528184660085280,-13,-8,-11,-3,-1,1,-4,-5
1528184660085280,1,4,5,5,0,0,5,3
1528184660086227,3,1,2,2,-2,-1,-7,-3
1528184660086227,-1,-2,2,0,-1,-2,6,-1
1528184660107441,-4,2,-1,-1,-1,-2,-1,-1
1528184660107441,-1,-3,-7,-8,-1,-1,2,-1
1528184660109138,-2,-4,9,7,0,-2,-3,-7
1528184660109138,3,0,5,4,-2,-2,5,4
1528184660121116,-1,-3,-6,-7,-2,-1,-4,5
1528184660121116,-3,-2,-2,-2,-2,-3,4,-3
1528184660130095,-2,0,2,6,1,1,-1,-4
1528184660130095,2,1,7,-4,-3,-1,-5,-4
1528184660145219,-5,-5,-1,-3,1,4,13,4
1528184660145219,-6,0,-8,-3,-1,4,25,-2
1528184660146039,23,3,9,1,-1,-3,-6,-3
1528184660146039,-36,-5,-3,-4,-1,-4,-8,11
1528184660167223,-11,-3,0,-2,-2,-2,-18,-21
1528184660167223,-14,-7,1,4,1,-3,-6,1
1528184660169007,42,13,5,-1,-2,-3,-2,-2
1528184660169007,-15,3,-6,-2,-1,1,-2,-2
1528184660180945,-3,-10,-12,-5,-2,0,1,3
1528184660180945,-5,-3,14,1,-1,0,-3,-2
1528184660189921,3,-3,-1,0,-2,-1,-4,1
1528184660189921,16,7,6,-3,-1,-1,-10,-2
1528184660212923,-6,-6,0,2,-3,-4,-1,1
1528184660212923,6,0,-5,-1,-2,3,2,-1
1528184660213863,-19,-3,0,-1,1,0,-4,-2
1528184660213863,10,-2,-8,-3,-1,0,7,2
1528184660227916,-7,1,3,-4,-2,-1,6,2
1528184660227916,9,2,-11,-1,-3,-5,-25,-1
1528184660228820,-12,0,6,0,0,-2,-27,-3
1528184660228820,-3,-1,0,1,-2,-2,15,-8
1528184660240785,11,0,1,-5,1,-1,-6,1
1528184660240785,2,0,-2,1,-1,1,3,2
1528184660249779,-13,-5,-2,-1,0,1,7,1
1528184660249779,2,-6,-4,-6,-3,0,-16,-9
1528184660264732,4,1,4,0,-2,-3,7,7
1528184660264732,-3,4,1,0,-2,0,8,-2
1528184660265718,-5,-3,-2,1,-1,-1,-3,2
1528184660265718,-8,-4,2,0,-1,-2,-16,-3
1528184660287923,4,0,-3,-3,-2,-1,19,-7
1528184660287923,20,3,-1,0,0,2,-7,4
1528184660288659,-1,2,-4,-2,0,-1,7,-4
1528184660288659,13,-6,-3,-2,0,-1,-5,5
1528184660300868,-6,1,-1,0,-4,-3,-22,-1
1528184660300868,9,-1,1,3,0,-3,19,-4
1528184660309668,-12,-6,-12,-6,-2,0,3,-2
1528184660309668,4,17,10,4,1,2,13,1
1528184660324822,6,-16,-3,-4,-4,-5,-27,3
1528184660324822,-9,-2,0,2,1,0,-3,0
1528184660326564,6,0,-4,-7,-2,-2,1,1
1528184660326564,-6,1,14,3,-2,-1,-2,-3
1528184660347500,-8,7,-17,-1,-1,0,8,-7
1528184660347500,2,-6,-2,0,-2,-2,-9,-1
1528184660348705,-7,-8,3,0,-1,-2,-2,1
1528184660348705,7,-5,-12,-4,-1,-2,2,-2
1528184660361049,2,7,13,2,-1,-2,-7,7
1528184660361049,-12,-2,-1,1,1,6,-12,-5
1528184660369764,-3,2,-4,0,-2,-3,14,-4
1528184660369764,1,-1,4,-2,-1,-2,-3,-2
1528184660384981,3,-1,-2,0,0,-3,5,-1
1528184660384981,-1,1,-4,-2,-2,-6,-5,-2
1528184660385927,-13,0,7,7,-1,2,-1,7
1528184660385927,9,-5,-9,-4,-1,-1,-4,-1
1528184660406876,15,4,-2,1,-1,2,8,-1
1528184660406876,-53,-10,-7,-3,-1,-2,-2,-5
1528184660408868,7,6,6,1,-1,-3,5,9
1528184660408868,6,-6,-6,1,1,-2,-6,2
1528184660420852,11,7,1,1,-1,4,8,1
1528184660420852,17,-4,3,0,0,-3,-8,8
1528184660429859,-14,-3,-4,0,-1,-5,-10,-25
1528184660429859,-3,-1,-5,-2,-1,2,12,1
