timestamp,emg1,emg2,emg3,emg4,emg5,emg6,emg7,emg8
1528882902128394,0,1,12,4,-2,-1,0,-1
1528882902128394,-4,2,3,-5,-3,0,6,-2
1528882902135386,-6,-13,-26,-1,0,-3,-14,-6
1528882902135386,-1,1,-4,-9,2,1,-2,-1
1528882902150336,3,6,-4,-2,2,1,-3,3
1528882902150336,-1,-6,-10,-6,-4,-3,0,-1
1528882902158315,3,10,69,26,3,2,-3,1
1528882902158315,-1,-16,-56,-14,0,1,5,-1
1528882902173273,4,12,3,-3,-1,4,2,0
1528882902173273,3,7,28,8,-5,-1,3,2
1528882902188235,-4,-3,-1,3,-3,0,-1,-3
1528882902188235,-3,-13,-17,-7,0,0,-3,-2
1528882902203195,-2,6,8,-1,1,-2,-4,-3
1528882902203195,-2,-28,-73,-34,-5,-1,3,0
1528882902210177,0,14,9,5,-2,1,2,0
1528882902210177,-1,-18,49,22,3,1,-1,-1
1528882902227131,-5,-10,-28,-17,1,0,-1,-6
1528882902227131,-10,-5,-37,-16,-10,-5,0,7
1528882902241095,14,12,-51,-39,-1,5,8,11
1528882902241095,-4,40,79,43,9,7,8,4
1528882902256091,-21,-43,-44,5,2,0,4,0
1528882902256091,-16,-45,-1,-7,-4,-4,-18,-7
1528882902263034,37,51,23,8,0,3,2,4
1528882902263034,-18,-26,-19,-24,-12,-9,-6,-10
1528882902279991,-12,-48,-65,-21,-7,-4,-6,-7
1528882902279991,13,22,58,13,7,0,-5,-5
1528882902292955,4,12,-9,-2,-2,-5,-1,2
1528882902292955,-9,19,32,11,-1,1,5,16
1528882902300934,-11,-9,-9,0,2,0,-3,-11
1528882902300934,8,-10,-40,-10,-4,0,-3,1
1528882902315893,-21,-43,-32,-13,-3,-4,-1,2
1528882902315893,3,14,-23,-21,-6,-2,-2,-12
1528882902322874,-16,-46,2,6,-6,-7,-6,0
1528882902322874,23,70,38,11,5,2,5,4
1528882902345813,-49,-93,-9,4,2,-2,-4,-9
1528882902345813,37,52,-9,-9,-8,-9,-10,-6
1528882902360773,2,-1,39,12,7,8,5,-4
1528882902360773,11,2,-15,9,7,6,7,4
1528882902375735,-22,7,36,4,-7,-6,-6,-10
1528882902375735,-9,-35,-36,-17,-3,0,3,16
1528882902390695,-26,-60,-43,-14,-5,-7,-9,-11
1528882902390695,4,29,45,14,-3,-2,0,8
1528882902413632,-8,-21,-1,-8,-6,0,9,1
1528882902413632,-3,-1,6,1,1,2,3,0
1528882902420613,4,9,16,14,9,1,-3,1
1528882902420613,-2,2,3,-3,-4,-1,-1,1
1528882902435573,-1,3,-1,9,4,0,-7,-5
1528882902435573,-3,6,-14,-13,-7,-3,1,5
1528882902450533,26,27,18,11,5,0,-13,0
1528882902450533,12,4,-25,0,-2,3,23,6
1528882902458512,2,25,37,7,0,-6,-21,0
1528882902458512,-17,-41,-16,-12,0,3,14,9
1528882902465494,-10,-9,-36,-10,-9,-2,-1,-12
1528882902465494,9,31,35,16,4,-8,-14,-14
1528882902473472,-4,-1,-18,-7,-7,0,-5,-7
1528882902473472,1,-14,-7,-5,-5,1,3,-4
1528882902480454,-5,10,28,13,4,3,11,10
1528882902480454,-9,-32,-41,-18,11,10,-6,-1
1528882902488432,-11,4,9,7,-1,-6,-4,-12
1528882902488432,8,13,8,2,-3,-6,-12,-12
1528882902503404,8,4,7,-2,2,2,4,10
1528882902503404,-9,-7,11,10,-6,-1,-8,-3
1528882902510374,4,-27,-34,-8,18,14,7,4
1528882902510374,-1,8,-16,0,-7,-11,2,-3
1528882902518353,11,29,54,18,6,6,18,4
1528882902518353,1,1,7,-2,3,-7,-26,-3
1528882902525334,0,1,-3,-7,-6,3,4,1
1528882902525334,-13,-31,-28,-15,-5,-2,-5,-4
1528882902540294,-18,-26,-36,-23,-6,-2,-1,-11
1528882902540294,5,-4,7,0,-7,9,19,10
1528882902548274,3,8,3,6,-1,2,3,1
1528882902548274,7,-2,14,5,2,0,-10,0
1528882902563233,-1,5,-2,-8,2,-11,-6,-6
1528882902563233,-22,-14,-12,-10,-3,-8,7,1
1528882902570214,-5,-15,-45,-32,-19,-5,5,-3
1528882902570214,-4,14,31,27,28,6,-4,-6
1528882902578192,8,0,22,8,-21,11,-3,0
1528882902578192,5,14,6,15,4,8,3,5
1528882902585174,6,19,11,0,4,-6,2,1
1528882902585174,0,-17,-42,-19,-17,4,10,4
1528882902601132,-6,-17,-19,1,17,5,-2,0
1528882902601132,-1,-4,11,-1,-11,-10,-9,-5
1528882902616092,-5,-4,-27,2,4,-1,-6,-6
1528882902616092,-3,3,28,6,31,6,-4,-4
1528882902623117,11,24,23,28,4,-3,17,14
1528882902623117,-15,-22,-66,-36,-4,0,2,-11
1528882902638033,0,1,-7,2,-3,17,-7,-4
1528882902638033,12,13,39,7,-19,19,-5,3
1528882902652992,-33,-36,-34,-11,-21,24,2,-12
1528882902652992,17,-21,-17,-4,-12,13,0,-1
1528882902661007,-2,-21,-10,-15,-52,-20,-5,-1
1528882902661007,-33,-38,-23,11,54,23,-20,-22
1528882902675935,9,31,31,-8,21,7,18,14
1528882902675935,33,-4,10,17,13,18,1,12
1528882902682913,-9,-4,22,-3,36,33,4,-25
1528882902682913,9,-2,-3,7,-9,24,11,14
1528882902697872,-1,-17,-40,-17,4,10,0,4
1528882902697872,-1,37,30,10,-10,21,-16,-1
1528882902720813,-5,-1,26,13,8,43,-5,-13
1528882902720813,7,16,-44,-28,-24,17,2,9
1528882902727794,23,54,3,-7,1,11,1,23
1528882902727794,-37,-53,-46,-26,-16,-20,-2,-31
1528882902742752,45,21,46,19,21,19,13,25
1528882902742752,17,35,76,29,7,-4,-9,-11
1528882902750731,-24,-33,-36,3,-3,25,3,-6
1528882902750731,14,16,9,-19,-4,16,0,7
1528882902757712,20,28,32,5,3,-29,-9,8
1528882902757712,6,1,22,13,-3,-50,7,7
1528882902772672,-17,-15,-6,-1,-3,-46,-6,-2
1528882902772672,-9,-29,-87,-30,-14,-54,-4,-6
1528882902780650,-31,-29,21,11,8,-73,-1,-7
1528882902780650,13,-4,-5,-5,2,-59,14,5
1528882902795611,-14,6,3,5,1,-39,13,8
1528882902795611,67,50,41,0,-3,-22,-6,6
1528882902802591,-8,-21,-69,-41,-22,-15,-12,-11
1528882902802591,-6,3,-63,-32,-5,-13,2,-14
1528882902818550,12,-11,17,-1,-7,-24,-3,4
1528882902818550,-19,-14,20,20,7,-15,-1,-2
1528882902833510,-19,-33,-119,-50,-14,-29,-17,-19
1528882902833510,-16,9,-41,-30,-13,-27,-4,3
1528882902840492,4,31,77,33,18,5,3,0
1528882902840492,2,8,-14,-2,-3,11,3,7
1528882902855451,-17,-13,-47,-12,-13,7,-8,-23
1528882902855451,-9,-12,21,-6,-5,3,-7,-6
1528882902863430,3,19,-14,10,7,14,12,9
1528882902863430,5,-4,-10,-9,-3,12,-3,7
1528882902878390,19,22,26,-2,6,-9,-3,9
1528882902878390,11,17,77,45,7,-2,8,8
1528882902893350,18,11,-6,-4,0,3,3,5
1528882902893350,-41,-49,-25,-16,-9,-6,-8,-4
1528882902900331,-26,-72,-107,-62,-25,-1,1,-4
1528882902900331,-12,6,85,26,17,6,-7,4
1528882902915291,18,63,29,17,4,8,-6,-5
1528882902915291,-14,-20,17,22,7,4,14,10
1528882902930251,7,19,18,-3,0,-2,-8,-6
1528882902930251,-9,-26,-51,-24,-15,-5,-2,-5
1528882902945211,-27,-27,-41,14,5,19,-3,-8
1528882902945211,82,77,79,21,6,12,-15,17
1528882902968149,-10,7,36,22,2,14,17,8
1528882902968149,-7,-25,-82,-45,-13,6,4,-4
1528882902975136,-41,-31,4,1,-5,-12,-17,-15
1528882902975136,6,28,5,11,5,-2,0,-7
1528882902983109,-9,-13,15,11,1,-6,-1,-2
1528882902983109,18,24,-18,-21,-2,1,-7,-11
1528882902990136,-2,-7,-7,3,-3,8,-2,-6
1528882902990136,0,-20,-29,-7,-3,51,7,-2
1528882903021065,-9,-25,-65,-15,1,-14,-8,-16
1528882903021065,8,17,119,42,10,-4,4,10
1528882903028045,20,52,44,28,8,-1,4,3
1528882903028045,-30,-32,-69,-25,-12,-2,0,-1
1528882903042950,-5,-34,-23,-11,-2,-5,5,5
1528882903042950,-12,19,-2,10,9,-1,-7,-5
1528882903050983,28,38,-13,-5,0,13,8,10
1528882903050983,-9,-27,20,0,-1,25,-10,-11
1528882903080903,29,70,91,19,7,-10,7,12
1528882903080903,4,-9,-4,-3,-7,-12,0,7
1528882903095865,-13,-31,-87,-44,-11,-4,-2,-8
1528882903095865,-7,-10,36,7,-6,-20,-2,-1
1528882903110770,-8,-17,1,25,7,-7,1,-1
1528882903110770,5,23,19,5,1,-12,-1,1
1528882903117800,14,0,-11,-18,-8,-23,-7,3
1528882903117800,-15,-30,-33,-8,2,-35,6,-4
1528882903140745,-11,-12,-1,-10,-4,11,3,1
1528882903140745,4,-4,-20,1,4,-3,5,0
1528882903155648,-5,-11,-24,-38,-31,-30,-7,-2
1528882903155648,-5,-3,-3,18,32,-72,-5,-3
1528882903162666,7,12,45,46,-3,-63,7,6
1528882903162666,-1,3,2,7,34,13,6,3
1528882903179619,-2,-4,1,-6,-16,6,3,1
1528882903179619,-3,-12,-25,-15,-4,34,-5,-3
1528882903193770,-3,-7,-1,-3,4,37,-2,-7
1528882903193770,-6,4,12,9,9,36,-15,-2
1528882903200772,9,-5,-7,-20,-2,26,20,4
1528882903200772,-4,6,-9,3,2,-5,-5,1
1528882903215493,0,-1,9,22,-2,-8,-2,1
1528882903215493,-1,6,-1,2,0,-3,0,-2
1528882903223796,-3,7,3,1,-8,-11,-10,-3
1528882903223796,-4,8,-22,-39,-15,-24,10,3
1528882903238811,-2,-11,-7,-17,5,-28,8,3
1528882903238811,3,8,17,37,13,-41,-11,-1
1528882903253848,-3,6,-7,-15,2,-46,-11,0
1528882903253848,1,3,-1,-5,-8,-40,-10,-1
1528882903268487,-2,-2,0,-4,0,-18,-11,-3
1528882903268487,0,1,4,8,4,-49,-11,1
1528882903283485,-5,2,-7,-7,-13,-54,-4,0
1528882903283485,0,2,-3,-3,-1,8,-7,0
1528882903298440,0,1,5,6,2,67,-2,0
1528882903298440,4,1,4,2,-11,32,7,1
1528882903313411,1,9,0,6,9,-128,7,1
1528882903313411,0,3,1,-1,-4,-128,5,-2
1528882903328363,-2,-12,0,2,5,55,-3,-4
1528882903328363,-4,-16,2,-3,3,93,4,-4
1528882903343323,0,0,0,2,4,78,0,-2
1528882903343323,1,1,1,-3,-9,64,3,0
1528882903358323,0,0,-1,-1,-3,62,2,-1
1528882903358323,2,-1,2,1,-4,73,1,0
1528882903373487,-1,-2,-4,-5,-5,84,3,-3
1528882903373487,-3,-9,-5,0,-3,91,-3,-1
1528882903381397,4,11,1,-1,-5,54,-4,-3
1528882903381397,2,6,10,7,0,55,-3,-2
1528882903403167,1,-1,-2,-2,-2,56,-2,0
1528882903403167,-4,3,1,-2,-2,31,-4,-4
1528882903411142,3,-8,-8,-2,-1,16,0,1
1528882903411142,1,9,-1,-2,-4,10,-2,-1
1528882903426352,-1,3,-3,-3,-4,2,-2,-1
1528882903426352,1,0,1,1,3,3,1,3
1528882903433344,-3,-2,0,0,0,-5,2,-1
1528882903433344,-1,0,-3,-2,-5,-4,1,-1
1528882903456408,0,2,3,-6,-2,-14,-3,-1
1528882903456408,4,8,2,8,3,-7,-5,1
1528882903463308,-16,-31,-15,-2,-2,-11,0,-2
1528882903463308,3,23,8,2,-7,-18,-23,-1
1528882903478343,4,20,15,4,8,-9,6,5
1528882903478343,8,-10,0,-7,20,-3,6,-2
1528882903486433,10,20,8,6,-4,-9,-1,5
1528882903486433,-13,-29,-14,-4,0,-10,2,-3
1528882903501288,-7,-12,-8,-6,-11,-10,-2,-2
1528882903501288,-5,3,4,-1,-1,-11,3,4
1528882903515205,4,9,5,2,3,-8,-6,0
1528882903515205,0,-2,-2,-4,-10,-11,1,0
1528882903523438,-2,-1,-4,-8,-3,-10,0,-2
1528882903523438,0,1,-2,-3,4,-5,2,-1
1528882903538406,-2,-5,-3,10,6,-6,6,-2
1528882903538406,-2,-1,-8,-4,-1,-5,-5,-3
1528882903546391,3,14,16,7,7,4,6,3
1528882903546391,2,0,4,-3,1,-9,-5,-2
1528882903561354,-2,-9,-9,-6,-9,-13,-2,0
1528882903561354,-4,-4,7,-2,-6,-14,-2,-2
1528882903576408,-1,-5,-8,0,4,-3,-7,-3
1528882903576408,2,5,-7,0,-5,-6,-7,-1
1528882903583841,-1,0,-7,-3,-3,-7,1,1
1528882903583841,0,-2,-4,0,-3,-1,7,0
1528882903599007,-1,-2,-5,-3,-8,-2,2,0
1528882903599007,1,7,5,4,1,1,1,3
1528882903606413,0,1,-2,-1,-3,-1,0,0
1528882903606413,-5,-13,-11,-7,0,2,1,-2
1528882903621291,3,6,5,-2,1,-9,-9,-2
1528882903621291,1,1,4,3,2,8,6,0
1528882903636250,-2,-8,-4,2,2,10,23,6
1528882903636250,0,-3,-4,2,-2,-11,-27,-6
1528882903643972,-1,3,3,1,-5,-8,-7,-3
1528882903643972,0,3,4,6,8,-1,-13,-4
1528882903658488,0,-3,-2,-3,6,-1,-4,-3
1528882903658488,-1,0,-1,0,-12,-8,2,-1
1528882903665729,-2,-3,-5,-3,-1,0,3,-2
1528882903665729,-1,-3,-1,-4,-2,-1,12,4
1528882903681054,-1,1,3,1,-4,0,-2,-2
1528882903681054,-1,-1,-2,-1,9,1,4,-1
1528882903695336,-1,0,1,-3,-2,-4,-2,-1
1528882903695336,0,-4,-2,-1,7,-2,3,3
1528882903703652,3,1,1,0,0,-1,2,-2
1528882903703652,-1,-1,-1,6,2,-2,4,0
1528882903718573,-3,-2,-4,-3,-2,-5,-5,0
1528882903718573,-3,-2,-2,1,1,-2,2,0
1528882903725556,2,6,3,2,-4,0,-1,0
1528882903725556,-1,-1,-2,-6,-4,1,2,-1
1528882903740776,0,0,0,-4,-3,-15,-16,-4
1528882903740776,-1,-1,0,-5,-9,-2,8,2
1528882903755738,0,2,5,2,-3,0,-5,-3
1528882903755738,-1,-2,-2,-2,-1,3,3,0
1528882903763935,-3,-3,-2,-2,-6,-4,0,-1
1528882903763935,-1,-2,-3,-1,1,-2,1,-1
1528882903778943,0,0,1,2,2,2,5,4
1528882903778943,0,0,0,2,-4,-2,-4,-2
1528882903786103,-1,-1,-2,2,17,1,-2,0
1528882903786103,-2,0,-1,-7,-35,-21,-6,-4
1528882903801168,2,0,-3,-2,3,-2,0,3
1528882903801168,0,1,5,4,-5,13,-3,-5
1528882903816466,-2,-4,-2,-2,-2,-3,5,-1
1528882903816466,2,-1,-2,-3,-4,-1,4,3
1528882903823374,-1,1,4,0,-6,0,-7,-3
1528882903823374,-2,-1,0,4,9,1,-1,-3
1528882903838104,-2,-1,1,-1,-6,1,-2,-2
1528882903838104,0,-1,-1,-8,-13,-4,2,2
1528882903846051,-3,-5,-7,-6,-11,-10,9,5
1528882903846051,4,2,3,5,25,2,-1,0
1528882903861049,-1,-3,-1,-3,-21,-1,-6,-3
1528882903861049,1,2,2,6,9,-1,-10,-3
1528882903875971,-1,-3,-4,-2,-1,7,4,-1
1528882903875971,-1,0,-1,-1,0,-8,2,0
1528882903882952,1,-1,-1,1,6,3,-3,-2
1528882903882952,-1,1,-3,-4,5,-4,-2,0
1528882903897913,0,2,4,5,14,2,-2,-2
1528882903897913,-1,-2,-1,-2,3,1,-3,1
1528882903906134,0,-1,0,7,10,7,5,1
1528882903906134,-2,-4,-5,-15,-48,-15,-6,-4
1528882903921119,0,0,-2,-1,7,1,-6,0
1528882903921119,-1,-2,0,2,-4,-4,-1,0
1528882903935855,-1,-3,-3,-3,-7,-4,12,4
1528882903935855,0,-1,-3,-2,13,-1,-8,-4
1528882903943869,0,0,0,0,3,5,-3,-1
1528882903943869,0,0,-1,0,-4,-1,1,1
1528882903958567,-1,-1,-2,-1,6,4,3,-1
1528882903958567,-2,-1,-1,4,11,9,4,-2
1528882903965978,1,1,1,-2,-3,-8,-8,-1
1528882903965978,-1,-3,-2,-2,6,6,-2,0
1528882903981116,0,0,1,1,1,-4,0,-1
1528882903981116,-2,-1,-2,-4,-8,3,5,1
1528882903996176,-1,-2,-2,-5,-25,-12,-13,-4
1528882903996176,0,-3,-2,17,85,16,13,6
1528882904003984,-3,-6,-7,-23,-83,-29,-15,-6
1528882904003984,0,2,1,0,12,4,2,-1
1528882904019005,0,0,0,-1,2,0,3,0
1528882904019005,2,5,3,-4,-13,-2,-5,-2
1528882904026461,-1,-4,-3,2,16,5,1,0
1528882904026461,1,-1,0,0,0,4,4,1
1528882904048829,1,0,-3,0,-7,-3,0,1
1528882904048829,-2,-1,-1,-4,-17,-7,-2,-2
1528882904071064,-1,-2,0,4,14,5,-1,-1
1528882904071064,-2,-2,-1,-4,-12,-4,1,-1
1528882904079059,-1,1,1,0,1,-3,2,-2
1528882904079059,0,-3,-3,-2,1,-1,6,4
1528882904093472,-2,-1,3,5,24,3,-8,-5
1528882904093472,-1,0,-1,-3,-19,-3,-3,-1
1528882904116483,-2,0,1,5,11,-1,0,-2
1528882904116483,0,0,1,2,-1,2,-4,-2
1528882904123058,0,-2,0,1,4,-2,-1,1
1528882904123058,1,2,3,2,-2,2,0,-2
1528882904138080,-2,-2,-1,-2,-2,6,-2,1
1528882904138080,-1,-2,-2,-2,-3,4,-1,-5
1528882904146053,0,0,1,-1,-1,0,1,6
1528882904146053,1,1,-1,0,3,1,-2,0
1528882904161389,0,-2,-4,-5,7,-5,3,20
1528882904161389,4,3,3,2,-4,-2,1,-9
1528882904168993,-1,-1,-2,0,-12,7,0,-6
1528882904168993,-2,-2,-3,-4,4,-9,-1,6
1528882904176244,4,2,3,5,18,6,-5,-8
1528882904176244,0,0,-2,-2,-1,-6,-6,5
1528882904182898,0,-1,-3,-3,-5,-4,2,-2
1528882904182898,-7,0,0,1,-9,-9,-9,-31
1528882904197875,15,3,2,6,22,13,13,40
1528882904197875,-3,0,0,-3,-7,-3,-1,-3
1528882904205837,2,1,1,4,15,5,0,12
1528882904205837,-4,-2,0,0,-1,6,-3,-10
1528882904220834,-6,-3,-4,-6,-11,-10,-5,-16
1528882904220834,-3,0,1,-1,-7,-2,-4,-8
1528882904227831,1,2,0,-1,1,2,5,7
1528882904227831,1,-1,-2,1,6,1,-1,6
1528882904235809,-4,-3,0,-4,-15,-6,-4,-13
1528882904235809,1,-2,-2,-1,-1,-2,4,8
1528882904242793,-3,-1,0,0,-1,0,-4,-11
1528882904242793,-1,-2,-4,-8,-15,-15,-3,6
1528882904257698,-4,0,0,4,10,-1,-1,8
1528882904257698,-1,0,-2,1,-3,4,5,-18
1528882904265734,1,0,3,1,-10,4,4,0
1528882904265734,-1,-3,-4,-12,-19,-24,-10,-1
1528882904280691,-4,-3,-2,-4,-7,-3,0,-3
