timestamp,emg1,emg2,emg3,emg4,emg5,emg6,emg7,emg8
1529288216727561,12,32,29,19,7,3,6,9
1529288216727561,-1,2,4,-2,-1,-1,-3,-1
1529288216728558,-10,-17,-8,-6,-5,1,-7,-12
1529288216728558,0,3,3,0,-3,-2,-4,-5
1529288216731551,-7,-18,-7,-8,-7,-4,-2,-15
1529288216731551,9,15,7,2,1,-2,6,2
1529288216735539,2,4,-1,5,1,2,6,4
1529288216735539,-2,-8,-8,1,-1,4,1,-4
1529288216738531,0,-4,-8,-3,-3,-1,-4,-1
1529288216738531,-4,-4,-3,-3,0,-2,-5,-5
1529288216748505,1,-2,-7,-3,-2,-8,-5,-3
1529288216748505,0,4,4,4,0,-1,0,-6
1529288216763464,1,0,-3,-1,-1,0,0,7
1529288216763464,-5,-15,-6,-3,2,-2,-2,0
1529288216768451,5,23,14,5,4,0,0,1
1529288216768451,-2,1,2,-3,1,-2,3,7
1529288216784409,-3,-12,-13,-10,-4,0,0,0
1529288216784409,-3,5,6,7,-1,-1,-1,5
1529288216791390,-13,-5,-3,-4,-1,-5,-2,-3
1529288216791390,-8,-2,-7,-2,0,-9,1,-7
1529288216799368,-9,-3,2,0,5,-3,-1,-7
1529288216799368,-8,-17,-7,-1,0,2,-2,-1
1529288216847241,8,-6,-2,4,0,1,2,9
1529288216847241,7,9,5,-1,-2,-7,-1,3
1529288216848239,5,1,-4,-8,-8,-6,-3,1
1529288216848239,3,-5,-1,3,2,4,12,21
1529288216851230,-4,0,-1,-2,1,-1,3,5
1529288216851230,-10,-18,-5,-1,-2,3,5,5
1529288216852228,8,10,9,7,8,1,-3,0
1529288216852228,-5,-13,-6,-14,-5,-2,-6,-9
1529288216858212,11,12,8,2,-3,1,-2,-5
1529288216858212,-6,-25,-11,-3,-1,1,-5,-9
1529288216865192,13,29,8,2,-8,-2,-3,-8
1529288216865192,-10,-11,-9,4,4,-5,-7,-11
1529288216874169,-11,-4,-14,-16,-12,-6,-1,-4
1529288216874169,5,24,3,0,4,0,-1,3
1529288216889128,-18,-19,-9,-7,-3,2,-1,-4
1529288216889128,-7,-13,6,6,3,7,4,-2
1529288216895112,20,30,22,11,4,2,3,3
1529288216895112,13,11,10,13,8,5,6,4
1529288216910073,3,-8,-12,-12,3,6,0,-2
1529288216910073,8,8,3,-2,-14,-7,-6,4
1529288216919050,-5,-15,-7,4,2,3,0,10
1529288216919050,-7,-18,-14,-9,-13,-6,-6,14
1529288216934008,1,-2,-4,-15,-16,-10,3,55
1529288216934008,-5,6,-1,-7,-3,-5,4,67
1529288216934008,-15,-12,-12,-1,3,-4,0,-8
1529288216934008,1,24,16,15,10,4,1,-48
1529288216947972,-16,-15,-6,8,11,3,-2,-71
1529288216947972,1,9,0,-3,-5,2,-6,-56
1529288216955949,-11,-32,-18,-7,-14,-3,-7,-23
1529288216955949,15,21,10,3,0,5,1,16
1529288216970911,4,6,2,2,-2,3,-1,18
1529288216970911,8,8,2,8,11,5,5,8
1529288216978890,-8,-8,-4,-2,11,5,-1,-8
1529288216978890,-7,-6,-1,-14,-12,-10,-3,-19
1529288216985870,2,-3,1,-4,-8,-13,-6,-6
1529288216985870,0,0,3,4,0,-8,-7,-8
1529288216992852,-1,-10,-5,-4,-1,-1,1,3
1529288216992852,-2,-7,-10,-8,-3,4,0,10
1529288217007812,-3,2,3,4,5,2,8,10
1529288217007812,-8,-11,-9,-4,0,-2,-1,-5
1529288217015790,12,19,7,6,-2,0,4,9
1529288217015790,-3,-5,0,4,0,2,1,10
1529288217030752,-1,-7,-3,1,0,2,0,7
1529288217030752,-3,8,6,0,0,-1,1,-7
1529288217038731,-2,0,5,-2,7,-3,-2,6
1529288217038731,11,0,1,-1,0,-5,-4,11
1529288217045713,2,8,4,8,3,1,-8,-4
1529288217045713,4,-2,-13,-13,-10,-3,-2,0
1529288217052692,2,2,2,4,-3,0,-2,2
1529288217052692,-21,-37,-26,-12,-9,-4,-2,-8
1529288217067652,13,20,19,13,7,4,6,1
1529288217067652,-1,2,3,-1,3,5,2,-4
1529288217075631,-2,4,0,-9,-2,-2,-2,0
1529288217075631,-11,-15,-4,3,7,1,-2,-5
1529288217090591,3,5,3,3,3,2,2,6
1529288217090591,4,-4,-5,-7,-15,-9,-1,-4
1529288217098571,1,-5,-4,-1,-7,-6,0,-4
1529288217098571,3,11,5,3,-4,-1,1,0
1529288217105552,-1,5,6,2,3,3,-2,2
1529288217105552,1,1,4,5,7,5,-2,3
1529288217112532,-7,-3,2,0,3,0,-4,-3
1529288217112532,-2,-6,-2,-5,4,2,2,0
1529288217127531,-2,-15,-13,-13,-7,-2,4,-2
1529288217127531,-3,1,1,2,2,1,-1,-3
1529288217135506,-5,2,-2,3,1,6,-3,1
1529288217135506,5,17,6,5,0,-8,-7,-1
1529288217150431,-3,-12,-12,-2,7,2,0,-8
1529288217150431,-3,-11,-8,-8,-10,-7,-8,-5
1529288217158444,8,6,6,4,0,0,8,4
1529288217158444,-6,-7,1,0,0,3,-1,4
1529288217165391,1,3,5,0,-2,-3,-3,2
1529288217165391,5,-1,2,4,3,1,-2,0
1529288217173369,2,-5,1,3,4,-1,-1,0
1529288217173369,13,8,2,-4,-5,-7,5,5
1529288217188382,-7,-12,-4,-3,4,2,3,-3
1529288217188382,-2,2,-1,1,-5,-2,2,4
1529288217195312,-2,2,-2,-3,4,-1,-4,-4
1529288217195312,-8,-3,4,-4,-5,0,2,-2
1529288217210317,5,11,1,7,-4,3,-3,1
1529288217210317,1,10,4,0,0,2,0,-8
1529288217218293,0,4,-1,-2,-3,1,2,0
1529288217218293,-5,-6,-1,0,9,3,-4,-3
1529288217225277,-7,-9,-3,-7,2,1,-5,1
1529288217225277,-2,-9,-1,-4,-4,-5,1,2
1529288217241190,-2,0,-1,2,12,5,2,-3
1529288217241190,-3,-6,0,2,3,2,4,-2
1529288217248172,3,0,4,3,-3,-2,1,5
1529288217248172,-5,-5,-3,4,6,2,-1,-4
1529288217255185,-3,-6,-2,-5,-8,-6,-2,1
1529288217255185,8,12,5,5,0,1,1,5
1529288217270112,-9,-5,-8,-7,-9,-5,-3,-7
1529288217270112,-1,3,-4,-4,-7,0,-1,0
1529288217279086,3,5,-2,-2,1,-1,0,3
1529288217279086,3,-2,-7,2,1,-4,-5,0
1529288217285104,4,-1,-1,2,-4,-5,-1,3
1529288217285104,-1,2,-7,-2,5,-2,2,-1
1529288217301074,-4,-3,-1,-5,-10,1,2,-5
1529288217301074,-5,-2,-3,-11,-7,-2,-2,-8
1529288217308050,6,5,7,4,6,5,8,4
1529288217308050,8,10,10,6,10,3,1,2
1529288217315030,-2,0,-1,-4,2,0,0,1
1529288217315030,-4,-5,-1,0,-1,0,-3,-1
1529288217329952,-4,-4,-7,-5,-7,-7,-5,-5
1529288217329952,3,5,8,7,4,0,-5,-2
1529288217338926,9,10,11,14,1,1,-4,7
1529288217338926,-8,-8,-12,-11,-16,-7,-9,-5
1529288217344911,-2,-6,-5,-4,-2,-3,3,-6
1529288217344911,-8,-15,-4,4,6,1,7,0
1529288217360912,15,18,6,1,1,5,6,4
1529288217360912,4,13,9,8,-4,0,0,-3
1529288217367899,1,1,-1,5,3,3,-3,-4
1529288217367899,-4,-4,-7,-16,-12,-7,-7,-9
1529288217375838,-1,-5,-6,-2,6,-2,-8,-4
1529288217375838,-2,1,2,3,3,4,-1,5
1529288217390826,-9,-4,-4,-4,-3,-3,-5,4
1529288217390826,0,1,4,2,5,4,7,7
1529288217398806,-6,-11,-1,-9,-8,-7,-2,-7
1529288217398806,4,-1,8,6,7,-2,3,-3
1529288217405776,6,3,-4,2,4,1,5,0
1529288217405776,-2,-6,-7,4,3,3,-1,-3
1529288217420712,-4,-4,3,4,-1,3,2,2
1529288217420712,1,1,-7,-4,2,2,4,3
1529288217427689,1,-1,2,-11,-10,-4,-7,3
1529288217427689,4,3,-2,-1,-3,1,1,7
1529288217435721,-1,-9,-8,-8,-2,-3,-7,-5
1529288217435721,2,0,2,0,-1,-1,-4,-3
1529288217459637,-5,2,5,0,0,-1,-1,-2
1529288217459637,1,6,6,0,0,0,0,1
1529288217460720,-8,-6,-3,3,-3,-4,0,-7
1529288217460720,6,3,0,-1,6,3,4,-2
1529288217465589,3,1,3,4,1,3,1,-3
1529288217465589,-1,0,0,0,-5,3,2,1
1529288217480548,-3,4,-6,-11,-14,-8,0,4
1529288217480548,-5,-2,-5,-5,-7,2,1,3
1529288217487531,-4,-8,-4,-3,-6,1,7,0
1529288217487531,3,-4,3,6,2,-3,1,0
1529288217495509,-2,2,-2,4,11,3,-3,-6
1529288217495509,-8,2,-1,-4,1,-2,-1,-3
1529288217510655,-9,-8,-4,-5,0,-6,-7,-1
1529288217510655,2,-1,2,-1,-1,-4,-4,0
1529288217519444,4,-3,-1,-2,-8,-6,-6,0
1529288217519444,3,7,6,6,-2,0,-2,-2
1529288217525607,1,3,5,10,4,5,-1,-2
1529288217525607,1,0,-5,-10,0,-4,-1,1
1529288217542371,-1,0,2,-1,0,-2,-1,-2
1529288217542371,-6,-11,-8,-3,1,2,3,-3
1529288217548384,5,12,8,13,7,3,6,1
1529288217548384,-6,-8,-9,-11,-4,-3,-7,-7
1529288217564316,2,2,1,-4,0,1,1,1
1529288217564316,1,5,5,3,8,2,-6,6
1529288217570324,-10,-13,-8,-7,-8,-6,-9,-7
1529288217570324,-4,-6,1,4,2,5,8,4
1529288217579274,0,-2,-2,5,-2,-1,4,4
1529288217579274,1,-3,-4,-5,-11,-8,-3,2
1529288217585259,0,-4,-6,1,8,2,0,4
1529288217585259,4,9,6,5,1,-3,-8,-8
1529288217602214,-3,-6,-3,-3,2,1,-1,-5
1529288217602214,7,9,2,-5,0,1,7,7
1529288217608198,2,4,-1,0,-3,-1,-4,-1
1529288217608198,-6,0,-5,0,-4,-1,-6,-3
1529288217624277,-3,-3,-3,7,2,0,-5,0
1529288217624277,-6,-10,2,-1,-3,-6,0,0
1529288217630375,1,4,2,-2,3,0,2,-1
1529288217630375,-2,-5,-1,-1,4,-2,1,0
1529288217639115,12,16,11,2,0,1,9,2
1529288217639115,-2,-9,-7,-4,-8,-1,-6,-6
1529288217646118,-4,-5,-2,-4,-7,2,3,3
1529288217646118,1,4,3,3,-1,2,4,2
1529288217662055,-9,-7,-5,2,6,6,-2,-5
1529288217662055,6,8,4,-3,0,-1,-2,-4
1529288217668068,9,4,1,0,0,-3,1,0
1529288217668068,4,0,3,2,0,0,-3,1
1529288217683024,2,0,5,7,5,3,2,8
1529288217683024,-3,-5,-2,-8,-2,-2,0,1
1529288217690370,-4,-7,-5,-3,-6,-3,-4,2
1529288217690370,-6,6,2,-2,0,-2,-6,-3
1529288217698981,-1,5,-1,3,8,7,0,0
1529288217698981,-7,-4,-10,-12,-12,-2,-1,-6
1529288217706006,0,1,-1,-5,-9,-6,0,-3
1529288217706006,3,-1,-3,-1,0,-1,4,4
1529288217721970,1,-2,-1,7,1,-2,3,0
1529288217721970,3,-1,0,8,11,-2,-5,-1
1529288217728315,-2,0,2,0,5,-2,-2,-3
1529288217728315,1,-7,-7,-4,-4,-2,0,-3
1529288217743033,7,3,3,-3,-5,0,-4,0
1529288217743033,0,-1,0,8,3,2,-1,-7
1529288217751011,1,-1,-2,-7,-7,-4,0,0
1529288217751011,-1,0,8,4,3,6,5,-2
1529288217759986,-5,-4,-3,-3,0,0,0,-4
1529288217759986,1,6,-3,-9,-9,-1,4,4
1529288217765968,-6,-4,1,6,3,0,1,2
1529288217765968,2,4,0,2,2,-1,-1,7
1529288217781801,-3,-3,-2,-3,-8,-5,-5,-3
1529288217781801,0,-2,1,8,7,2,0,-1
1529288217787744,-2,-6,-3,-2,4,1,-2,-4
1529288217787744,-4,-5,-4,-9,-6,-3,-6,-5
1529288217803174,-4,5,6,1,3,0,-3,4
1529288217803174,-2,-3,0,-7,2,0,1,4
1529288217810333,1,4,-2,-5,-1,-1,2,1
1529288217810333,7,7,1,3,8,2,3,1
1529288217820154,2,2,-2,-13,-8,-3,1,-4
1529288217820154,-3,-5,-3,-2,-3,-4,-5,-5
1529288217833451,1,2,0,-2,2,-2,-1,-4
1529288217833451,-2,-1,1,4,-8,-5,-3,-1
1529288217842070,-5,-8,-3,5,4,0,-5,3
1529288217842070,5,4,-1,5,-2,0,0,5
1529288217856503,1,-3,-1,8,8,3,2,0
1529288217856503,-5,-3,-9,-8,-8,-1,-3,-8
1529288217863558,-5,-5,-4,-4,-8,-3,2,1
1529288217863558,2,4,5,5,8,4,0,-3
1529288217870772,-4,3,4,-3,-7,-1,2,0
1529288217870772,3,4,3,-3,4,0,0,-1
1529288217879745,-1,-9,3,-5,-7,-8,-2,-4
1529288217879745,-2,-8,0,2,2,0,3,4
1529288217892932,4,14,5,9,4,4,-1,-1
1529288217892932,-7,-6,-9,-3,-8,-1,-2,0
1529288217901911,0,6,-2,-3,-1,2,-2,2
1529288217901911,0,2,-2,2,2,3,-3,0
1529288217916870,-2,-5,0,1,2,-2,8,2
1529288217916870,-2,-4,-3,0,-5,-6,0,-1
1529288217917867,8,10,2,3,7,3,-1,0
1529288217917867,-3,-9,0,4,-4,-2,-1,-3
1529288217930868,1,0,3,-1,-5,0,2,2
1529288217930868,1,-2,-1,-4,-2,1,2,3
1529288217939844,1,1,0,-1,2,-2,-2,1
1529288217939844,-1,6,-1,1,2,-1,-3,0
1529288217952774,-5,-8,-11,-10,5,-2,-6,-7
1529288217952774,-1,4,6,-1,5,-2,0,5
1529288217961750,-3,-2,4,1,-1,-3,-1,-1
1529288217961750,0,-7,1,-7,-7,-4,0,-1
1529288217975714,-3,-3,1,5,-3,3,-1,-2
1529288217975714,-2,1,4,2,2,2,-1,-9
1529288217984689,4,-1,-3,-1,-3,-1,3,-6
1529288217984689,2,8,-2,2,1,-4,-3,1
1529288217990673,-4,-5,-3,5,4,0,0,5
1529288217990673,3,0,-2,-2,3,0,-3,-1
1529288217999651,-2,-10,-7,-6,-7,-3,-6,-1
1529288217999651,-1,-7,-4,4,3,2,-1,-5
1529288218013613,3,2,1,-6,-4,-2,-12,-4
1529288218013613,3,0,0,3,10,4,8,9
1529288218021612,-1,1,4,-5,-6,-3,3,3
1529288218021612,-4,-4,0,2,-1,2,1,1
1529288218036718,7,10,1,4,-2,-2,-3,2
1529288218036718,-3,-3,-5,3,3,2,-3,-2
1529288218038545,-5,-2,-3,-6,-4,-1,-3,-2
1529288218038545,6,7,6,-2,-1,2,1,7
1529288218050672,-4,-2,-3,-9,-5,-1,-2,-2
1529288218050672,-5,3,-4,3,0,0,2,0
1529288218059490,-4,-1,-9,0,-3,-2,6,0
1529288218059490,-5,-7,-4,-1,-1,0,-4,-8
1529288218072484,6,0,-1,0,1,1,0,3
1529288218072484,-3,-8,4,0,-7,-3,-8,-3
1529288218081470,3,-2,1,2,1,-2,-5,-1
1529288218081470,-4,-2,1,-2,0,-2,0,-1
1529288218096390,0,1,-1,3,4,-3,3,3
1529288218096390,-4,-6,-8,-7,-7,-5,2,-3
1529288218098385,3,0,-3,3,3,3,2,-3
1529288218098385,2,1,0,-6,-3,-5,0,0
1529288218110354,-6,-8,-6,-7,-4,-4,-6,-7
1529288218110354,9,14,12,6,5,5,7,6
1529288218119330,-5,-5,2,2,1,5,0,2
1529288218119330,1,6,3,3,0,3,1,-2
1529288218133339,-6,-5,-4,-1,-4,6,0,2
1529288218133339,-7,-8,-3,1,-3,4,-3,-4
1529288218142315,6,6,-2,-7,-7,-5,-2,-1
1529288218142315,0,-1,-8,0,0,-2,5,0
1529288218156277,-4,-4,-1,-3,-5,-6,2,-1
1529288218156277,-6,-9,1,-3,1,-5,-5,0
1529288218163259,-5,-2,5,2,3,-1,-4,0
1529288218163259,-5,0,-2,-3,1,-1,-12,-8
1529288218170241,3,1,-4,-2,-6,-2,0,1
1529288218170241,3,1,-3,-1,-1,-5,-4,-1
1529288218179202,-2,-3,-4,-4,1,-4,1,1
1529288218179202,3,0,1,-1,0,1,2,2
1529288218193179,4,3,3,0,1,-1,4,1
1529288218193179,0,-2,-6,-1,-6,-4,0,-7
1529288218202109,-8,-5,-9,-1,3,-3,6,-7
1529288218202109,-2,5,-2,2,-3,1,9,2
1529288218216117,-4,-5,-5,-2,1,-1,-4,-2
1529288218216117,4,5,7,3,1,2,0,1
1529288218223053,1,-5,-3,-1,2,3,-2,1
1529288218223053,1,0,1,-5,-5,5,-5,1
1529288218230033,0,-5,2,4,4,5,2,1
1529288218230033,-2,2,2,0,0,-5,-5,-2
1529288218239048,0,5,6,2,0,-2,1,-2
1529288218239048,-1,-2,-4,-3,-1,-3,4,-2
1529288218252971,0,1,-2,-2,-5,-6,-5,-6
1529288218252971,0,2,-1,-1,2,-5,0,1
1529288218261947,3,11,4,5,-2,-1,-2,-1
1529288218261947,-5,-13,-1,-1,6,3,2,1
1529288218275910,-1,1,1,-4,0,4,7,-1
1529288218275910,3,3,-2,-2,-3,4,1,3
1529288218282891,0,-4,-2,-2,-10,-1,-1,3
1529288218282891,4,2,5,7,17,10,3,3
1529288218290870,-9,-6,0,-11,-2,-6,-4,-8
1529288218290870,10,6,3,-2,6,0,8,3
1529288218299846,4,7,5,4,1,-3,2,1
1529288218299846,-3,-3,-5,-3,-12,-10,-9,-7
1529288218312811,8,0,-6,7,1,2,4,1
1529288218312811,-7,-5,-8,-3,-7,-1,-7,0
1529288218321787,-5,0,-1,-2,-2,0,-6,-2
1529288218321787,-1,-3,1,2,2,0,-2,6
1529288218335750,-8,-10,-4,2,3,2,2,2
1529288218335750,8,8,5,1,-1,2,-2,3
1529288218342731,-1,-8,-2,2,3,-2,0,-1
1529288218342731,4,7,2,-2,-4,-6,-2,3
1529288218359686,-3,3,-1,-2,2,-1,-4,-2
1529288218359686,-1,-2,-3,2,2,1,3,-4
1529288218361681,2,-7,-6,-4,-3,-2,3,-6
1529288218361681,1,4,0,-6,-7,-6,1,-3
1529288218372651,2,6,4,4,0,-1,-1,0
1529288218372651,-2,-4,-3,-6,-1,1,0,-1
1529288218381627,-1,-6,-2,-1,2,-1,-5,1
1529288218381627,-1,-7,2,8,1,1,-2,1
1529288218396587,-3,-4,-2,-3,-4,-2,-3,3
1529288218396587,-4,-1,-1,-1,1,3,4,4
1529288218402571,-5,-3,-4,-6,2,0,-2,4
1529288218402571,-2,0,1,1,-2,-4,-2,-2
1529288218419526,5,3,9,-2,-10,0,-5,-3
1529288218419526,-4,-5,-4,-3,9,5,-4,-5
1529288218420524,-3,0,-7,-14,-19,-9,0,-3
1529288218420524,8,5,-3,3,1,3,4,7
1529288218432520,3,1,-1,5,10,4,4,2
1529288218432520,4,-2,4,5,-6,-2,-1,-1
1529288218442624,-1,1,7,2,6,4,-3,-8
1529288218442624,-5,-3,-2,-11,-3,-2,0,2
1529288218456073,-3,-5,1,5,6,-8,-1,-1
1529288218456073,3,6,-6,2,1,-2,0,0
1529288218464018,0,6,-2,7,4,3,-1,0
1529288218464018,-8,-8,-5,-1,-8,1,-2,-8
1529288218479011,3,3,0,-4,-9,3,2,0
1529288218479011,-5,-8,-3,2,-5,0,0,-4
1529288218486037,6,2,7,3,3,1,0,5
1529288218486037,2,2,1,-4,0,-6,-6,-2
1529288218493249,4,4,0,-4,5,1,4,9
1529288218493249,-5,0,-4,-12,-4,-8,-4,-6
1529288218502115,0,6,0,0,0,0,1,0
1529288218502115,0,-5,-1,1,0,0,2,0
1529288218516532,-3,-8,-3,1,1,-2,-4,-2
1529288218516532,0,-3,2,6,0,2,-2,4
1529288218523516,-9,-11,-5,-5,-1,3,-5,0
1529288218523516,-1,8,4,2,1,0,-3,-4
1529288218539879,-4,8,2,-1,-2,-3,-1,-5
1529288218539879,3,2,0,3,2,-1,3,0
1529288218540780,2,-8,-8,-1,2,-4,2,-8
1529288218540780,5,1,6,1,3,1,6,4
1529288218552844,1,2,5,5,3,2,7,2
1529288218552844,-7,-3,-2,-3,5,2,5,-3
1529288218569636,-4,-4,-2,-3,-8,-3,-1,0
1529288218569636,-6,-11,-5,-5,-1,1,-4,-3
1529288218576620,3,1,-4,-4,0,1,-3,3
1529288218576620,4,6,-1,5,3,4,2,3
1529288218582604,2,2,-4,0,-3,-2,1,-1
1529288218582604,-6,1,-3,1,0,3,-2,-2
1529288218600031,3,5,4,6,-1,1,-5,-2
1529288218600031,-3,-7,-1,-2,-3,-5,-10,1
1529288218601728,8,6,9,1,7,-2,-2,6
1529288218601728,0,-7,-2,-5,-5,-6,-1,-2
1529288218612866,2,-6,2,-2,3,-1,3,-2
1529288218612866,-6,-4,-1,-1,2,4,-2,-8
1529288218621674,1,2,-3,-7,-6,3,2,-1
1529288218621674,2,7,3,2,-3,-1,0,9
1529288218635638,-5,-4,-9,-6,-5,-2,-4,-3
1529288218635638,-1,-1,-3,-7,-7,-7,1,-2
1529288218642841,-10,-5,0,4,4,-1,-1,-5
1529288218642841,7,7,8,8,8,4,5,-2
1529288218659444,-7,-7,-4,-3,-5,-4,-6,-6
1529288218659444,3,-4,1,0,-2,-4,-1,1
1529288218660443,-1,-4,1,4,0,2,-2,-1
1529288218660443,-1,-2,-12,-7,-10,-7,-5,-2
1529288218672598,-1,1,-5,-10,-2,1,-3,4
1529288218672598,-3,1,0,-3,-4,0,-5,4
1529288218681795,-3,-5,0,2,2,-3,2,4
1529288218681795,1,0,1,5,2,-1,1,-3
1529288218696793,-5,-8,0,3,1,0,0,-9
1529288218696793,-1,1,-2,-2,-3,-3,4,1
1529288218702772,-3,0,-2,-4,-1,-3,-1,-3
1529288218702772,4,5,1,-1,0,6,-2,1
1529288218719695,3,3,-1,3,0,2,-3,2
1529288218719695,-1,-6,-2,-12,-9,-4,-4,-3
1529288218720691,2,-3,-1,-5,-2,3,2,3
1529288218720691,-11,-13,-3,1,1,-2,1,-3
1529288218732834,1,2,-3,2,6,4,1,0
1529288218732834,-2,2,-1,-1,-3,-4,-5,0
1529288218741773,-2,5,-1,5,5,-1,0,1
1529288218741773,-1,-3,-7,1,-1,-3,1,-4
1529288218756757,5,-1,2,11,1,-3,1,1
1529288218756757,-2,-5,1,7,7,5,5,1
1529288218762798,2,6,3,-10,-4,2,0,-3
1529288218762798,-2,0,1,1,3,6,6,8
1529288218780169,-1,1,-4,-9,-10,-7,-4,-2
1529288218780169,-2,-8,-6,-1,-3,-6,-9,-2
1529288218780800,7,12,10,3,-1,1,-3,0
1529288218780800,-2,2,-2,0,-4,2,-3,-6
1529288218793181,-6,1,3,-5,-1,0,3,4
1529288218793181,-4,-4,1,0,3,-4,-1,0
1529288218801744,-3,-10,-7,0,2,-3,-2,3
1529288218801744,0,-1,-2,-5,0,-7,2,-2
1529288218816814,0,-4,0,-5,-2,4,2,-1
1529288218816814,3,2,6,5,-1,6,5,-6
1529288218822687,3,0,0,2,0,3,3,0
1529288218822687,2,-1,-4,-2,-2,0,-5,-1
1529288218846693,-4,0,-5,-1,1,-4,-7,-2
1529288218846693,3,6,-3,5,2,3,0,-1
1529288218848619,-2,0,3,2,-4,0,-1,-3
1529288218848619,-1,0,6,-2,-1,-4,0,1
1529288218853626,2,-1,5,-1,1,-4,0,-1
1529288218853626,1,4,2,-7,1,0,0,0
1529288218861586,-2,-6,-4,-3,1,-1,-2,-3
1529288218861586,-1,0,0,-1,-4,0,-1,1
1529288218876543,-4,-1,-2,0,-4,-1,2,5
1529288218876543,1,1,-7,1,-1,-3,1,1
1529288218882527,-5,1,-7,3,-5,-5,1,-3
1529288218882527,-1,-2,0,0,4,1,-2,0
1529288218899483,0,-2,-2,-8,3,4,-1,-6
1529288218899483,2,0,0,-5,-6,1,0,3
1529288218900501,0,3,3,1,4,2,3,2
1529288218900501,-1,-3,2,-3,0,4,2,-2
1529288218912627,-3,-2,3,4,1,5,1,0
1529288218912627,-5,-13,-5,0,-4,1,1,1
1529288218921424,2,5,1,0,-2,-7,-3,4
1529288218921424,6,7,6,5,-5,-2,0,3
1529288218936384,3,1,-2,4,-1,-1,-2,3
1529288218936384,1,0,-2,1,-1,0,-1,1
1529288218943478,-1,-4,-9,-3,-2,0,-3,-5
1529288218943478,-5,-2,-3,-4,1,-2,-3,-9
1529288218959326,3,0,2,-1,2,0,1,-3
1529288218959326,0,-3,4,-2,3,2,-3,-3
1529288218961318,-3,-7,2,-4,0,3,-2,1
1529288218961318,1,0,-5,-6,-4,-3,1,1
1529288218973731,1,0,-2,0,-4,-4,2,-3
1529288218973731,2,0,0,2,5,-4,-5,-5
1529288218981879,2,0,1,2,1,0,7,2
1529288218981879,-5,-1,-2,-1,-4,-1,-2,4
1529288218996762,-3,1,0,-3,-4,2,-1,3
1529288218996762,0,5,4,1,-2,4,-3,-1
1529288219002815,0,-1,0,-4,-4,0,-2,0
1529288219002815,1,3,0,0,-1,1,2,-1
1529288219019753,1,-2,-6,1,0,1,1,-4
1529288219019753,-3,-1,-2,1,4,-1,1,-4
1529288219020709,-5,-7,-6,-1,8,3,1,2
1529288219020709,1,-7,-2,2,5,1,-4,-1
1529288219033576,1,-1,2,-4,-1,-4,-3,2
1529288219033576,3,1,2,-3,-5,-2,-3,1
1529288219042606,1,2,-2,1,-6,0,0,4
1529288219042606,1,-6,-2,-4,2,-1,5,3
1529288219056489,-1,0,0,3,1,-5,-6,-2
1529288219056489,1,7,3,3,-1,0,5,2
1529288219062510,3,-1,-2,0,2,-4,-5,-3
1529288219062510,-1,1,-3,1,-1,0,-1,-5
1529288219079429,0,-2,-4,-2,-5,1,4,2
1529288219079429,-5,-3,-3,-6,-4,-6,2,3
1529288219081602,-1,-1,-3,-5,-4,2,-6,-4
1529288219081602,-2,2,2,-1,3,-4,-12,-6
1529288219093657,-4,5,4,3,0,0,8,-3
1529288219093657,-3,-1,5,3,1,1,3,0
1529288219102366,-5,-9,1,-1,-1,-1,-1,-5
1529288219102366,8,-5,2,-3,-4,4,2,-3
1529288219124696,1,-2,-3,-5,3,-3,-8,-7
1529288219124696,1,4,-1,-3,1,1,2,4
1529288219125815,1,6,-2,0,-2,2,-7,1
1529288219125815,-6,1,-5,-1,-3,-3,-5,1
1529288219138659,-6,1,-8,-2,1,-2,1,0
1529288219138659,-5,-5,1,0,1,0,3,-1
1529288219145643,-4,-1,5,5,-1,-1,-2,-1
1529288219145643,-7,-1,2,3,-1,-1,-6,3
1529288219152624,-3,-2,5,4,-3,3,-1,2
1529288219152624,0,1,-2,1,-2,-1,-3,-2
1529288219161888,4,-1,-3,-4,0,-1,3,3
1529288219161888,4,1,-4,-2,-1,1,10,-1
1529288219176597,5,0,0,2,-1,-3,2,0
1529288219176597,10,5,-4,-1,1,-5,-2,-1
1529288219182580,5,2,-1,-2,-1,-1,-3,3
1529288219182580,0,3,2,-1,-1,1,-4,-4
1529288219198941,-5,-3,-1,-1,-1,1,-3,-10
1529288219198941,-8,-4,0,1,-4,-4,0,-10
1529288219205519,-9,0,1,1,1,0,2,-7
1529288219205519,-3,-5,-3,-4,-1,-5,3,6
1529288219213495,-1,-4,-2,-4,0,1,0,10
1529288219213495,5,-3,-4,-4,-6,0,-1,8
1529288219222587,6,-1,2,0,-6,-2,1,-4
1529288219222587,3,1,3,0,-5,-1,0,-8
1529288219236471,0,-3,4,-2,-3,0,-3,-7
1529288219236471,-4,-3,-1,-2,0,-4,-4,-1
1529288219242658,-7,-2,-3,0,0,-8,2,3
1529288219242658,-7,1,-5,2,2,-3,2,-3
1529288219258620,4,2,-6,1,3,-5,0,-4
1529288219258620,1,3,-2,-2,4,3,1,-8
1529288219265781,2,-2,3,0,5,4,3,-9
1529288219265781,2,-4,0,1,1,1,0,-4
1529288219273579,1,-2,1,0,0,-1,2,7
1529288219273579,-2,5,3,2,0,1,1,2
1529288219281568,-7,6,5,2,-3,1,-4,1
1529288219281568,-7,0,4,2,-2,0,-2,5
1529288219295926,-2,-2,1,-1,-4,1,0,5
1529288219295926,0,-6,-2,-3,1,0,3,7
1529288219302913,2,-5,-7,0,-1,-1,2,6
1529288219302913,5,-1,-3,-3,-4,-2,-2,4
1529288219318870,3,8,-3,0,0,4,-2,-1
1529288219318870,8,-5,-5,-1,-2,1,-1,5
1529288219325665,5,-3,-6,-6,-2,-3,-2,-2
1529288219325665,3,-4,-1,-1,-3,-3,-7,-9
1529288219341659,3,-1,2,-1,-2,1,-4,-13
1529288219341659,-5,3,5,2,1,5,0,-11
1529288219343650,-14,-2,2,1,6,3,3,8
1529288219343650,-16,-3,-1,0,5,-1,2,16
1529288219356675,-14,-2,2,1,6,-3,2,12
1529288219356675,-6,-2,-2,2,-3,1,-2,3
1529288219362715,7,-3,-3,0,-1,-1,1,0
1529288219362715,11,2,-3,1,-1,0,1,-7
1529288219378735,5,4,-3,-2,-2,-1,2,-10
1529288219378735,-1,5,-1,-2,0,0,2,-13
1529288219386009,-2,6,1,0,-3,-2,-1,-16
1529288219386009,-4,-1,3,0,-3,3,-3,-14
1529288219401802,0,-2,4,0,-4,3,-3,-5
1529288219401802,1,-5,0,0,0,0,-2,0
1529288219403517,3,-1,-4,-5,3,0,0,6
1529288219403517,6,-1,-3,-2,4,-6,1,7
1529288219416642,5,-1,-1,1,3,-3,-1,9
1529288219416642,2,1,-3,-3,-1,-2,2,6
1529288219422646,2,0,-2,-1,-1,-3,5,9
1529288219422646,-5,-4,1,-1,0,3,4,2
1529288219438604,-3,-1,1,-1,-4,0,-2,3
1529288219438604,-1,0,-4,0,-4,-3,-6,-7
1529288219445775,-2,2,0,2,-3,-2,-7,-4
1529288219445775,0,-2,-2,-1,-1,-1,-4,-5
1529288219462550,3,-4,-3,0,0,-1,0,-9
1529288219462550,-1,-6,0,-1,-2,-3,2,-3
1529288219463550,3,-1,1,-3,-1,-3,2,-6
1529288219463550,-1,2,1,-4,-2,-1,3,1
1529288219476694,-7,-1,4,0,-2,3,-1,6
1529288219476694,-2,0,0,1,0,4,-2,4
1529288219483493,-3,-3,1,2,-1,5,-7,0
1529288219483493,1,5,-1,-1,1,1,-5,9
1529288219498857,-3,2,-2,-6,3,-2,-4,7
1529288219498857,-2,-2,-2,0,1,-2,-3,10
1529288219505841,-2,-6,-3,2,-3,-2,4,17
1529288219505841,-3,-6,-1,2,-2,1,0,4
1529288219521793,-1,2,0,-2,-3,1,-4,-17
1529288219521793,2,3,-2,1,-1,1,-3,-23
1529288219523623,-1,4,-2,0,3,3,0,-22
1529288219523623,-1,-1,-1,3,1,0,2,-11
1529288219535949,-1,-5,-8,-2,-2,-4,6,0
1529288219535949,0,-1,0,-4,0,1,-1,3
1529288219545055,4,0,3,-6,1,2,-5,0
1529288219545055,2,3,0,-3,-4,1,-2,1
1529288219559072,5,2,3,3,-4,-1,2,2
1529288219559072,0,-1,0,1,-4,-3,5,1
1529288219565891,-3,-6,-2,0,-5,0,1,2
1529288219565891,-2,-3,-1,-5,-3,-5,0,4
1529288219582022,0,-2,0,-3,-2,-4,-1,1
1529288219582022,0,0,1,1,-4,0,0,2
1529288219583844,-1,-1,0,1,-2,-6,-1,4
1529288219583844,-1,3,-1,-2,1,-4,-2,0
1529288219596153,-2,2,-1,-2,1,-6,0,0
1529288219596153,0,4,1,-8,2,-2,1,-1
1529288219604784,-3,1,1,-2,1,3,5,-3
1529288219604784,0,-1,-5,0,0,2,2,-3
1529288219618909,-1,-1,-3,3,0,3,-3,0
1529288219618909,-6,-2,-1,-1,2,2,-7,0
1529288219625890,-2,-3,-3,-1,-1,1,-7,-1
1529288219625890,0,-2,-2,1,-1,5,-2,-1
1529288219641688,4,2,0,2,0,1,0,-1
1529288219641688,2,-3,4,4,3,-4,0,0
1529288219643680,0,-2,3,2,2,-5,4,-1
1529288219643680,-1,-1,0,-4,-1,-4,3,2
1529288219655651,-3,-3,1,1,-6,-5,-4,2
1529288219655651,-1,-1,-1,-3,-4,-1,-4,3
1529288219664624,3,0,1,-2,-5,1,1,-5
1529288219664624,-1,-3,5,0,-3,1,3,0
1529288219678796,-2,-4,-4,-1,3,0,-1,2
1529288219678796,-2,0,-9,-2,-3,1,-3,4
1529288219685739,-1,1,-6,-2,1,3,-5,-2
1529288219685739,0,-2,-1,4,3,2,-5,-1
1529288219701918,0,-1,0,-1,1,-2,3,-1
1529288219701918,1,-2,-1,-1,3,-8,7,-1
1529288219702915,6,5,-4,-6,-2,-3,5,1
1529288219702915,4,5,2,0,-1,0,-3,2
1529288219715878,-3,0,2,0,2,1,-1,0
1529288219715878,-2,-2,1,2,-1,1,1,1
1529288219725068,-3,-6,-1,2,-1,3,-5,-2
1529288219725068,-3,0,1,-1,-4,3,-6,-4
1529288219739222,-1,1,-1,0,-2,2,-1,-4
1529288219739222,-3,1,-3,-5,-1,-2,-1,-3
1529288219746124,0,3,1,1,-1,-3,4,1
1529288219746124,3,-7,0,0,0,-2,2,1
1529288219762124,4,-6,1,-2,1,0,-2,0
1529288219762124,0,2,3,1,3,-1,1,-4
1529288219763159,-4,2,2,0,1,-5,-7,-2
1529288219763159,-1,-1,-2,-2,4,-2,0,-5
1529288219776027,0,-1,1,-5,0,3,3,-2
1529288219776027,1,-1,-1,-2,-6,2,0,-3
1529288219784979,-1,1,-4,3,-5,0,7,-1
1529288219784979,-3,1,-3,3,-8,-3,2,0
1529288219798132,-3,1,-1,2,-3,-4,-3,1
1529288219798132,0,4,5,0,4,-2,-4,2
1529288219805498,-3,-1,2,-1,5,-1,-4,-1
1529288219805498,0,-1,-3,-5,2,3,-3,-3
1529288219822023,-2,1,-5,-4,-1,-3,3,1
1529288219822023,-3,0,-1,-2,-2,1,1,2
1529288219823855,-1,-2,1,-2,-1,0,-1,1
1529288219823855,-3,-2,-2,0,2,1,0,-1
1529288219835823,2,-4,0,0,-1,0,-2,-1
1529288219835823,6,-3,-2,2,-1,1,-4,0
1529288219844967,1,-4,-2,1,-3,-5,-4,-1
1529288219844967,0,1,-4,-1,3,-1,0,-4
1529288219858933,4,2,-3,0,2,1,2,-3
1529288219858933,-2,-3,-1,3,2,-2,5,2
1529288219865916,0,0,0,2,-4,6,4,3
1529288219865916,-3,4,1,-3,-3,-1,-3,-4
1529288219882102,-2,5,-2,-1,-5,0,-4,-3
1529288219882102,-4,2,-2,-4,-4,-2,-3,-5
1529288219883867,0,-1,-2,-2,-2,1,-1,0
1529288219883867,2,-5,-1,0,-2,-1,1,-1
1529288219896020,0,-5,3,1,1,1,1,-1
1529288219896020,-1,-5,-3,4,1,-5,-3,5
1529288219904811,-4,1,0,-1,2,-6,-2,4
1529288219904811,-1,3,1,-4,2,-1,2,0
1529288219918997,-1,-1,0,-4,0,-1,0,1
1529288219918997,1,2,1,-1,0,0,1,1
1529288219926177,2,0,0,2,-2,-3,1,-1
1529288219926177,2,-2,-2,1,-4,-3,-3,3
1529288219942271,-3,-3,-5,-1,0,1,-1,2
1529288219942271,-3,-3,-4,0,-1,3,2,-5
1529288219944042,-1,-3,-2,-5,1,1,-1,-6
1529288219944042,2,-2,4,-3,-1,0,2,-5
1529288219956271,-1,-3,5,0,-1,0,-2,-4
1529288219956271,3,-2,2,0,-2,1,-5,0
1529288219964871,-1,0,1,-2,0,0,-3,2
1529288219964871,-5,-2,-1,-2,-2,-1,-2,4
1529288219979118,0,2,-2,0,-1,-3,3,6
1529288219979118,3,0,-1,-1,-1,-5,1,4
1529288219985819,0,1,-2,1,-2,-3,-1,1
1529288219985819,-1,0,-2,0,1,-5,0,2
1529288220001774,-2,-2,-4,-1,1,2,-3,-5
1529288220001774,-4,-4,0,-2,-1,4,-7,-6
1529288220003770,1,-4,0,1,-4,4,-3,-1
1529288220003770,-1,-2,-3,1,-5,4,0,-2
1529288220015736,0,1,-3,1,0,1,-2,0
1529288220015736,-1,3,-2,2,0,0,-1,1
1529288220024713,-2,2,1,-3,3,-4,1,-2
1529288220024713,-1,-1,0,-2,-2,-1,4,-8
1529288220039067,2,-2,1,-3,-4,-5,10,-2
1529288220039067,1,-4,-1,-2,-1,-1,8,2
1529288220045982,-2,-3,-5,-1,1,-1,4,-1
1529288220045982,-5,-2,-2,-1,-1,-2,1,1
1529288220061235,-8,-2,-3,-3,2,-2,-6,-2
1529288220061235,-7,0,1,0,3,2,-5,-7
1529288220069225,-3,1,0,2,2,-2,-3,-7
1529288220069225,3,1,-2,3,0,-1,-1,-7
1529288220075029,6,3,1,2,-1,0,-3,-6
1529288220075029,2,2,-1,0,-3,0,-5,-2
1529288220084009,-1,-1,3,-4,0,-2,-4,2
1529288220084009,-2,-3,6,-8,1,0,-5,0
1529288220098965,-1,-6,-1,-7,2,-3,1,-3
1529288220098965,-1,-3,-2,-4,1,-3,1,0
1529288220104949,-5,2,-2,-1,-3,3,-1,0
1529288220104949,-3,3,-2,5,-1,-1,2,2
1529288220120908,-1,-3,-5,5,0,3,2,6
1529288220120908,4,-3,-4,2,0,1,2,0
1529288220128071,4,-3,-1,1,-1,-1,-1,4
1529288220128071,1,0,3,3,-2,-2,3,6
1529288220135866,-1,3,6,2,-1,-7,-1,4
1529288220135866,-1,4,-1,-2,-2,-10,-5,1
1529288220145077,-1,2,0,-4,-3,-3,-5,0
1529288220145077,3,2,-1,-3,1,4,-2,-1
1529288220158972,-1,-3,0,-2,-1,5,-2,1
1529288220158972,2,0,-2,1,-1,5,-1,-1
1529288220165980,3,-5,-3,-3,2,-1,-1,-5
1529288220165980,1,-5,-3,-3,-3,-5,-3,-1
1529288220180747,-2,-1,-4,-2,-4,0,0,-3
1529288220180747,-3,0,-1,-3,-1,4,0,-1
1529288220187727,-2,4,0,3,-3,3,1,0
1529288220187727,-3,4,1,2,2,-1,0,-1
1529288220196077,-3,0,2,-3,-1,-4,0,-2
1529288220196077,-3,-5,-1,0,-1,-3,2,1
1529288220204682,1,-5,-5,-1,-4,-2,-1,-5
1529288220204682,1,-2,-4,-3,2,-2,0,-1
1529288220218710,4,4,-1,-2,0,3,-2,0
1529288220218710,3,2,0,-1,3,3,1,0
1529288220225691,1,0,3,2,0,1,2,2
1529288220225691,-3,-1,1,1,-4,-1,-2,-3
1529288220241786,-5,-4,2,1,-2,-1,1,-3
1529288220241786,0,-4,3,-2,-5,-2,2,0
1529288220247630,1,-1,2,-3,-6,-2,-1,1
1529288220247630,-2,1,-5,-1,-2,-1,-10,3
1529288220264586,2,5,-6,-1,1,3,-1,-5
1529288220264586,-1,-3,-1,1,2,3,-1,2
1529288220265765,-5,-6,-1,0,2,0,0,0
1529288220265765,-3,-3,-2,-4,-1,-1,2,-2
1529288220278573,-3,-3,-3,-1,-2,-4,-5,2
1529288220278573,2,-1,0,-3,0,-3,-6,-4
1529288220285567,0,1,-4,1,3,2,0,1
1529288220285567,1,2,-1,2,-3,0,2,2
1529288220301665,1,2,1,5,-2,-4,3,2
1529288220301665,1,3,4,2,-1,-6,8,-2
1529288220307519,1,1,-2,-1,-4,-4,0,-3
1529288220307519,0,-2,-5,-4,-2,3,-5,-4
1529288220324650,-5,0,-2,-1,-3,4,-6,-2
1529288220324650,-1,-2,0,0,-3,2,-4,3
1529288220325609,-3,1,1,1,4,0,4,1
1529288220325609,-3,-1,-1,1,6,-1,4,-2
1529288220338732,0,1,2,-1,1,-3,1,-1
1529288220338732,-2,-1,3,-4,-3,-2,2,-2
1529288220345546,0,-1,2,-2,-1,3,1,0
1529288220345546,2,-3,2,1,-1,-1,2,1
1529288220361507,0,-6,-2,-2,1,3,-2,3
1529288220361507,1,0,-5,0,-2,-2,-5,3
1529288220368570,2,-1,-6,1,1,-3,-2,-3
1529288220368570,-1,0,0,-1,-1,-2,-5,0
