timestamp,emg1,emg2,emg3,emg4,emg5,emg6,emg7,emg8
1528445489039070,-1,1,9,-2,-19,-29,-7,-2
1528445489039070,-3,-3,-11,2,15,45,11,0
1528445489051038,5,6,12,24,22,22,16,8
1528445489051038,3,1,-4,-1,4,16,10,1
1528445489061012,-5,-6,-9,-6,-10,-21,-12,-3
1528445489061012,-1,0,6,5,-1,-11,-1,1
1528445489068991,-2,-3,0,-15,-27,-41,-23,-8
1528445489068991,-2,-2,-3,-7,-7,-19,-7,-1
1528445489083950,2,2,-2,10,28,58,22,3
1528445489083950,1,-1,-4,-22,-37,-26,-14,-2
1528445489090932,-1,-2,-4,27,32,24,11,5
1528445489090932,5,6,15,30,80,70,36,7
1528445489106889,-2,-1,-7,-10,-12,-48,-40,-6
1528445489106889,-5,-3,-8,-15,-5,-13,5,-3
1528445489113870,-1,0,2,-10,-50,-16,5,8
1528445489113870,0,0,4,4,-12,-44,-12,-10
1528445489128831,-4,-2,1,3,-12,-52,-33,-8
1528445489128831,-2,-4,-8,-42,-11,9,-2,3
1528445489143791,1,-1,-4,0,-10,-29,-13,-4
1528445489143791,-1,-3,0,1,-13,-10,-9,-4
1528445489154767,2,1,-4,-19,-23,-17,12,5
1528445489154767,-4,-1,14,50,20,-9,-14,7
1528445489166732,5,5,-9,-16,17,50,52,-21
1528445489166732,-4,2,28,79,21,28,8,6
1528445489173710,0,-1,-2,-53,-25,-40,-29,-2
1528445489173710,-3,-5,-12,-5,-27,-14,1,6
1528445489188671,1,3,8,26,7,30,-13,-11
1528445489188671,-3,-3,-5,-22,-40,-63,-35,8
1528445489203630,-4,-3,4,-1,-24,-35,-21,-3
1528445489203630,5,3,-8,-24,4,31,10,1
1528445489211609,-5,-6,-4,19,-23,-47,-16,7
1528445489211609,-3,4,15,12,38,44,34,-21
1528445489226569,-4,0,1,26,8,-4,-59,-24
1528445489226569,2,-6,-17,-90,-70,-24,31,16
1528445489233551,4,2,-15,-23,19,27,28,9
1528445489233551,5,6,18,71,73,58,32,8
1528445489263470,3,3,-6,-50,-21,48,15,4
1528445489263470,9,12,4,10,9,14,17,6
1528445489271449,-6,-3,14,40,-27,-42,-31,-9
1528445489271449,0,-1,10,34,57,14,6,-2
1528445489278430,3,0,-5,-11,17,10,14,19
1528445489278430,-2,-3,-7,-52,-42,-24,-15,-8
1528445489286416,2,2,-5,-20,-11,3,3,3
1528445489286416,-9,-3,-6,2,-6,-53,-34,-10
1528445489293392,1,0,-11,-24,2,31,18,0
1528445489293392,8,4,20,71,64,100,41,5
1528445489308350,-5,-7,9,33,21,3,19,16
1528445489308350,-7,-9,-12,-63,-69,-36,-14,-2
1528445489316329,-12,-10,-8,19,-1,-75,-55,-21
1528445489316329,-4,-2,-15,-22,24,33,-4,5
1528445489331305,12,8,-4,-12,-1,15,39,21
1528445489331305,9,10,27,58,32,47,24,15
1528445489338271,-4,-12,-19,-24,-60,-44,-20,-2
1528445489338271,-3,-6,-6,-23,-13,-31,-15,-14
1528445489346249,-4,1,-1,16,-16,-6,-12,-12
1528445489346249,6,4,-12,-11,25,26,19,12
1528445489353232,-2,7,24,67,16,8,-14,-17
1528445489353232,-3,-5,1,-36,-35,-61,-10,-2
1528445489369188,-1,-5,-14,-16,1,3,-30,-21
1528445489369188,6,4,-6,-11,23,70,56,26
1528445489376170,-1,5,16,48,36,30,13,-3
1528445489376170,-5,-9,8,23,11,-8,10,11
1528445489391130,2,7,-1,-36,-49,-59,-26,-11
1528445489391130,-8,-6,21,29,-32,-22,-48,-45
1528445489399109,7,7,-6,25,75,52,40,25
1528445489399109,-5,2,-3,4,13,-7,-33,-19
1528445489406089,2,-14,-11,-16,13,28,46,34
1528445489406089,1,-2,-3,-26,-13,-21,-20,-31
1528445489414068,-3,2,19,-6,-35,-21,8,10
1528445489414068,1,-9,-18,13,-14,-17,-10,-9
1528445489429028,-10,13,4,-8,17,36,10,0
1528445489429028,21,5,-2,26,6,4,10,17
1528445489436010,7,5,-13,-61,-27,-28,-6,-5
1528445489436010,-12,-5,2,-11,-8,10,10,-5
1528445489450970,-2,0,0,-10,-10,5,-15,-11
1528445489450970,-6,3,-1,7,3,-2,6,5
1528445489458948,2,-2,-9,-13,-21,-39,-25,-7
1528445489458948,4,11,-5,-14,-17,-2,-5,1
1528445489465930,-4,-10,9,8,12,35,15,1
1528445489465930,-2,2,-25,0,39,10,15,10
1528445489473908,1,-12,33,45,20,13,0,-5
1528445489473908,4,4,-41,-36,-17,-20,-4,7
1528445489495849,8,3,16,-1,-7,-13,-1,-9
1528445489495849,-7,-7,-35,-62,-62,-40,-18,22
1528445489503829,-7,-4,28,50,52,40,14,-7
1528445489503829,-3,-7,3,17,-11,11,2,-2
1528445489518790,2,4,4,14,20,0,-10,-6
1528445489518790,1,-5,-5,-20,-5,-6,5,3
1528445489525803,1,1,-6,4,-28,-12,0,2
1528445489525803,2,2,19,20,16,10,11,1
1528445489533748,0,1,-7,3,23,2,-5,2
1528445489533748,-3,-2,4,-6,-10,-11,-8,-8
1528445489541728,-1,-2,-13,-48,-28,-8,-5,0
1528445489541728,0,5,16,13,-40,-38,-12,-11
1528445489548708,1,-2,5,36,37,7,-19,1
1528445489548708,-9,-3,16,24,32,26,2,-17
1528445489556689,4,-1,-8,8,17,40,49,19
1528445489556689,13,-1,-16,-32,5,2,3,17
1528445489571647,-14,0,-2,-8,-63,-66,-20,-5
1528445489571647,-7,4,10,10,8,-1,-22,-2
1528445489586607,-10,4,6,-3,19,24,14,6
1528445489586607,-4,-4,-11,-13,-26,-41,-28,-40
1528445489601606,-2,-5,-10,-15,-28,-26,-9,-9
1528445489601606,16,-7,0,2,11,35,11,54
1528445489608800,-1,-3,-16,-19,-12,-18,0,9
1528445489608800,-9,7,6,-31,3,19,21,5
1528445489623509,-15,4,-4,-12,-19,-49,-27,-12
1528445489623509,-4,-3,10,8,-34,-77,-46,-30
1528445489631488,9,-4,-15,-13,42,72,5,-4
1528445489631488,7,2,5,21,14,37,43,35
1528445489646985,16,-5,-4,-13,-68,-103,-76,-22
1528445489646985,-11,-8,-2,18,63,91,76,8
1528445489661952,4,19,15,23,56,30,39,34
1528445489661952,-13,-12,11,19,7,-4,14,-4
1528445489668696,-5,-1,-6,-9,-16,-52,-24,-8
1528445489668696,-6,-10,0,13,-50,-87,-85,-27
1528445489683711,5,1,-18,-23,-39,-49,-42,-25
1528445489683711,13,11,-6,-6,46,114,109,73
1528445489691987,-16,-2,14,24,27,11,12,-7
1528445489691987,1,-2,2,-5,-18,-20,-13,-2
1528445489706849,3,-2,-6,-15,35,79,43,12
1528445489706849,3,5,22,49,4,-21,7,15
1528445489722032,-17,-5,-6,-27,-40,-94,-70,-25
1528445489722032,-13,-2,-1,-17,-93,-73,-35,-52
1528445489729268,33,-8,-19,16,103,104,103,68
1528445489729268,3,0,-18,-35,-10,-10,-7,5
1528445489743899,-8,0,54,59,7,-18,-12,-4
1528445489743899,0,3,-6,-13,-6,-31,-23,-14
1528445489751877,-28,-4,3,2,-34,-61,-23,-20
1528445489751877,9,5,-16,-28,-21,-8,2,2
1528445489774274,5,13,2,-11,-18,-46,-28,-15
1528445489774274,0,-11,52,80,32,-3,18,5
1528445489789172,0,0,-23,-27,30,65,37,10
1528445489789172,7,15,28,12,12,2,-2,1
1528445489796154,1,-6,-17,-33,-36,-15,-8,-8
1528445489796154,-1,5,-9,-31,-33,-22,-26,-14
1528445489812129,10,-3,-12,10,15,42,22,9
1528445489812129,1,-1,11,14,16,38,4,-1
1528445489819090,2,5,-9,-17,-2,15,-2,-14
1528445489819090,6,6,-12,-19,-10,19,2,21
1528445489826098,-3,-1,-1,5,-9,28,4,-5
1528445489826098,3,1,-21,-22,-11,29,3,-13
1528445489842086,4,4,-21,-23,-2,37,10,1
1528445489842086,-2,-5,-15,-9,0,28,12,8
1528445489849010,8,-10,33,28,6,13,0,-10
1528445489849010,-6,3,-19,-26,-1,15,4,-9
1528445489863971,-5,-5,-11,8,3,15,-13,-9
1528445489863971,2,-3,-14,-9,5,18,18,9
1528445489872020,-2,14,6,1,-14,8,5,3
1528445489872020,20,-10,-34,-25,3,18,9,12
1528445489886345,-18,4,-25,-31,-6,1,5,22
1528445489886345,1,-3,15,10,3,0,2,-1
1528445489901576,8,-1,-28,-31,-14,-3,4,4
1528445489901576,-8,7,20,12,6,-2,-1,3
1528445489909513,11,0,-3,-9,0,-1,-1,-1
1528445489909513,-9,2,26,13,2,-12,-10,-7
1528445489924559,14,2,-22,-8,-4,-10,-3,13
1528445489924559,0,-6,-4,1,3,-4,-5,5
1528445489931171,3,-3,0,10,-3,-9,-8,-8
1528445489931171,-1,-2,9,1,0,-6,-5,8
1528445489954159,-37,-5,-30,-19,-9,-7,6,-4
1528445489954159,-3,-16,32,18,2,-12,-8,-12
1528445489969393,8,8,-13,-2,1,-6,1,6
1528445489969393,9,2,-9,-9,-3,-15,1,7
1528445489976105,5,-2,14,18,3,-10,-3,5
1528445489976105,10,1,-4,1,3,1,26,10
1528445489991311,-16,-2,3,-2,3,-5,5,2
1528445489991311,19,-3,-3,3,-1,-8,-4,16
1528445490006052,15,5,20,26,11,4,1,9
1528445490006052,-1,-4,-23,-21,-2,-7,-24,-19
1528445490022000,13,-1,-5,-6,-5,-1,8,18
1528445490022000,-14,2,14,6,2,-2,6,-1
1528445490029224,11,0,-9,-9,-3,5,8,3
1528445490029224,-13,-2,-5,15,4,-1,-2,-9
1528445490044181,15,5,-5,1,0,0,-5,0
1528445490044181,8,-4,-3,-7,2,3,-8,-1
1528445490051952,0,3,14,-1,-14,-24,-20,-15
1528445490051952,-9,1,-4,8,10,15,10,-4
1528445490066888,-6,-5,-2,-1,4,-6,-17,-7
1528445490066888,2,0,0,7,-5,-9,-8,-2
1528445490080821,-11,0,15,13,7,1,15,-27
1528445490080821,4,-3,-7,-6,1,6,3,7
1528445490089100,-12,-11,-9,-9,-1,10,18,14
1528445490089100,20,12,-4,-16,-12,-12,-6,15
1528445490104139,-32,-1,23,22,6,9,-1,-17
1528445490104139,3,-2,-5,6,4,-10,-12,-12
1528445490111408,7,6,3,-12,-1,6,4,2
1528445490111408,-6,-8,-17,8,33,5,1,2
1528445490126657,-2,-6,4,14,-3,-2,-9,0
1528445490126657,0,4,-1,3,8,7,5,-2
1528445490141607,7,-8,-16,-12,3,2,4,9
1528445490141607,0,-3,-3,-12,-7,8,8,6
1528445490149135,4,0,-14,-3,-5,-5,2,-1
1528445490149135,-3,4,12,-1,-11,-18,-15,-3
1528445490164154,3,-12,-12,0,7,17,4,3
1528445490164154,-2,0,7,2,2,-8,4,-16
1528445490171364,-3,-6,6,16,2,7,3,10
1528445490171364,5,9,17,4,-10,-8,-11,-6
1528445490186679,2,-3,37,57,21,4,1,-15
1528445490186679,-1,2,-27,-36,-23,-12,-4,7
1528445490201627,4,0,4,7,-8,-9,-11,-5
1528445490201627,-4,-4,-16,-12,3,6,4,2
1528445490208610,5,4,3,-10,-1,-1,-2,0
1528445490208610,-6,-20,-5,-3,-4,8,10,-1
1528445490223920,2,-1,34,34,4,-1,-1,6
1528445490223920,4,2,-23,-19,-5,-3,-4,3
1528445490238797,-7,9,15,1,2,1,3,4
1528445490238797,27,-23,-22,-12,-2,3,2,0
1528445490261981,-11,-2,17,18,5,1,3,-2
1528445490261981,7,7,10,5,1,5,7,7
1528445490276913,-29,-7,-8,4,0,-2,-6,-13
1528445490276913,-6,-2,-4,-14,-1,-2,-7,1
1528445490283736,7,5,-9,-8,-7,-8,-7,-9
1528445490283736,-9,1,16,28,13,8,0,-17
1528445490298924,5,-4,-41,-42,-2,0,1,8
1528445490298924,-7,4,20,36,15,7,3,-8
1528445490313753,3,0,20,-12,-10,-6,-3,-3
1528445490313753,-7,4,-3,-10,-12,-3,2,4
1528445490329060,-1,-7,-5,8,3,0,13,4
1528445490329060,-3,5,-8,-16,-5,2,2,5
1528445490344480,3,1,13,12,1,1,2,5
1528445490344480,-4,-1,-13,2,6,2,-5,-35
1528445490351559,0,7,-4,-6,-5,-6,-13,-1
1528445490351559,-5,-1,3,-10,-9,-19,-7,14
1528445490366511,0,2,-12,-1,3,1,3,-1
1528445490366511,1,1,-8,-8,-7,0,-2,-14
1528445490381249,6,-2,-15,-13,-1,-8,-4,-10
1528445490381249,-4,1,22,8,-5,-7,-7,25
1528445490389458,3,-8,-19,0,8,2,3,0
1528445490389458,-4,-1,-3,-9,-1,5,9,6
1528445490404487,2,3,1,-9,-11,-6,-11,-16
1528445490404487,1,-1,3,15,11,13,18,21
1528445490411723,-3,-3,7,-3,-12,-12,-7,2
1528445490411723,-1,-2,-1,-4,-1,-3,-8,-12
1528445490426444,0,1,-12,-15,3,-1,4,0
1528445490426444,1,0,3,4,-3,-2,-1,0
1528445490441620,-2,-1,-1,-1,-7,-7,-7,4
1528445490441620,-2,0,-6,-9,-1,-2,-3,-22
1528445490448658,-2,-3,0,0,-2,1,-7,3
1528445490448658,1,2,5,0,-4,-1,-2,0
1528445490463617,1,2,-1,0,8,1,8,15
1528445490463617,0,-2,-11,-14,-2,0,-3,-8
1528445490471598,0,-1,8,10,-2,-3,-6,-6
1528445490471598,-4,-3,17,27,9,3,5,5
1528445490486557,0,-1,-16,-11,-17,-5,1,1
1528445490486557,2,3,2,6,14,11,-3,1
1528445490501516,-2,-1,5,6,-2,-3,-11,-5
1528445490501516,0,0,5,7,1,0,18,5
1528445490508497,0,-3,-9,-7,-4,-1,-1,0
1528445490508497,0,6,21,6,0,0,0,-28
1528445490523457,-3,-3,11,9,4,-1,5,24
1528445490523457,-2,-6,-30,-24,-4,-1,-6,-1
1528445490538417,-2,-1,-2,-1,-1,0,-8,-6
1528445490538417,1,3,-8,-1,1,0,8,5
1528445490553377,2,3,3,10,14,3,3,0
1528445490553377,-7,0,1,-5,-11,-7,-3,-8
1528445490568337,1,3,-19,2,8,0,-1,10
1528445490568337,17,13,75,23,5,5,1,13
1528445490576316,-2,-10,-36,-15,-8,0,-1,1
1528445490576316,-6,-5,7,-3,4,-1,-3,-1
1528445490591276,15,12,34,19,12,5,-3,5
1528445490591276,22,17,-20,-11,-9,-5,-1,16
1528445490606236,-10,-12,4,-1,-3,-1,0,-8
1528445490606236,-7,-4,-14,-8,-3,-3,-1,-6
1528445490621196,5,2,-1,-1,-5,-7,-8,9
1528445490621196,1,-9,8,5,5,2,5,4
1528445490629175,-18,9,5,1,0,-1,4,3
1528445490629175,-9,-30,-1,-4,-2,-1,-7,-14
1528445490644178,21,27,0,3,0,2,1,4
1528445490644178,6,6,-8,1,-3,-4,-3,1
1528445490651171,-11,-17,-7,-10,-5,0,3,-2
1528445490651171,-25,-6,10,-5,1,5,8,6
1528445490666076,11,11,31,13,11,8,5,2
1528445490666076,-8,-7,-24,-14,-19,-11,-7,0
1528445490681037,-27,-26,-10,5,10,8,7,-9
1528445490681037,-20,-10,-5,1,12,2,1,-11
1528445490689015,3,5,9,15,30,17,2,-5
1528445490689015,28,16,-14,-3,0,0,-2,11
1528445490703979,-4,2,35,1,-5,-2,-3,-9
1528445490703979,-3,2,-15,-32,-46,-23,-8,8
1528445490710992,7,-1,2,33,56,33,12,4
1528445490710992,-9,-19,-10,-1,4,-2,-4,1
1528445490725971,-11,-4,-4,-6,-12,-4,4,-9
1528445490725971,39,31,16,10,10,2,-1,23
1528445490740932,4,16,-6,-1,-5,-4,-3,-2
1528445490740932,-3,-26,-6,-3,-11,-3,-2,-5
1528445490748910,-4,-6,-24,-15,-17,-7,5,-1
1528445490748910,-14,-4,6,4,2,3,2,-8
1528445490763841,-3,5,9,-5,-6,-6,-5,-6
1528445490763841,3,-2,2,9,12,11,3,4
1528445490770797,1,-11,6,-7,-17,-12,-5,3
1528445490770797,-6,-6,-1,-6,-7,-1,1,-3
1528445490786329,4,-2,-17,-6,-3,-2,-2,1
1528445490786329,-8,-7,18,1,-5,-1,-3,-2
1528445490801915,-13,-15,-6,-6,-3,-6,-7,-7
1528445490801915,7,20,-10,-5,-3,0,4,2
1528445490808869,-1,-4,-3,-5,-26,-15,-10,0
1528445490808869,10,-2,-7,11,24,17,14,10
1528445490823829,-4,-20,-18,3,10,6,-4,-4
1528445490823829,-10,-23,17,-1,-2,-5,-3,-1
1528445490831592,3,37,8,-10,-18,-11,-7,-6
1528445490831592,0,1,-4,1,-1,-3,-1,2
1528445490846856,1,-7,-7,0,-4,-5,-4,1
1528445490846856,3,4,-9,0,-6,-1,-3,-2
1528445490861956,0,0,16,0,3,3,4,2
1528445490861956,-3,-1,-5,5,7,6,5,1
1528445490869025,-2,-3,1,-4,1,1,1,-4
1528445490869025,-8,13,2,-6,-6,-10,-7,-6
1528445490883989,4,0,-5,4,-3,3,2,5
1528445490883989,1,-3,-6,1,3,-3,-5,-2
1528445490891466,6,7,-4,1,1,1,1,3
1528445490891466,-6,-8,-3,-9,-11,-7,-6,-7
1528445490906822,8,15,6,1,2,0,2,2
1528445490906822,-6,-10,-9,0,8,4,3,-2
1528445490922123,1,7,2,-1,-2,0,-1,-3
1528445490922123,-1,-15,-2,2,3,1,-1,0
1528445490929113,-1,1,5,-5,-10,-7,-4,-3
1528445490929113,2,8,7,0,-3,0,-1,0
1528445490944083,0,-3,0,2,4,1,1,2
1528445490944083,5,4,-1,-1,-2,2,2,3
1528445490951962,-2,-9,-1,-1,-2,-1,-1,0
1528445490951962,0,-1,4,1,3,0,0,-2
1528445490966970,-1,-4,2,0,2,2,-1,-1
1528445490966970,-2,-3,1,-2,-4,-2,-3,0
1528445490981964,-2,-9,1,0,7,2,4,1
1528445490981964,0,9,8,3,5,3,1,0
1528445490989176,2,-6,-21,-8,-5,-4,-3,-1
1528445490989176,-4,-7,7,0,-6,-4,-1,-1
1528445491004198,-2,-1,-8,-3,-5,-4,-2,0
1528445491004198,-1,-2,11,2,0,0,-3,0
1528445491011976,0,-1,3,2,-5,-2,-1,-1
1528445491011976,2,4,2,-2,3,-2,-4,-1
1528445491026195,-6,-18,-5,-2,5,3,-2,-3
