timestamp,emg1,emg2,emg3,emg4,emg5,emg6,emg7,emg8
1528450394344780,0,-3,-4,12,22,4,2,2
1528450394344780,0,-15,-20,-3,-9,-8,-1,-5
1528450394385669,3,5,-13,-25,-16,-9,-4,1
1528450394385669,-2,-1,-6,-21,-4,2,4,-5
1528450394386668,-2,5,39,14,2,-7,-5,-2
1528450394386668,1,3,-41,-20,-20,-1,-1,-1
1528450394388662,2,3,0,16,32,10,-1,-6
1528450394388662,-1,-8,-20,28,13,13,9,17
1528450394389659,-3,-15,-22,-30,-12,-2,-5,0
1528450394389659,-4,17,14,59,0,-13,-15,-12
1528450394396641,-2,11,46,-45,-26,-10,-5,-1
1528450394396641,2,-9,15,-9,-20,-22,-7,-4
1528450394403624,0,8,-11,12,6,0,-6,-3
1528450394403624,2,-14,10,-27,-1,5,4,7
1528450394412599,1,-8,-13,40,23,10,10,4
1528450394412599,-4,3,-18,-20,10,19,-6,-6
1528450394425564,1,-4,-3,-10,-31,-9,3,0
1528450394425564,-3,-16,-31,-23,28,3,-8,-4
1528450394434539,-6,-7,-8,0,-6,1,-1,-5
1528450394434539,3,7,13,10,-2,-8,0,0
1528450394456481,-2,2,-3,7,7,2,-1,0
1528450394456481,-3,-6,1,-20,-31,-13,-2,-5
1528450394458476,-4,4,6,21,-5,-8,-7,-4
1528450394458476,-1,-1,-18,-16,7,-5,5,3
1528450394471462,-1,6,-3,-8,-15,1,-2,-2
1528450394471462,2,0,-3,-11,-13,-8,4,5
1528450394479420,0,-9,2,1,-11,-7,3,3
1528450394479420,3,7,-1,3,29,16,-6,-5
1528450394494380,0,-5,-3,11,15,7,4,5
1528450394494380,-2,5,39,61,31,14,9,1
1528450394496374,3,5,-27,-47,-42,5,1,3
1528450394496374,-1,-1,2,8,8,8,-2,-5
1528450394517319,-1,-3,-13,-43,-31,-43,-13,-5
1528450394517319,-3,-11,-20,-30,-21,-19,-13,-6
1528450394518318,-3,-3,7,58,67,46,10,1
1528450394518318,3,10,29,23,-10,5,7,4
1528450394530283,-3,-9,-38,-61,7,13,3,-2
1528450394530283,-1,8,27,24,22,7,5,0
1528450394539261,-2,-8,-29,-43,-17,-18,-7,-1
1528450394539261,-5,-10,-14,-4,-20,-17,-3,-2
1528450394554268,1,-4,1,8,-16,-14,-6,-3
1528450394554268,-3,5,1,14,23,11,1,-4
1528450394556216,-2,1,11,-9,-21,-4,-2,-3
1528450394556216,1,10,34,74,17,1,-1,1
1528450394577196,1,1,-11,-31,7,-1,1,-2
1528450394577196,-6,-8,-9,-11,-29,-7,-7,-5
1528450394578194,-1,-1,-14,-25,11,-3,-4,5
1528450394578194,-6,-8,-19,-50,-32,-21,-6,-3
1528450394590160,-3,3,29,101,66,25,10,1
1528450394590160,1,0,-14,-15,-7,9,1,3
1528450394600100,2,5,10,-25,-22,-3,3,1
1528450394600100,-2,0,-3,-11,-19,-10,-5,-3
1528450394614060,-2,-7,-14,-38,7,8,1,-3
1528450394614060,4,2,-4,9,-53,-12,1,4
1528450394616054,-1,2,18,37,75,13,2,-2
1528450394616054,0,-6,-22,-33,-11,-3,1,0
1528450394636999,-5,1,12,12,-2,0,0,-3
1528450394636999,1,-7,-2,-7,-8,-3,0,0
1528450394638993,-3,2,-8,1,-14,-10,-8,-5
1528450394638993,-1,-2,-4,18,15,6,-4,-4
1528450394651016,2,2,26,-45,-26,-10,-3,2
1528450394651016,-5,-10,7,14,3,-5,4,-5
1528450394659937,4,3,4,-10,-5,-5,12,6
1528450394659937,-2,1,15,15,3,3,-5,-6
1528450394674897,-2,-1,-11,9,-13,6,-8,-3
1528450394674897,1,8,14,13,28,4,-11,-4
1528450394675894,0,-3,14,22,-2,1,-9,-1
1528450394675894,-1,3,-2,8,-5,-7,-1,0
1528450394696838,2,-9,-43,-18,-11,1,13,3
1528450394696838,-1,11,36,-14,0,-4,-9,-2
1528450394698833,-2,-6,5,69,-6,-13,-14,-9
1528450394698833,-1,2,15,-40,-9,-1,12,2
1528450394710802,-16,-5,-7,23,7,10,0,12
1528450394710802,-1,9,7,0,9,0,12,2
1528450394719779,34,-1,12,30,-14,-10,-1,4
1528450394719779,-5,-2,10,-19,18,14,14,-3
1528450394734738,7,-2,-16,1,8,5,2,5
1528450394734738,-13,1,-5,-4,7,1,-7,-10
1528450394736776,-11,-8,-7,-18,-31,-28,-15,-3
1528450394736776,13,-6,-1,20,15,10,8,8
1528450394756718,-16,11,14,36,16,5,0,-10
1528450394756718,1,4,4,42,1,-4,-3,0
1528450394758675,-16,-6,-13,-48,-12,-9,5,-9
1528450394758675,0,-7,-23,-17,0,1,0,16
1528450394770678,-2,-3,-5,-40,-15,-7,-1,-7
1528450394770678,10,-6,-15,8,3,-5,-8,5
1528450394779618,-1,10,35,22,-9,-8,-3,5
1528450394779618,-14,-6,-30,-19,11,3,-30,-36
1528450394794579,22,12,28,40,6,-3,-7,22
1528450394794579,21,-10,-22,-43,-5,8,2,13
1528450394795576,-66,-11,-8,-20,-9,0,15,-15
1528450394795576,5,-3,12,-8,-4,-1,-10,0
1528450394816571,-5,4,-4,13,-3,-9,-15,-23
1528450394816571,9,2,39,-10,9,7,4,1
1528450394818515,21,2,-41,-5,-2,-6,-29,-10
1528450394818515,5,16,59,24,-9,-5,4,14
1528450394830484,-10,-2,-18,3,3,2,6,-7
1528450394830484,-5,7,17,8,4,2,8,5
1528450394839457,29,-1,-35,-28,2,-1,3,15
1528450394839457,-24,-17,-18,-5,-16,-8,5,-22
1528450394854418,-2,-9,-3,5,-4,-5,-11,-1
1528450394854418,-31,-7,-32,9,5,-2,3,-22
1528450394856412,-7,-4,15,-5,7,6,12,22
1528450394856412,8,-10,-12,-9,-12,-7,2,2
1528450394877398,27,1,29,6,-3,3,22,27
1528450394877398,-7,-12,-9,-3,0,2,2,4
1528450394878353,-46,-1,15,50,10,1,-23,-66
1528450394878353,-7,11,77,-21,-11,-6,-5,-1
1528450394890381,-4,-12,-77,-39,-7,0,3,-17
1528450394890381,8,-10,38,-1,-7,-6,-10,14
1528450394899325,38,0,14,10,0,10,0,14
1528450394899325,-59,1,-1,31,6,-5,0,-16
1528450394914293,14,-3,13,25,7,6,-3,19
1528450394914293,10,-4,-16,-7,-3,0,-2,-8
1528450394916252,-10,-5,-4,33,9,4,11,28
1528450394916252,12,-8,-52,-49,-17,-2,-2,-16
1528450394937199,-15,0,29,16,4,-3,-7,-6
1528450394937199,1,10,3,2,0,2,17,13
1528450394938358,19,-22,-12,-6,-1,-1,15,11
1528450394938358,14,2,-30,10,5,-1,12,1
1528450394951194,-2,3,35,-30,-7,-3,-11,6
1528450394951194,1,-2,-40,-18,-5,1,10,3
1528450394959137,-24,8,17,-15,3,6,-2,-28
1528450394959137,10,-23,-88,-32,-11,-9,-10,6
1528450394974243,-6,19,28,31,8,0,-6,-33
1528450394974243,10,-15,-57,-36,-11,-12,-1,0
1528450394976093,-1,-4,-25,-3,18,15,9,30
1528450394976093,-15,11,37,20,-1,-4,-2,-35
1528450394997035,14,5,60,71,11,-3,-4,-10
1528450394997035,0,2,30,65,0,0,13,-1
1528450394999030,0,-10,-43,-55,-12,-4,-7,0
1528450394999030,16,-1,-7,25,9,-1,10,24
1528450395010999,-24,-6,2,-31,-13,2,15,4
1528450395010999,17,-5,12,-10,-1,2,-5,-4
1528450395020007,9,37,31,-13,-36,-19,-12,-5
1528450395020007,2,4,20,32,41,18,6,14
1528450395033939,-1,-3,-48,-69,-5,-2,-6,-12
1528450395033939,-23,11,-23,-66,-9,-3,-7,-7
1528450395040957,15,-8,5,-5,-1,6,16,23
1528450395040957,6,1,-1,-4,-22,-15,-19,-4
1528450395056875,-7,-18,-41,-12,-13,-8,13,8
1528450395056875,-4,5,21,9,10,3,-7,-5
1528450395058872,11,2,29,4,6,10,7,-5
1528450395058872,1,24,31,23,6,0,-10,-6
1528450395070866,21,-1,-1,-11,-2,-2,7,28
1528450395070866,-6,3,-22,-27,-26,-16,-7,-4
1528450395079816,-16,-8,9,-17,-39,-16,-10,-18
1528450395079816,-3,-12,-14,46,85,43,13,15
1528450395093777,5,3,0,31,18,8,-3,-4
1528450395093777,6,6,6,16,9,3,-10,0
1528450395100789,-1,0,-39,-32,-33,-23,-9,-2
1528450395100789,5,0,34,-60,-30,-10,4,7
1528450395116716,-5,0,-14,18,5,3,-5,-12
1528450395116716,1,5,-9,-7,-4,6,5,1
1528450395118710,1,-13,4,10,28,11,0,-4
1528450395118710,2,-6,-43,-30,-50,-27,-17,11
1528450395130714,-14,0,41,-46,-48,-19,-8,-7
1528450395130714,-11,-8,-10,47,55,22,4,-3
1528450395139656,1,7,6,41,27,10,2,0
1528450395139656,12,6,25,28,-3,-15,-12,-2
1528450395153619,-8,-12,-31,-69,-24,-23,-8,-12
1528450395153619,-2,-1,30,-61,-93,-22,-12,-4
1528450395160602,2,12,25,50,88,34,17,1
1528450395160602,-1,-13,-22,42,13,10,2,3
1528450395176558,2,6,17,25,-16,0,7,-3
1528450395176558,-14,-4,-5,-28,3,-11,-35,-19
1528450395178551,2,-6,-23,-31,-33,-15,1,1
1528450395178551,2,-8,-24,-19,-13,-6,-1,6
1528450395190564,2,2,17,59,21,13,12,6
1528450395190564,2,0,11,44,28,9,2,4
1528450395199495,-13,-3,-16,-7,-5,2,-9,-21
1528450395199495,6,3,77,-16,-21,-18,-14,-8
1528450395213510,-1,-14,-71,-86,-19,-7,0,1
1528450395213510,-9,3,10,63,41,10,11,-1
1528450395220450,3,-18,-10,-28,8,15,1,13
1528450395220450,-9,-2,5,72,2,0,1,-16
1528450395237410,0,-12,-84,-61,-9,-12,-11,-9
1528450395237410,5,9,28,1,-37,-16,-4,3
1528450395238391,-13,-2,-18,-1,27,10,6,-14
1528450395238391,-2,-2,-13,23,31,18,3,6
1528450395250412,2,8,41,44,14,1,1,2
1528450395250412,2,3,-34,1,-19,-18,-5,1
1528450395259387,-2,3,8,-39,-28,-9,-2,-2
1528450395259387,3,11,-24,14,34,26,12,4
1528450395274318,-5,-22,38,18,14,4,-10,-3
1528450395274318,3,16,-49,-40,0,4,18,-1
1528450395288315,15,13,84,39,-20,-16,-17,15
1528450395288315,3,7,81,11,-16,-2,12,6
1528450395297293,-2,-1,-87,-19,41,19,2,-5
1528450395297293,-6,-9,38,1,-1,0,-6,-1
1528450395298267,1,-3,-2,12,-5,-7,2,-3
1528450395298267,-3,-15,-1,44,-9,-12,-3,0
1528450395319175,-3,26,20,-39,-45,-16,-14,-2
1528450395319175,-1,-6,-13,41,35,14,-7,-15
1528450395321170,0,5,-12,23,6,5,16,14
1528450395321170,1,-2,-22,-12,1,-3,0,-1
1528450395333261,0,2,0,38,0,-4,-4,-6
1528450395333261,3,-18,-29,-41,-7,0,-3,8
1528450395342376,3,9,27,66,-8,-17,-6,-11
1528450395342376,-10,-24,-60,-119,-8,13,6,4
1528450395355341,-1,7,36,22,10,5,6,1
1528450395355341,3,18,19,-6,-43,-18,-2,0
1528450395364326,-2,-17,-10,18,29,16,-6,-2
1528450395364326,-2,13,10,6,-4,-5,0,-7
1528450395379316,1,-11,18,62,14,0,-2,3
1528450395379316,2,4,2,-48,-3,2,6,5
1528450395381272,-8,7,-20,-14,-21,-19,-14,-13
1528450395381272,2,10,-31,-15,-14,-4,-2,2
1528450395402217,-6,-3,13,-23,-35,-8,-1,2
1528450395402217,-4,-24,21,50,76,27,10,5
1528450395403219,23,3,-16,-34,-12,-7,-5,-1
1528450395403219,-2,-19,-10,10,-6,-4,-4,-2
1528450395415182,-2,2,35,16,-4,-7,-4,-6
1528450395415182,-6,-9,8,-4,-12,-1,5,1
1528450395425159,-8,-3,-13,4,3,-5,0,-3
1528450395425159,-4,0,-14,-14,7,4,-3,-3
1528450395439275,3,-7,8,4,1,2,0,4
1528450395439275,0,-2,-10,-7,-6,-6,-5,-3
1528450395441113,-4,1,3,40,6,3,-2,0
1528450395441113,5,-4,0,-31,-23,-10,-6,-1
1528450395462508,-6,-4,16,8,14,7,6,2
1528450395462508,-1,0,-7,-2,0,-3,-2,0
1528450395463404,-1,-13,-11,-28,-10,0,0,0
1528450395463404,-10,-2,-6,-7,-2,-9,-6,-7
1528450395475526,0,4,3,-8,-3,0,-4,-9
1528450395475526,-2,-11,-5,16,-3,-5,-2,9
1528450395484425,-5,-3,-3,-25,-11,-1,-1,1
1528450395484425,-1,5,-15,-22,-10,-4,-3,1
1528450395499432,5,2,-8,17,12,0,0,-1
1528450395499432,2,-3,5,1,-1,2,1,-4
1528450395505509,0,-4,-11,-22,0,0,1,1
1528450395505509,0,-4,2,2,-1,1,1,-4
1528450395522521,-5,-11,-11,15,2,-2,-5,0
1528450395522521,-2,2,-5,-16,-9,-4,0,-2
1528450395523521,-3,-5,-2,-15,-3,-4,-4,-4
1528450395523521,2,8,9,7,-9,-7,-2,0
1528450395535853,-3,-5,5,-10,2,2,1,2
1528450395535853,1,-3,-3,5,12,6,1,-1
1528450395544888,-4,-1,-4,0,-5,-4,-1,-5
1528450395544888,-2,0,-7,4,8,1,-2,-3
1528450395567186,3,7,-5,-6,-9,-5,-5,2
1528450395567186,-3,2,-9,-5,-2,-1,-1,-4
1528450395569047,0,-2,6,2,2,4,4,2
1528450395569047,-2,4,9,6,-3,0,1,-1
1528450395589103,-1,-1,-10,-4,4,1,-2,0
1528450395589103,-1,0,-7,-11,-10,-6,-5,-6
1528450395590959,1,5,1,3,4,2,0,1
1528450395590959,-1,4,-1,-4,-4,-3,-3,-1
1528450395595949,3,8,12,6,6,3,1,-1
1528450395595949,0,6,13,5,-7,-4,-1,-3
1528450395604922,-3,3,-6,-6,-1,2,2,0
1528450395604922,0,-4,0,-16,-13,-4,-2,1
1528450395619044,1,-5,4,40,11,4,-1,2
1528450395619044,-7,-10,-26,-21,-13,-7,-5,-8
1528450395626043,0,1,-12,-16,-18,-9,-6,-2
1528450395626043,0,-9,6,8,11,-1,-2,-1
1528450395642004,1,0,2,-3,-3,2,4,-1
1528450395642004,1,-8,12,14,3,4,2,2
1528450395643997,-5,-18,2,-5,-16,-8,-5,-2
1528450395643997,-3,-14,-2,1,17,6,-1,-3
1528450395655966,4,-4,-5,-13,7,4,1,1
1528450395655966,-1,-5,-7,2,7,2,1,0
1528450395664942,-4,12,-4,-1,-7,-3,0,-1
1528450395664942,-1,10,13,-1,-10,-9,-3,-1
1528450395679062,2,13,3,-12,-3,-4,-2,-1
1528450395679062,-2,-2,-10,-2,-5,-3,-1,-1
1528450395685225,0,0,-4,-10,4,4,-2,-1
1528450395685225,-1,9,-2,23,-14,-7,-3,-2
1528450395702483,-1,8,2,-1,23,11,6,-2
1528450395702483,-13,0,-1,-5,-5,-4,-5,-4
1528450395703408,6,-4,-14,-5,-3,-4,0,3
1528450395703408,3,-3,-8,-5,-1,1,0,3
1528450395715716,2,-8,6,12,-5,2,0,2
1528450395715716,1,9,7,-20,-5,0,2,1
1528450395724533,-11,-8,2,-6,-14,-1,0,-5
1528450395724533,-5,-8,-5,31,60,15,3,-2
1528450395738659,-3,-13,-2,-1,-12,-13,-10,-5
1528450395738659,6,-5,0,10,8,1,1,3
1528450395745634,-1,8,11,-10,-8,0,-1,-1
1528450395745634,3,1,-8,-19,-20,-3,1,0
1528450395761435,-5,3,-7,-17,-12,-3,-7,-2
1528450395761435,2,16,1,35,15,4,1,0
1528450395763430,1,13,-3,-35,0,0,-6,-3
1528450395763430,0,5,-6,-10,-7,3,4,-4
1528450395775398,-14,5,5,14,-1,-5,-2,-7
1528450395775398,7,2,13,1,-15,-6,-3,1
1528450395784382,8,-2,-8,11,13,-1,0,7
1528450395784382,-8,-12,-19,-17,-13,-12,-1,-9
1528450395807316,-14,2,1,4,-4,1,-12,-20
1528450395807316,3,-3,-3,-15,2,10,7,28
1528450395808326,18,7,9,17,18,7,7,13
1528450395808326,0,2,9,10,-3,-4,-3,1
1528450395822273,4,-2,-15,-24,-12,-9,1,2
1528450395822273,-7,-9,-11,-20,-12,-9,-7,-13
1528450395823270,-12,-10,-4,-1,12,7,0,-7
1528450395823270,1,6,9,-4,-26,-6,-2,3
1528450395844286,0,-7,-15,9,31,1,-4,2
1528450395844286,-1,-7,11,5,-17,-2,3,-1
1528450395846277,2,10,0,-6,-7,-6,-1,-4
1528450395846277,-6,-1,-1,-4,-2,4,1,-6
1528450395859243,0,-1,4,-8,-16,-4,0,2
1528450395859243,1,1,0,-3,2,-2,-1,-5
1528450395865230,-9,-8,-1,8,4,-1,-3,-6
1528450395865230,-1,3,12,1,-5,-5,-4,0
1528450395882184,4,-1,1,-4,0,1,4,5
1528450395882184,1,1,-7,-2,-1,-2,-3,-4
1528450395883182,-3,-7,-32,-13,-4,-2,2,0
1528450395883182,-3,3,28,17,8,1,-7,-9
1528450395904154,8,-1,-1,-1,-2,4,2,14
1528450395904154,-9,3,5,-1,1,-4,4,-6
1528450395906118,9,-6,4,8,-2,2,-4,3
1528450395906118,6,0,-15,-19,0,-3,-8,0
1528450395918086,-12,-3,9,3,1,5,17,-2
1528450395918086,5,0,0,1,1,-2,-5,3
1528450395927062,-7,-3,0,1,1,-2,-2,-6
1528450395927062,0,-4,-6,2,0,1,-1,3
1528450395942022,2,-1,-3,3,-4,-1,-3,-3
1528450395942022,-5,-2,-6,-3,0,0,-5,-9
1528450395944016,-2,-10,4,3,2,1,0,1
1528450395944016,8,3,-2,2,-3,-3,-4,4
1528450395964119,-4,-3,1,-11,-3,-3,-3,-3
1528450395964119,6,3,-12,1,0,-2,-1,0
1528450395966115,1,2,6,1,-3,-3,-4,-1
1528450395966115,-3,-5,-9,-3,-1,1,4,1
1528450395978238,-4,-10,-5,1,4,0,-2,-3
1528450395978238,3,6,5,3,-3,-3,-4,-2
1528450395987074,-3,0,-13,0,-3,-4,1,-5
