timestamp,emg1,emg2,emg3,emg4,emg5,emg6,emg7,emg8
1528452270401789,-2,2,-1,0,1,-1,0,-1
1528452270401789,1,-2,-3,-1,-1,-1,-1,-2
1528452270408797,-1,1,0,-1,-1,1,0,1
1528452270408797,0,-1,0,-3,0,1,-1,-1
1528452270415752,0,-1,0,0,-2,0,-1,-1
1528452270415752,-1,0,-1,-1,-1,0,-1,1
1528452270430712,-1,0,-1,-1,0,0,-2,-1
1528452270430712,-1,-1,0,0,-1,-1,-1,-2
1528452270441683,-1,-3,0,-1,-1,0,0,0
1528452270441683,-2,0,1,-1,0,-1,1,-1
1528452270453651,0,0,0,-1,0,-1,-1,-1
1528452270453651,-1,1,-1,0,-1,0,0,-1
1528452270468611,0,-1,-2,0,-1,0,-1,0
1528452270468611,0,0,-1,-1,0,-1,-1,1
1528452270476601,0,0,-2,-2,-1,-1,0,0
1528452270476601,-1,-1,-1,-1,-1,0,-1,-1
1528452270493543,0,-2,-1,-1,-1,-1,-1,0
1528452270493543,0,0,0,-2,-1,-2,1,0
1528452270500525,0,0,-1,-2,0,0,0,-1
1528452270500525,1,-1,-2,-2,-2,0,-1,0
1528452270513492,-1,-1,-1,0,0,-2,0,1
1528452270513492,0,0,0,0,0,0,-2,-1
1528452270528520,0,0,-1,0,-1,0,-1,-1
1528452270528520,1,0,1,0,-1,-1,0,0
1528452270536430,-1,1,-1,0,1,-2,-2,-2
1528452270536430,1,0,-2,-1,0,-1,-1,1
1528452270558371,-1,-1,1,-1,1,-1,-1,0
1528452270558371,-2,-2,2,-1,0,1,0,-1
1528452270566350,-2,-1,1,0,-2,-1,0,-1
1528452270566350,0,-1,-1,-1,-2,-1,0,0
1528452270581311,-1,-1,0,-1,0,-1,-1,-1
1528452270581311,-1,0,-1,1,0,-1,-1,-1
1528452270596271,0,-2,-2,1,-2,0,-1,1
1528452270596271,-1,-1,-2,-2,-1,0,-1,0
1528452270611230,0,0,-1,-1,-1,2,0,0
1528452270611230,-1,2,-2,0,-3,-1,-2,-3
1528452270618210,0,-2,-2,0,0,1,1,1
1528452270618210,-1,0,1,1,1,1,0,0
1528452270633170,0,-1,-1,-2,0,-1,0,-1
1528452270633170,-2,0,-1,0,-1,-1,-1,0
1528452270649133,-1,0,-1,-1,0,-1,0,-1
1528452270649133,-1,2,0,0,0,-1,0,-1
1528452270658105,0,-2,0,-1,-2,0,-1,0
1528452270658105,-1,-2,-1,-1,-1,0,0,-2
1528452270671070,-3,-1,0,0,-1,-2,-1,-1
1528452270671070,-1,0,-1,-2,-1,0,1,1
1528452270679049,-1,2,-1,-1,-2,-1,-1,0
1528452270679049,-1,0,-1,-1,-2,-2,-3,-2
1528452270694009,-2,-1,-2,0,-1,-2,-2,-1
1528452270694009,0,-3,1,0,0,0,0,1
1528452270723929,-1,0,-1,0,-1,0,0,0
1528452270723929,-1,-1,0,-1,-1,-1,-1,-2
1528452270730910,-2,2,0,0,-2,-1,-4,-3
1528452270730910,-1,0,0,2,5,0,1,0
1528452270745871,0,-1,-1,-3,-7,-1,0,-1
1528452270745871,-1,-1,-3,-3,0,-1,-1,-1
1528452270760829,-1,0,0,0,0,1,0,2
1528452270760829,-2,0,0,0,0,0,-1,-3
1528452270768808,1,1,1,1,2,-1,-1,-2
1528452270768808,0,0,-3,-3,-2,-1,-2,-2
1528452270783769,-1,0,0,-1,1,-1,0,-2
1528452270783769,0,0,0,2,4,0,0,0
1528452270790750,-1,-2,-1,-3,-5,-1,1,-1
1528452270790750,0,-1,-3,-2,0,-1,-1,0
1528452270798730,0,0,-1,0,4,-1,-2,-1
1528452270798730,-1,-1,-2,-1,-5,-1,0,0
1528452270813689,-1,-3,-2,-2,3,-3,-1,-1
1528452270813689,-1,0,-1,1,1,-2,-1,0
1528452270835629,-2,1,-1,1,3,-1,-1,-2
1528452270835629,0,0,-1,2,1,0,-2,0
1528452270843609,0,2,0,-3,3,1,-1,-1
1528452270843609,2,0,1,-1,-7,-1,-1,-2
1528452270866549,0,-3,-3,-2,-6,-4,-3,-1
1528452270866549,-1,-2,-1,-2,-4,-2,-2,-1
1528452270873529,-2,1,2,5,9,2,1,-2
1528452270873529,-1,0,1,-6,-11,-2,-1,0
1528452270881508,-1,-2,-3,0,-4,0,1,1
1528452270881508,-2,0,2,-1,1,1,0,0
1528452270896469,1,0,1,2,1,0,0,3
1528452270896469,0,-1,-1,0,0,0,-2,-10
1528452270918410,-2,-1,-2,0,-3,1,-1,0
1528452270918410,0,1,0,-2,1,0,-1,1
1528452270926387,-1,0,-1,-4,-6,-2,-1,0
1528452270926387,0,-1,1,6,2,0,-1,-2
1528452270941347,-1,0,-1,-2,-4,-1,0,0
1528452270941347,-1,2,-1,-3,4,1,1,0
1528452270956308,-1,1,1,3,-1,1,-2,-2
1528452270956308,-1,0,-3,-16,-3,0,0,0
1528452270978248,-1,-2,-1,1,-4,-2,-2,-2
1528452270978248,-1,0,1,8,0,0,-1,1
1528452270993207,-1,1,-1,-8,-3,-1,-1,0
1528452270993207,1,0,-3,0,3,0,-1,0
1528452271008169,-1,1,1,7,4,-1,-2,-1
1528452271008169,-1,0,0,-3,-3,-1,-1,1
1528452271023129,0,-1,2,43,7,1,-1,1
1528452271023129,-2,-3,1,2,3,0,-2,-2
1528452271039091,0,1,-4,-52,-12,-1,0,-2
1528452271039091,0,0,0,6,-7,-1,-2,1
1528452271061028,1,-1,1,-3,-3,-1,-1,0
1528452271061028,-1,0,-1,0,-1,-1,0,-1
1528452271083972,1,0,-1,1,-2,-1,0,-1
1528452271083972,-2,0,-3,5,3,1,0,0
1528452271090948,-3,0,-2,-8,-1,-1,0,-1
1528452271090948,0,0,1,4,1,-1,0,0
1528452271113888,0,-1,0,11,0,-1,-1,-2
1528452271113888,0,-2,-2,-12,-2,-1,-1,-2
1528452271128846,-1,0,-2,-1,-1,-1,0,1
1528452271128846,0,0,-1,10,0,-1,0,0
1528452271143806,0,-3,-2,7,-3,-1,-1,0
1528452271143806,-1,-2,-3,-6,0,0,-1,-1
1528452271158765,-1,1,0,-8,-2,-1,-2,-1
1528452271158765,0,1,0,1,1,1,-1,-1
1528452271173726,0,-1,-1,-2,0,0,-2,1
1528452271173726,0,-1,1,2,-1,-1,0,-1
1528452271195670,-1,-2,1,6,2,-1,-1,0
1528452271195670,1,-1,0,-6,-2,-1,-1,0
1528452271203702,-1,-2,-1,-4,-2,-1,0,-1
1528452271203702,-1,-1,-1,-3,-2,0,0,1
1528452271226596,-1,0,0,3,0,-1,-2,0
1528452271226596,1,-1,-1,1,1,-2,-1,-1
1528452271233565,-3,-2,0,-13,-2,-1,1,1
1528452271233565,-1,-2,0,11,0,-2,0,-1
1528452271248569,1,0,0,-12,-3,0,-1,-1
1528452271248569,-1,-1,-2,-3,1,-3,-1,-1
1528452271271493,-1,-1,-1,1,4,-1,-1,0
1528452271271493,0,-2,1,2,0,0,-1,-2
1528452271278446,-1,0,-2,-3,0,-2,-1,-1
1528452271278446,1,0,-1,-8,-2,-1,0,0
1528452271293406,0,0,-1,1,-1,1,0,1
1528452271293406,0,-2,-1,-1,-2,0,-1,-2
1528452271301383,1,-1,0,5,0,-1,-1,-1
1528452271301383,0,2,1,4,1,1,-1,-2
1528452271316344,-1,0,0,7,1,-2,0,-1
1528452271316344,-2,-1,-2,-8,-2,-1,-2,0
1528452271338285,1,-2,-1,-4,-1,-1,-1,-1
1528452271338285,-1,-1,-1,2,0,1,-1,-1
1528452271353245,0,1,0,4,0,0,-1,-1
1528452271353245,-1,-1,-1,-1,1,-1,0,-1
1528452271368205,0,0,0,-8,-4,-2,-1,-1
1528452271368205,-2,-1,-1,3,0,-1,0,1
1528452271383165,-1,-1,0,4,0,0,-1,-1
1528452271383165,-1,0,0,-10,-3,-1,-2,-1
1528452271391144,-1,-1,-3,-10,-5,0,0,0
1528452271391144,-2,1,0,11,1,0,-1,0
1528452271406104,0,1,1,1,0,-1,0,-1
1528452271406104,0,-1,-2,-5,0,0,-1,0
1528452271421064,0,0,-1,0,-1,-1,0,-1
1528452271421064,-1,-2,-2,-12,-4,0,-1,0
1528452271436024,0,0,0,0,1,0,0,1
1528452271436024,-1,-1,-3,-4,-2,0,0,-1
1528452271450984,-2,-2,-1,2,0,0,0,-1
1528452271450984,0,-1,-1,-4,0,0,0,-2
1528452271458962,-3,-1,0,2,0,-2,-1,-1
1528452271458962,0,-2,-1,-1,-2,-1,-1,0
1528452271473924,0,1,-1,2,1,0,-1,0
1528452271473924,-1,-1,-2,-5,-4,-1,-3,0
1528452271480907,-2,-1,0,6,2,0,-1,0
1528452271480907,-2,1,0,-4,-2,-1,0,-1
1528452271504097,0,-2,-1,7,2,0,-2,-2
1528452271504097,2,-1,1,-5,-3,0,0,-1
1528452271526954,-1,0,1,1,-1,0,0,-2
1528452271526954,0,1,-1,5,2,-1,-1,0
1528452271534105,-1,-1,-4,-20,-7,0,-1,-1
1528452271534105,-1,0,1,8,2,-1,0,0
1528452271549331,0,0,-3,-2,-3,-2,0,0
1528452271549331,-1,-1,-2,13,3,-2,-2,0
1528452271563121,0,1,0,12,1,0,-1,0
1528452271563121,0,2,-3,-27,-9,-3,1,-1
1528452271586115,-2,-2,1,3,2,0,0,0
1528452271586115,-2,0,0,15,3,1,-1,-2
1528452271609002,0,0,-4,-17,-12,-1,-2,-1
1528452271609002,0,-1,-1,2,1,-1,-1,-1
1528452271616301,0,0,1,-2,0,-1,-1,0
1528452271616301,0,-1,-1,4,-1,0,0,-1
1528452271639203,1,1,1,5,2,-1,-1,0
1528452271639203,-2,-2,-3,-1,-1,0,-1,0
1528452271661857,-1,-2,-3,-23,-12,-1,-2,-2
1528452271661857,2,-1,-1,-6,-2,0,0,0
1528452271669106,-1,-1,0,6,1,0,1,-1
1528452271669106,-1,-1,-3,-20,-5,-1,-1,-1
1528452271676084,0,-1,0,15,5,1,0,0
1528452271676084,-2,-1,-3,-18,-5,-1,-1,-2
1528452271691362,1,0,1,8,2,-1,1,-1
1528452271691362,-1,-1,0,-13,-3,-1,-2,-1
1528452271706304,-1,-1,1,6,0,0,0,0
1528452271706304,0,-1,-2,-1,0,-2,-1,-1
1528452271721264,-1,0,-1,-14,-6,-1,-2,-2
1528452271721264,0,0,0,8,1,-1,-1,0
1528452271728243,0,0,-3,-8,-1,1,0,-1
1528452271728243,-1,-1,0,6,2,-2,0,0
1528452271736465,-1,-1,-1,5,2,1,-1,0
1528452271736465,0,-1,-1,-3,-3,-1,-2,-2
1528452271743710,-1,0,-1,8,1,-1,0,1
1528452271743710,-3,-3,-1,-7,-2,0,-1,-2
1528452271758760,-2,0,0,-4,1,-1,0,0
1528452271758760,-1,-1,0,2,-2,0,-1,0
1528452271780694,0,-1,0,7,1,0,0,-1
1528452271780694,-2,0,0,7,2,0,-1,-1
1528452271788673,0,-2,-2,-8,-3,-1,-4,-1
1528452271788673,-1,-1,-3,-18,-1,-2,0,-1
1528452271826741,0,-1,-3,4,1,1,-1,-1
1528452271826741,0,1,0,-5,-3,0,-1,-1
1528452271833800,1,-2,2,10,2,-2,0,0
1528452271833800,0,-1,0,4,1,0,0,-1
1528452271841717,0,1,0,-4,1,0,1,0
1528452271841717,-1,0,1,4,2,-2,0,-1
1528452271856765,0,-1,-2,-4,-3,1,1,0
1528452271856765,-1,-1,-1,2,-1,1,-1,-1
1528452271863736,-1,0,-1,1,1,-2,0,1
1528452271863736,1,-1,-1,-5,-1,-1,0,0
1528452271871268,-1,-2,1,0,-3,-3,-1,-1
1528452271871268,0,-2,-3,-3,-1,-1,-2,0
1528452271878984,-1,0,-1,-1,0,0,-1,0
1528452271878984,0,0,1,4,1,0,-2,0
1528452271894205,0,-1,0,-1,-1,0,0,-1
1528452271894205,-2,-2,0,4,1,-1,0,-2
1528452271901343,-1,1,-2,1,-1,1,0,0
1528452271901343,-2,-2,-1,-4,-3,-2,-2,-1
1528452271916435,-1,-2,0,-2,0,1,-2,-1
1528452271916435,-1,-1,-2,-4,-1,-1,-2,0
1528452271924280,-1,-1,-2,7,2,-3,-1,-1
1528452271924280,-1,-1,-1,1,-1,1,0,0
1528452271939258,-1,1,-1,-3,-1,-3,2,0
1528452271939258,0,-1,-1,-2,-1,-1,0,1
1528452271946276,1,-1,0,-5,-2,-2,-2,-1
1528452271946276,0,1,0,0,-2,-2,-1,0
1528452271969265,0,-1,-2,1,-1,-1,-1,-1
1528452271969265,-1,0,0,0,-1,0,1,0
1528452271976451,0,-1,-1,-2,-1,0,-2,-1
1528452271976451,-1,0,0,2,-1,0,0,-1
1528452271991417,0,-1,-2,-1,1,-1,-1,0
1528452271991417,0,0,0,-1,0,0,-1,1
1528452271999323,2,0,-1,-2,0,-1,0,-2
1528452271999323,-1,-2,-1,2,0,1,-1,-3
1528452272006380,-1,0,0,0,-1,-1,1,-1
1528452272006380,1,1,0,-11,-6,-2,0,-1
1528452272021331,0,1,-2,2,0,-2,-1,0
1528452272021331,-1,-2,0,-2,-1,0,-2,-1
1528452272029054,-1,0,0,3,0,-1,-1,1
1528452272029054,-2,-1,-2,2,0,-1,0,0
1528452272044285,1,-1,-1,0,-2,1,-1,0
1528452272044285,0,1,-1,-2,-1,-1,0,-1
1528452272051001,-1,0,-2,-2,0,0,1,-1
1528452272051001,-1,-1,0,3,0,0,-1,-1
1528452272059244,0,-1,-1,-2,-2,0,-2,0
1528452272059244,-2,0,-2,-1,-1,-1,1,0
1528452272066219,0,-1,0,-2,-3,-1,-1,-2
1528452272066219,-2,1,-1,1,2,-1,0,0
1528452272074194,0,0,-1,0,-1,-1,0,1
1528452272074194,-1,-1,0,-2,0,-3,0,1
1528452272081501,-2,-1,0,0,0,0,-2,0
1528452272081501,-1,-2,-3,-8,-6,-1,-1,-1
1528452272096227,-2,-1,1,1,1,0,-1,0
1528452272096227,0,-1,-1,-1,-2,-1,-1,0
1528452272103358,-1,-3,1,-2,0,0,1,0
1528452272103358,-2,-1,1,4,3,-1,0,1
1528452272111106,-1,-1,-2,-4,-1,-2,1,0
1528452272111106,0,1,0,0,-3,0,-1,-1
1528452272119282,-1,-1,-1,4,0,0,1,-2
1528452272119282,0,-1,0,2,0,0,0,-1
1528452272141988,0,-1,0,-1,-2,-1,0,-1
1528452272141988,-1,-2,0,-2,-2,0,-1,0
1528452272148990,0,2,-1,-6,-2,-1,0,0
1528452272148990,1,0,-2,2,0,-1,-1,-2
1528452272170669,-1,0,0,4,1,-1,-1,-1
1528452272170669,0,-1,0,1,-1,-2,-2,0
1528452272187013,0,0,-1,-2,-3,-1,-1,0
1528452272187013,0,0,0,-2,0,0,-1,-2
1528452272193944,0,-1,-1,2,1,0,-2,-1
1528452272193944,0,-1,-1,-2,1,1,-1,-1
1528452272209036,-2,-1,1,0,-1,0,0,-1
1528452272209036,0,0,0,-3,-1,0,-1,-1
1528452272224279,-3,-2,-1,0,-1,-1,-1,-1
1528452272224279,-1,-2,-1,-2,-1,0,-2,-1
1528452272231373,-1,-1,-1,1,1,-1,0,-1
1528452272231373,0,-1,-1,6,2,-1,1,-1
1528452272246885,0,-1,0,-2,-2,-1,0,0
1528452272246885,-1,0,0,2,-2,-1,0,-1
1528452272261546,1,0,-1,-2,0,0,0,1
1528452272261546,-1,0,-2,-1,-2,-1,-1,-3
1528452272269349,0,-2,1,3,1,-1,0,-1
1528452272269349,-1,0,-1,1,1,0,-1,-1
1528452272299339,0,0,-2,-5,-3,-2,-2,-1
1528452272299339,-2,1,1,2,0,-1,0,-1
1528452272306425,-1,-1,1,-5,-1,0,0,-1
1528452272306425,0,-1,-1,3,0,1,-1,0
1528452272313146,-1,-2,-2,-3,0,-1,-2,-2
1528452272313146,0,-2,-1,0,0,-2,0,0
1528452272336523,-1,-3,-1,5,2,-1,-1,-1
1528452272336523,-1,0,0,-6,-2,-1,0,-1
1528452272351505,1,0,0,0,-1,-1,0,1
1528452272351505,1,-1,-3,-6,-4,-1,1,1
1528452272358733,-1,0,-1,-2,-2,0,0,-2
1528452272358733,1,0,1,0,0,1,0,-1
1528452272366707,1,0,-1,-6,-1,-1,-1,0
1528452272366707,-3,0,0,-1,0,1,-1,-2
1528452272374001,-2,-1,-1,3,1,-1,-1,-1
1528452272374001,-1,-1,-2,-3,1,-2,-1,0
1528452272381899,0,0,-1,-3,-2,-2,1,-1
1528452272381899,0,-1,0,-1,0,-1,0,-1
1528452272396864,1,0,-1,-3,-1,-1,-2,-1
1528452272396864,1,-2,0,2,-1,-1,-1,1
1528452272411877,-1,0,-1,-1,-1,0,-1,0
1528452272411877,0,-2,-2,-1,-2,-1,-1,0
1528452272418613,-1,0,-2,0,0,-1,0,-1
1528452272418613,-1,0,-1,-1,-1,-2,2,-1
1528452272426846,-2,0,-2,0,0,-1,-1,-1
1528452272426846,1,-1,-1,-1,2,-1,0,0
1528452272449072,-2,-1,-1,-1,-2,0,1,-1
1528452272449072,-2,-2,0,6,1,1,-1,-3
1528452272456393,0,-1,-2,-10,-4,0,-1,-1
1528452272456393,-1,-1,-1,0,0,0,-1,-3
1528452272464394,-1,-1,-1,-2,-2,-2,-1,-1
1528452272464394,-2,-1,-1,-1,0,0,-1,2
1528452272471070,-1,-2,-2,3,1,0,-1,-1
1528452272471070,-2,0,-1,-1,-1,-2,0,0
1528452272478996,-1,0,0,0,1,0,0,1
1528452272478996,0,0,-3,-5,-2,0,0,0
1528452272485977,0,-1,0,0,0,0,-1,-1
1528452272485977,0,-1,-1,0,-1,-1,0,0
1528452272493957,0,0,0,-2,-2,0,-1,-2
1528452272493957,-1,-1,0,-4,-3,0,0,-1
1528452272500938,-1,0,-2,1,2,0,0,1
1528452272500938,-1,0,0,-1,-1,-1,-2,0
1528452272523875,-2,2,-2,-1,-2,0,-1,-2
1528452272523875,-1,-1,-1,-1,0,-3,-1,-1
1528452272530856,-1,-1,-1,0,-1,-1,-1,-1
1528452272530856,-1,-1,-1,-1,-3,-1,0,0
1528452272538835,1,0,-1,0,-2,0,-1,0
1528452272538835,-1,-1,0,-1,-2,0,0,-1
1528452272545817,0,1,-1,3,1,0,0,0
1528452272545817,-1,0,-1,0,1,-2,0,-1
1528452272560776,0,-4,-2,-2,-2,-1,1,0
1528452272560776,0,0,-1,0,1,0,-1,0
1528452272575736,-1,-1,0,-1,0,-1,-1,1
1528452272575736,-1,-3,0,1,0,-1,-1,-2
1528452272583715,-2,-1,0,-2,-3,-2,-3,-1
1528452272583715,-1,0,-1,-1,-1,1,-1,-1
1528452272590696,0,0,-2,-1,-1,-1,0,0
1528452272590696,-1,0,-2,-1,-1,1,-1,0
1528452272598675,-1,0,0,-1,-1,-1,0,-2
1528452272598675,2,-2,-1,1,-2,-2,-1,1
1528452272613635,1,1,0,0,-1,0,-2,0
1528452272613635,0,0,0,0,0,-1,0,0
1528452272620617,1,-1,-1,-3,-1,1,1,-1
1528452272620617,-2,-1,-1,1,0,2,-2,-1
1528452272636578,0,-1,-2,-2,0,0,1,1
1528452272636578,-1,0,0,-1,0,-1,-1,1
1528452272643555,-1,-1,-2,2,0,-1,-1,-1
1528452272643555,0,1,-2,0,-2,-1,2,0
1528452272658515,0,1,1,0,-2,-2,-2,-2
1528452272658515,-1,0,1,-1,-2,0,-1,-2
1528452272666494,-1,0,0,-1,0,-1,-1,1
1528452272666494,-2,0,-1,-1,1,-1,-2,-2
1528452272688435,-1,-1,-1,-2,-1,-1,-1,0
1528452272688435,0,0,0,0,-1,0,1,-2
1528452272696414,1,-1,0,-1,-1,1,0,0
1528452272696414,0,-1,-2,0,-1,0,0,-1
1528452272711374,0,-1,0,-1,-1,-1,-1,-1
1528452272711374,0,-1,-1,-1,0,0,-1,0
1528452272718355,-1,-3,-1,0,0,-1,0,-1
1528452272718355,-1,-1,0,-1,-2,0,2,-1
1528452272726334,0,1,-1,-2,-1,-1,0,-1
1528452272726334,1,-1,0,0,-2,-1,-1,-2
1528452272733317,-1,0,-1,-1,0,-2,0,0
1528452272733317,1,-2,-1,-1,0,-1,-2,-1
1528452272741293,-1,-2,-2,1,-2,-1,0,0
1528452272741293,0,-1,1,-1,1,0,-2,0
1528452272756253,-2,-1,-1,-3,0,-1,-1,-2
1528452272756253,-2,-1,-1,-1,0,-2,-1,0
1528452272763246,1,-1,-2,-1,0,-1,-1,-1
1528452272763246,0,0,-1,-1,-1,-1,0,-1
1528452272771213,0,0,-1,0,0,0,-2,0
1528452272771213,0,-1,0,-1,-2,0,-2,0
1528452272778194,0,-1,-1,-2,-2,-1,-2,0
1528452272778194,-2,-1,-2,-1,0,-2,1,0
1528452272794400,0,-2,-1,0,0,0,0,-2
1528452272794400,-2,1,-1,-1,-1,-1,0,-1
1528452272801134,0,1,0,0,-2,0,0,-1
1528452272801134,0,-1,0,-2,-1,-1,0,-1
1528452272816094,-2,-1,-1,-1,0,-1,1,-1
1528452272816094,0,-1,1,1,-1,0,1,1
