timestamp,emg1,emg2,emg3,emg4,emg5,emg6,emg7,emg8
1529564238445546,-1,-3,-1,-1,0,-1,-1,-2
1529564238445546,1,-1,0,2,0,0,1,-2
1529564238454522,-1,-1,-1,-3,-1,0,1,0
1529564238454522,-1,0,0,1,1,0,-1,-1
1529564238460506,0,1,2,2,4,-1,-2,0
1529564238460506,0,-1,-1,-1,0,1,-1,1
1529564238476464,0,-1,0,-2,-1,1,0,0
1529564238476464,-2,-1,-2,1,-4,-2,-1,-1
1529564238483444,-1,-1,-1,1,2,2,1,0
1529564238483444,-1,-2,-1,-2,-1,1,-2,-2
1529564238498405,-1,2,-2,-1,-3,-1,-3,0
1529564238498405,-2,2,-1,1,5,1,1,0
1529564238505385,0,2,-1,-2,-1,0,-1,0
1529564238505385,-1,0,-1,0,0,1,0,1
1529564238514362,-2,-1,0,3,2,0,-1,-2
1529564238514362,1,-4,-2,-1,0,0,-2,-2
1529564238521343,0,-2,-1,-8,-7,-3,0,0
1529564238521343,0,-2,-1,-2,-1,-1,-2,-1
1529564238537300,0,0,0,0,-3,-1,0,-1
1529564238537300,0,-1,2,2,3,0,0,0
1529564238543285,0,0,-1,1,-2,-2,-2,-1
1529564238543285,-1,-1,0,-1,-2,-1,-2,-2
1529564238558244,0,-1,0,0,3,2,0,-2
1529564238558244,-1,1,-1,-1,0,-1,-2,0
1529564238566223,0,-2,-2,0,1,1,0,-2
1529564238566223,0,1,0,2,3,-1,-1,-1
1529564238575200,-1,-2,-1,-6,-12,-2,-2,0
1529564238575200,1,1,0,0,2,1,0,0
1529564238581183,0,-2,0,-1,-5,-2,-3,0
1529564238581183,-2,-1,1,3,0,-1,0,0
1529564238597141,0,-1,-1,-1,2,1,-1,-1
1529564238597141,-1,-1,-1,-3,-1,-2,-2,-2
1529564238603125,-2,-1,0,2,-4,-4,1,0
1529564238603125,-1,-1,0,0,0,-3,-1,-1
1529564238618084,-2,-2,-2,2,4,1,1,-1
1529564238618084,-1,0,-2,-1,-3,-2,-2,-1
1529564238626064,-1,1,-1,0,3,3,1,0
1529564238626064,-1,-1,0,-2,0,0,0,-2
1529564238635039,0,-1,0,-1,-2,-2,-1,0
1529564238635039,-1,0,0,1,0,-1,0,-1
1529564238641025,-1,-2,0,0,0,-1,-1,-1
1529564238641025,-2,-1,-1,-2,-1,-1,-1,-1
1529564238656980,-1,-1,-1,-6,-4,-1,0,-1
1529564238656980,-1,-2,0,0,-1,2,-1,-1
1529564238662965,1,0,0,2,5,-1,1,0
1529564238662965,0,1,0,2,4,3,2,-1
1529564238677924,-2,1,-4,-13,-9,-3,-2,-1
1529564238677924,-2,-1,-2,3,1,-1,-2,-1
1529564238685903,-1,0,-1,0,1,2,0,0
1529564238685903,-1,-1,0,1,0,-1,-1,0
1529564238694879,0,-1,0,3,4,0,-1,1
1529564238694879,0,0,1,-4,-2,0,2,0
1529564238700865,0,0,0,-1,1,1,-1,-2
1529564238700865,0,-3,-2,-3,-3,-2,0,0
1529564238717820,-1,0,-1,3,1,-1,-2,-1
1529564238717820,-2,0,0,-2,-3,-1,-3,0
1529564238723804,0,0,-2,-1,-2,-2,-1,-1
1529564238723804,0,-1,-1,-3,-1,0,-1,-1
1529564238738818,-1,-1,0,0,1,-1,0,-1
1529564238738818,0,0,-2,1,3,-1,-2,-1
1529564238745743,0,-1,-1,-1,-5,0,0,-1
1529564238745743,-2,0,1,12,9,0,-1,0
1529564238754719,1,-2,-1,-9,-8,0,0,0
1529564238754719,0,-1,-2,-17,-6,-1,-1,0
1529564238760736,0,1,1,1,8,6,-1,1
1529564238760736,-1,-2,-2,-4,-8,-5,-2,-2
1529564238777660,0,0,3,14,8,-1,0,-1
1529564238777660,-2,-2,1,3,2,-1,0,-1
1529564238783682,-2,-2,1,-3,-2,0,0,-2
1529564238783682,0,0,0,-2,-1,-1,0,0
1529564238798602,-2,1,0,1,2,-1,-1,0
1529564238798602,0,-2,0,2,1,-1,-1,0
1529564238805583,-1,1,0,8,8,-1,-1,-1
1529564238805583,-1,-1,-5,-21,-12,-3,-2,-1
1529564238814583,-1,0,-1,-2,-5,-2,-2,0
1529564238814583,0,-2,-2,0,-2,0,0,0
1529564238820543,0,0,1,5,2,-1,0,0
1529564238820543,-2,0,-2,0,0,0,0,-1
1529564238837498,0,0,0,-6,-3,1,0,-3
1529564238837498,-1,0,-2,3,1,-2,1,1
1529564238843482,-2,0,0,-4,-5,-5,-2,0
1529564238843482,-1,0,-1,7,5,2,0,-1
1529564238858442,-1,-1,0,-11,-7,0,-1,-1
1529564238858442,-1,0,0,3,0,-1,-2,0
1529564238865423,0,-2,-1,-6,-6,-1,0,1
1529564238865423,-1,-1,-1,2,2,-1,-1,-1
1529564238874399,1,0,1,7,5,0,1,-2
1529564238874399,1,0,-1,-1,2,2,0,0
1529564238880384,-1,-1,-2,-4,-4,0,-1,0
1529564238880384,-2,-3,2,1,0,-1,-1,-1
1529564238897339,0,1,-1,2,-1,1,0,0
1529564238897339,-2,0,0,-5,-2,-2,0,-1
1529564238903322,0,-1,0,3,3,1,1,-2
1529564238903322,-1,0,-1,0,-1,0,0,1
1529564238918282,1,-1,-1,5,5,0,-2,0
1529564238918282,0,-1,0,11,6,1,0,0
1529564238926261,-1,-2,-6,-26,-15,-4,-4,-2
1529564238926261,-1,0,0,-16,-8,-3,-1,0
1529564238935272,-1,-1,-2,1,-1,0,-1,-1
1529564238935272,0,1,2,5,1,-1,0,-2
1529564238941222,0,0,1,8,3,0,1,1
1529564238941222,0,-1,-1,7,3,1,0,-1
1529564238957179,0,-2,-2,-15,-9,-3,-2,-1
1529564238957179,-1,0,2,2,1,-1,0,0
1529564238963163,0,-1,0,5,2,0,-1,-1
1529564238963163,1,-1,-2,-7,-6,1,0,0
1529564238978170,0,-1,-2,7,4,-1,0,0
1529564238978170,0,-2,-1,-1,-5,-1,-2,-1
1529564238986149,0,0,1,-3,0,-1,0,-1
1529564238986149,-1,0,-1,4,7,-1,-1,-1
1529564238995077,-1,-1,-1,2,0,-1,0,-1
1529564238995077,-4,-1,-2,-7,-2,-2,-2,-1
1529564239001241,-2,0,1,5,-5,-2,-1,0
1529564239001241,-2,0,1,13,7,0,-1,-1
1529564239017218,-2,0,-2,-24,-18,-3,-1,-1
1529564239017218,1,-1,0,1,1,0,-1,-1
1529564239023185,0,0,-1,1,-2,-2,0,-1
1529564239023185,-1,0,-1,-1,0,-1,0,-1
1529564239037963,0,-1,1,12,7,1,0,-1
1529564239037963,1,-1,-1,-4,-1,-2,1,0
1529564239045953,0,0,-1,0,3,-1,-2,0
1529564239045953,-1,0,-1,-5,-8,-3,-1,0
1529564239054920,-3,-2,0,8,5,1,0,0
1529564239054920,-1,-1,-2,-2,-3,0,-2,-2
1529564239060927,-1,0,-3,-9,-10,-4,-2,-1
1529564239060927,1,-1,1,2,1,0,-1,-1
1529564239077105,-1,0,1,4,2,0,0,0
1529564239077105,0,1,0,0,0,-2,0,-1
1529564239083091,0,0,1,3,3,0,-2,-1
1529564239083091,0,-2,-1,-3,-2,2,-1,0
1529564239098244,-2,0,1,8,6,-3,0,0
1529564239098244,0,1,-1,-1,-2,0,0,1
1529564239106029,-1,-1,-3,-15,-6,-1,0,-1
1529564239106029,0,-1,-1,2,-3,-3,0,-1
1529564239115005,-1,0,-3,-10,-3,-1,-1,-1
1529564239115005,0,-1,2,7,4,1,1,0
1529564239120988,-3,-1,1,8,6,1,0,-2
1529564239120988,0,0,-1,0,4,1,1,0
1529564239136945,-1,0,-1,3,-2,0,-1,-1
1529564239136945,-1,-3,-5,-11,-12,-5,-2,-3
1529564239152277,1,-2,-3,-1,2,1,0,-1
1529564239152277,1,0,1,1,1,-1,-1,-1
1529564239157889,-1,1,0,4,6,2,-2,0
1529564239157889,-2,0,0,-3,1,0,-1,-1
1529564239165867,0,1,0,3,2,1,-1,0
1529564239165867,0,-1,0,3,4,-1,0,-1
1529564239175334,1,-1,0,-1,0,-1,1,1
1529564239175334,1,0,-1,-3,1,1,-1,0
1529564239181283,0,0,1,4,0,-1,-2,-1
1529564239181283,-1,0,0,-2,-2,-1,-2,-1
1529564239197240,0,-1,0,-11,-5,-1,0,-1
1529564239197240,-1,-1,0,4,-1,-2,-1,-1
1529564239203464,-1,-3,-1,0,-2,-1,0,0
1529564239203464,-2,1,-1,-9,-11,-5,1,-1
1529564239218426,0,-1,0,2,-1,-1,-1,1
1529564239218426,-1,1,1,4,3,0,-1,0
1529564239225408,-2,1,2,2,2,1,1,1
1529564239225408,0,1,-1,6,3,1,-1,-2
1529564239234709,0,-1,-2,-6,-7,-1,-1,-2
1529564239234709,0,-1,1,-2,-3,-2,0,0
1529564239248435,0,0,0,1,1,-1,-2,-1
1529564239248435,-2,1,-2,-2,2,0,0,1
1529564239257322,-1,0,0,2,0,-2,0,0
1529564239257322,0,-1,0,3,3,3,0,0
1529564239263307,-2,-1,0,-8,-8,-1,0,-1
1529564239263307,-1,-2,-1,-13,-7,0,-1,0
1529564239278428,1,0,-2,1,2,0,0,0
1529564239278428,0,0,-1,-4,-5,-4,0,-1
1529564239286340,1,1,0,7,6,-1,0,-2
1529564239286340,0,-2,-2,-1,-3,0,0,-2
1529564239301462,0,-3,0,2,0,-1,-2,-2
1529564239301462,-1,1,1,5,6,4,-1,-1
1529564239308284,0,0,0,2,-2,-2,-1,-1
1529564239308284,-1,-1,-2,-11,-5,0,-3,0
1529564239317259,-1,0,-1,3,3,1,-1,0
1529564239317259,0,-1,0,0,1,1,-1,-1
1529564239323600,1,0,-1,3,2,0,-1,-1
1529564239323600,1,0,-2,2,-4,-1,1,1
1529564239338590,1,-2,-1,0,4,-1,0,-1
1529564239338590,-1,-1,-2,-6,-10,-1,0,-1
1529564239346183,-1,-2,-1,-3,0,-1,-1,-1
1529564239346183,1,-1,0,5,-1,-4,0,-1
1529564239361308,0,0,0,4,3,0,-1,0
1529564239361308,-2,-3,-1,-5,1,-1,1,-2
1529564239368289,2,-2,-3,-18,-11,0,0,-2
1529564239368289,0,0,0,-7,-5,-2,-1,-2
1529564239384250,-1,-1,1,4,3,0,1,1
1529564239384250,-1,0,-2,0,-2,-2,-1,1
1529564239385247,-1,0,1,4,5,1,1,1
1529564239385247,-1,-1,2,5,4,-1,0,0
1529564239398212,-2,1,-1,-6,-4,0,0,-2
1529564239398212,-2,-2,-1,2,-3,-4,-1,-1
1529564239406577,-1,1,1,-2,-1,0,-2,0
1529564239406577,0,0,-2,5,5,2,0,0
1529564239421471,0,0,0,1,-1,1,0,0
1529564239421471,0,1,-1,-3,0,1,1,-1
1529564239428132,-1,0,-2,2,1,-1,0,0
1529564239428132,-1,-1,1,0,-3,1,0,-1
1529564239444088,-1,0,-2,2,0,0,0,-1
1529564239444088,0,-2,-1,3,4,0,-2,0
1529564239445087,0,0,-2,-15,-8,0,-2,0
1529564239445087,0,-2,0,4,4,2,0,0
1529564239458234,0,-4,-2,-3,-2,-1,-1,-2
1529564239458234,1,-1,-1,3,0,-3,-3,-2
1529564239474191,-2,-2,-1,-5,-10,-3,-1,0
1529564239474191,-1,-1,-1,-1,0,0,0,1
1529564239481174,-1,-1,1,-6,0,0,-1,1
1529564239481174,-3,-1,-1,-2,-1,-3,0,-1
1529564239488334,-1,-1,0,10,4,-1,0,-1
1529564239488334,-1,-1,-2,-6,0,1,-1,0
1529564239504290,0,-1,-2,1,-1,-1,-2,0
1529564239504290,0,-1,0,1,0,-2,-1,0
1529564239505287,-2,-1,-1,-1,1,1,1,-1
1529564239505287,0,-1,0,5,4,0,0,-2
1529564239518076,-1,1,0,11,9,-1,0,-1
1529564239518076,-2,0,-1,-22,-15,0,-2,0
1529564239526360,0,-3,0,3,4,-1,-1,0
1529564239526360,0,-1,0,6,-1,-2,0,-1
1529564239541012,-1,-1,-2,-8,-14,-3,-2,-1
1529564239541012,-1,0,1,0,2,2,2,0
1529564239549041,0,-1,0,0,2,0,0,-1
1529564239549041,0,1,1,-3,1,-1,0,0
1529564239563950,-1,-2,0,6,1,-3,0,-3
1529564239563950,0,-1,-1,3,4,1,-1,1
1529564239564948,-1,-1,0,2,2,-1,-2,0
1529564239564948,-1,0,0,-2,-2,-2,-2,-3
1529564239578913,0,0,0,-4,0,1,-1,0
1529564239578913,1,-2,-1,-2,0,0,1,2
1529564239585893,-1,0,0,6,2,0,2,-1
1529564239585893,0,-2,-1,1,-1,-1,-2,0
1529564239601008,-3,-2,-2,-10,-6,-2,-2,-2
1529564239601008,0,0,1,3,4,-1,-1,-1
1529564239608232,1,-1,0,-4,-6,-1,-1,-1
1529564239608232,-2,0,-2,-4,-6,0,-1,1
1529564239624058,0,-1,-1,-2,-4,-3,-1,0
1529564239624058,-1,0,-1,5,4,0,-1,-1
1529564239625024,-1,-1,-1,3,4,1,1,-1
1529564239625024,-1,1,-1,-6,-2,-2,1,-1
1529564239639135,0,0,0,-1,-1,2,2,0
1529564239639135,-1,-1,0,0,-4,-2,-1,-2
1529564239645969,0,0,-1,-2,-2,0,1,0
1529564239645969,-1,-1,-1,3,2,-1,-2,-1
1529564239661927,-1,0,0,4,1,-1,0,-1
1529564239661927,2,-2,-1,-7,-1,1,0,1
1529564239669064,-2,1,0,1,-4,-2,-3,-1
1529564239669064,-2,0,-2,-13,-7,-1,-1,0
1529564239684277,0,0,0,5,5,1,-1,0
1529564239684277,-1,1,0,3,-2,-3,-1,0
1529564239685092,-1,1,0,1,3,0,-1,0
1529564239685092,1,-2,0,5,5,-2,1,-1
1529564239699057,0,0,1,8,1,1,0,1
1529564239699057,-1,-1,-3,-19,-11,-1,0,-2
1529564239706371,0,-1,0,2,3,-1,0,-1
1529564239706371,0,1,-1,2,-1,0,-1,0
1529564239721242,1,1,-1,-6,3,3,0,0
1529564239721242,-2,-2,2,10,6,0,1,0
1529564239728397,1,0,-1,-1,1,0,0,0
1529564239728397,-1,-3,-4,-8,-9,-4,-1,-1
1529564239744359,0,-1,1,0,3,-1,0,0
1529564239744359,0,0,0,5,3,1,-1,0
1529564239745363,-2,0,1,3,-2,-2,-2,-2
1529564239745363,-2,-2,-1,-9,-2,-1,-2,0
1529564239759034,-3,-2,-4,-9,-9,-3,-2,0
1529564239759034,-1,-2,-1,1,-1,-1,0,1
1529564239766450,-2,0,0,2,2,2,1,1
1529564239766450,-2,-1,1,5,3,-1,-1,-1
1529564239781215,-1,2,1,-4,-5,-7,-1,-2
1529564239781215,1,-1,-1,-1,-3,1,-1,0
1529564239788421,-1,-1,-2,2,6,-1,1,0
1529564239788421,-1,0,-1,-3,-9,0,0,-2
1529564239804477,-1,-1,2,8,6,1,0,0
1529564239804477,0,-1,-1,3,0,-1,-1,-1
1529564239805511,-1,-2,-3,-21,-8,-3,-1,-1
1529564239805511,-1,-1,0,2,-1,-1,-2,0
1529564239818297,-2,-2,-2,-2,2,1,0,-1
1529564239818297,0,-1,2,6,3,0,0,1
1529564239826276,-1,0,-1,3,-1,-1,-1,-1
1529564239826276,1,1,0,0,1,1,0,1
1529564239841233,-1,-1,-2,1,-3,-1,1,-2
1529564239841233,0,0,-1,-2,-1,-3,-2,-2
1529564239849248,1,-2,-2,3,0,-2,-1,0
1529564239849248,-2,0,-3,-9,-7,-1,1,-1
1529564239864175,0,0,-1,1,1,0,-2,0
1529564239864175,1,2,0,-1,-1,0,0,0
1529564239865173,-1,0,0,-5,-7,0,0,-1
1529564239865173,-1,-1,0,9,7,1,0,-1
1529564239878165,-1,-2,-1,-4,-6,-3,-1,0
1529564239878165,1,0,-2,-5,-1,-1,-1,0
1529564239886145,-1,1,1,14,9,1,1,0
1529564239886145,-1,0,-1,-17,-9,-1,0,0
1529564239901106,-2,0,-1,0,-1,1,0,-2
1529564239901106,-2,-2,-1,2,2,-1,1,0
1529564239908084,0,-1,-1,0,1,0,0,0
1529564239908084,-1,-1,-1,5,7,1,0,-1
1529564239924040,1,-1,-1,-5,0,0,0,-1
1529564239924040,-2,-1,-1,0,1,2,0,-1
1529564239925039,-1,-1,-1,-2,-2,-1,-2,-2
1529564239925039,1,-1,1,3,1,0,-1,0
1529564239938566,-2,0,1,-2,-1,-1,-2,0
1529564239938566,-1,2,0,8,5,0,0,2
1529564239945553,0,0,-1,-3,-5,-1,-2,-1
1529564239945553,-2,-3,-2,-13,-3,-1,-1,1
1529564239961019,-1,-1,-2,0,-6,-2,0,-1
1529564239961019,-1,-1,-1,-3,-1,0,0,-1
1529564239967883,0,-2,1,3,3,0,-1,0
1529564239967883,0,0,-1,7,3,-2,0,-1
1529564239983823,-2,-2,0,-3,2,0,0,1
1529564239983823,-2,-2,-1,-2,-3,-1,-1,-1
1529564239984799,-2,-2,0,0,-1,-1,-1,-1
1529564239984799,0,0,0,5,0,3,0,1
1529564239998762,0,-1,0,-9,-5,-1,-1,-2
1529564239998762,1,0,0,-1,-5,-2,-2,-1
1529564240005774,-1,-1,-2,-1,0,1,1,1
1529564240005774,0,-1,-3,-1,-3,-1,-1,0
1529564240020749,-3,-1,-1,5,2,1,-1,-1
1529564240020749,-1,-1,-1,-4,-1,0,-2,-1
1529564240028728,-1,-2,-1,-4,-2,-3,-1,0
1529564240028728,0,-1,0,2,1,-3,-1,-1
1529564240043642,1,0,-2,-1,0,1,-1,0
1529564240043642,1,-2,-2,-1,1,-2,-1,0
1529564240044640,-1,-1,-2,-3,-3,-1,0,-1
1529564240044640,-1,-2,0,3,1,0,0,-1
1529564240058647,0,0,-2,-3,-1,0,-1,-1
1529564240058647,-1,0,-2,-1,-1,-1,0,-1
1529564240065583,0,0,-2,-4,-3,0,0,0
1529564240065583,-1,0,1,2,-2,-2,-2,-1
1529564240080544,1,0,1,0,2,1,0,-1
1529564240080544,-1,-1,0,0,2,1,1,0
1529564240088560,0,1,-1,-2,-3,0,-1,-1
1529564240088560,0,-1,-1,1,3,2,0,-1
1529564240104517,0,-1,0,0,-1,-1,1,-1
1529564240104517,0,-1,0,1,3,-1,0,0
1529564240104517,-1,-1,1,-5,-4,-3,0,-1
1529564240104517,0,2,1,7,2,1,-1,0
1529564240118480,0,-1,-4,-19,-11,-3,-2,-2
1529564240118480,-1,-2,0,3,0,0,0,-1
1529564240125423,-1,1,-1,6,3,0,-1,-3
1529564240125423,0,-1,-2,-2,-1,0,0,0
1529564240140383,0,1,-1,4,2,0,-1,1
1529564240140383,0,-2,-1,1,-2,0,0,1
1529564240148416,0,0,-1,-2,-1,0,0,0
1529564240148416,-1,-1,1,0,0,-2,0,-1
1529564240163360,-1,0,0,2,-1,0,-1,0
1529564240163360,-2,0,-2,-5,1,2,0,-1
1529564240171338,-1,0,-1,3,0,0,-1,1
1529564240171338,0,-2,-1,-3,-2,-1,-3,-2
1529564240178325,0,-1,-1,0,-1,-5,-2,0
1529564240178325,0,0,-1,1,1,1,-1,0
1529564240186299,-3,-2,-2,-3,-4,-2,-2,-1
1529564240186299,-1,-1,0,-2,3,4,2,-1
1529564240201266,-3,-2,0,6,3,0,-1,-1
1529564240201266,0,0,-1,1,-2,0,1,-1
1529564240208248,0,-2,-1,-8,-5,0,0,1
1529564240208248,0,-2,1,8,9,0,2,1
1529564240223162,-1,0,-2,-7,-10,-1,0,-1
1529564240223162,-1,-1,0,-2,-2,-2,0,0
1529564240231186,0,-1,0,3,3,0,-2,0
1529564240231186,-1,-1,-2,-8,-11,-4,-1,-1
1529564240238122,0,-1,2,10,10,1,0,-1
1529564240238122,1,-1,-1,-2,-4,-1,-1,-2
1529564240246140,0,1,0,-1,0,1,0,-1
1529564240246140,-1,1,-2,4,-1,-2,-1,1
1529564240261062,-1,-2,-2,-3,0,-1,0,0
1529564240261062,-2,1,0,-4,-3,-2,-2,-1
1529564240268087,0,-1,-1,5,6,1,0,0
1529564240268087,0,-1,-1,-2,-3,-2,-2,-3
1529564240283041,-1,-2,-1,0,1,1,0,1
