timestamp,emg1,emg2,emg3,emg4,emg5,emg6,emg7,emg8
1528181755046672,-11,-5,-3,10,-4,-17,-6,-2
1528181755046672,3,3,-1,-6,16,4,9,-3
1528181755067617,-6,6,5,10,-1,7,-16,-2
1528181755067617,18,-12,-3,-10,-2,7,-7,-2
1528181755069650,13,17,-2,0,18,-7,8,-4
1528181755069650,-28,-24,12,4,-10,-1,0,3
1528181755081631,5,8,-5,5,-2,-6,5,0
1528181755081631,-20,6,-4,3,9,13,6,1
1528181755090553,14,1,1,-16,-55,-10,-11,-1
1528181755090553,6,-31,-12,11,-1,-10,-1,-2
1528181755105513,9,15,0,-27,-9,-17,-23,-9
1528181755105513,-3,-10,0,10,42,21,30,10
1528181755106510,26,28,-4,-6,12,0,2,0
1528181755106510,-32,-14,6,15,-13,8,7,4
1528181755127471,11,8,10,3,-14,5,-2,0
1528181755127471,-18,20,10,-6,-50,-19,-12,-7
1528181755129449,-27,-15,-3,3,49,5,-2,-3
1528181755129449,-15,8,-53,-37,-40,-5,-4,-9
1528181755141454,25,-14,27,18,66,1,5,2
1528181755141454,30,12,-50,2,-28,-18,-4,2
1528181755150410,-38,-9,25,-7,11,32,2,-1
1528181755150410,35,19,24,25,-81,-23,-6,2
1528181755165403,-71,-2,4,-26,54,7,17,-12
1528181755165403,42,-23,-17,0,23,1,9,17
1528181755166387,-3,-1,15,10,-50,8,-7,-4
1528181755166387,-6,-32,-21,3,34,-13,-29,-7
1528181755187295,64,46,8,19,-39,-8,40,29
1528181755187295,21,-10,20,-9,11,-3,-2,-2
1528181755189289,-86,-21,-33,-24,13,-5,-8,-26
1528181755189289,-51,12,27,51,-3,6,-11,-13
1528181755201257,-7,-26,-26,-46,17,16,1,3
1528181755201257,4,-9,-9,1,-28,-15,-26,-25
1528181755210233,46,1,-11,-6,30,6,-2,16
1528181755210233,52,6,19,17,51,13,6,-10
1528181755225192,4,-6,1,42,-12,-12,-8,30
1528181755225192,-26,-5,14,-31,-20,3,19,-11
1528181755226231,-1,4,-15,-6,-38,-26,-11,13
1528181755226231,16,10,-19,-13,0,19,-18,8
1528181755247137,2,-2,-12,-20,8,-13,-7,-26
1528181755247137,26,-21,-3,-4,-55,-23,-3,7
1528181755249131,-6,3,15,22,35,18,39,4
1528181755249131,-33,11,-5,-14,-26,-10,-42,-15
1528181755261124,1,-28,0,3,18,15,-1,-18
1528181755261124,10,24,17,15,79,26,24,11
1528181755270110,-55,-16,-14,-10,-29,1,-17,-2
1528181755270110,18,-1,-5,-39,-66,-20,27,16
1528181755285033,-25,-1,2,14,-63,-24,-18,-7
1528181755285033,-33,3,11,39,88,3,-3,-22
1528181755287028,48,-18,-8,-27,-1,11,-2,3
1528181755287028,0,16,1,-26,-19,15,-5,-2
1528181755307215,-24,-2,-8,-36,1,-25,-11,-6
1528181755307215,21,-5,7,16,-23,-5,6,42
1528181755309206,9,14,-17,21,18,6,17,-11
1528181755309206,-8,13,9,3,-11,4,15,6
1528181755321195,-14,-20,-4,7,-38,-14,-18,-15
1528181755321195,1,-4,4,5,77,32,0,-15
1528181755330150,-17,-10,-6,-6,-30,-20,-24,-28
1528181755330150,65,-2,2,7,-20,-27,-5,33
1528181755345110,-56,-36,-19,15,29,24,11,-12
1528181755345110,25,18,-7,-21,-17,-18,-12,3
1528181755347124,-28,-12,19,17,15,5,-3,3
1528181755347124,14,9,-6,-8,22,8,16,-9
1528181755368049,39,8,-1,1,14,-4,2,16
1528181755368049,-21,13,-7,-19,4,38,-8,-27
1528181755369047,11,-25,-5,5,-65,-40,6,19
1528181755369047,-7,-2,1,11,52,-9,1,15
1528181755382143,28,9,2,14,21,23,1,-3
1528181755382143,17,10,5,5,-18,7,0,5
1528181755389994,-46,13,2,-3,21,3,-6,-9
1528181755389994,-45,-29,-9,-5,-13,-9,8,-16
1528181755405948,50,14,11,-21,-29,-12,-11,13
1528181755405948,-31,-5,-13,-21,-49,-23,0,-14
1528181755418942,23,17,24,15,51,12,-9,2
1528181755418942,-11,-27,-19,18,23,11,7,-8
1528181755428137,23,15,-5,-15,-18,3,8,8
1528181755428137,-25,-16,18,22,-19,-11,-8,-3
1528181755429955,8,6,-3,-12,-11,-3,8,-6
1528181755429955,-4,11,9,-14,17,8,-10,14
1528181755440854,-26,10,9,20,0,2,1,-5
1528181755440854,-11,20,-7,-1,-8,-11,-7,-1
1528181755450097,46,-9,-11,21,-5,2,3,11
1528181755450097,-60,8,35,-27,24,9,3,-13
1528181755465061,-4,-37,-26,9,-18,-5,2,-3
1528181755465061,-17,-1,6,-6,2,-6,-8,2
1528181755471776,43,1,-4,-2,1,3,2,-4
1528181755471776,2,32,-5,0,-5,-4,-3,-3
1528181755488044,-12,9,3,-6,-6,-1,5,1
1528181755488044,-4,-5,4,3,5,1,-1,-1
1528181755489210,24,5,-11,-7,1,-1,0,3
1528181755489210,16,-14,-10,-4,-1,3,2,-2
1528181755500955,-27,10,6,-1,-7,-2,-10,-1
1528181755500955,12,-11,-1,2,4,-4,8,-1
1528181755509940,23,31,5,0,-5,-2,-3,3
1528181755509940,14,-33,-9,-3,1,0,-2,-8
1528181755533113,-1,-5,-6,-3,-4,1,-1,3
1528181755533113,-23,3,1,3,3,5,12,8
1528181755533867,-9,-18,12,-4,2,-6,-22,-2
1528181755533867,14,6,-2,3,2,-6,4,-4
1528181755554840,-48,-8,10,3,-3,4,4,3
1528181755554840,21,-38,-37,-7,-4,-5,-4,12
1528181755556805,-27,22,9,-5,-7,-7,-1,-12
1528181755556805,4,16,-5,5,6,17,18,10
1528181755577753,10,-8,8,-5,-9,-8,-6,-24
1528181755577753,15,27,0,-1,5,7,2,-8
1528181755579105,-4,-31,-12,-5,-4,-9,-20,38
1528181755579105,11,5,0,2,2,-23,1,-77
1528181755584730,-1,41,15,5,7,41,25,77
1528181755584730,-66,-79,-20,-5,-3,-1,-46,-57
1528181755591981,-22,15,4,-3,-4,-3,42,37
1528181755591981,97,-3,-3,-3,2,31,-3,32
1528181755607669,-43,-7,-12,-1,-3,-54,-33,-74
1528181755607669,-7,24,6,-4,-2,-23,20,18
1528181755609665,-38,7,1,4,-1,-6,-94,17
1528181755609665,76,31,27,23,23,77,103,55
1528181755629609,-5,79,-2,-7,7,50,33,-109
1528181755629609,-5,-40,12,10,-3,73,36,124
1528181755631606,-81,-57,-16,-11,-7,-18,37,-92
1528181755631606,78,40,3,7,54,-91,-40,92
1528181755644609,-61,-42,18,30,-29,97,32,123
1528181755644609,21,40,-32,-36,-5,-85,-89,-128
1528181755651552,29,41,23,-1,-9,46,121,-40
1528181755651552,-75,-63,11,33,2,28,-62,-117
1528181755667509,11,40,-34,-83,25,-79,-12,56
1528181755667509,62,-9,22,36,25,8,53,90
1528181755669504,55,4,8,75,-43,-3,-70,-41
1528181755669504,-24,31,-33,-43,-28,-39,-2,-47
1528181755690502,127,-18,-8,-24,-1,-28,-46,-33
1528181755690502,-111,-48,-9,-27,0,-2,-15,-17
1528181755691452,47,72,16,36,14,-6,9,35
1528181755691452,-41,11,-1,-58,-22,13,6,-11
1528181755704456,24,1,5,55,-5,-7,-4,5
1528181755704456,32,38,4,22,-4,7,3,-1
1528181755711446,-19,-40,-3,-40,0,-1,13,5
1528181755711446,-29,-7,7,17,6,-4,-18,19
1528181755727401,-20,-16,-4,-32,-1,-4,3,7
1528181755727401,-14,12,-6,-2,-11,-7,4,-17
1528181755729344,2,-15,-2,-1,5,-6,-14,5
1528181755729344,-7,-17,-14,18,-23,-4,-2,17
1528181755750289,5,-6,4,-19,7,-9,1,-17
1528181755750289,5,13,9,10,-7,2,3,-18
1528181755751286,2,-13,-5,-17,9,0,-10,10
1528181755751286,-14,-1,-3,-10,0,3,-2,8
1528181755764300,-19,-15,2,62,-10,-9,4,-25
1528181755764300,-5,-6,1,-58,-3,-6,-11,-4
1528181755773301,-2,-5,-13,-26,16,4,-3,7
1528181755773301,-6,7,-4,-13,-3,-3,-3,-1
1528181755786243,6,-7,12,19,-4,-5,-4,-7
1528181755786243,12,0,-1,-13,-9,-2,-10,12
1528181755795170,-13,-16,-8,0,8,-1,2,-8
1528181755795170,7,-17,12,23,-8,-15,-3,-3
1528181755810163,24,20,-7,-20,-2,-4,-16,-7
1528181755810163,-6,26,-12,8,1,13,8,5
1528181755812185,-32,-22,-4,-9,-1,4,17,-48
1528181755812185,-19,-25,-4,-1,-2,23,-30,33
1528181755833090,3,8,-6,-8,-6,-23,17,17
1528181755833090,-10,-11,14,17,14,25,3,-37
1528181755834065,26,31,2,-5,-3,-14,13,42
1528181755834065,4,13,6,-11,-6,-5,7,-20
1528181755846031,-29,-33,-13,0,-4,-49,-20,-9
1528181755846031,1,-15,-2,1,12,94,63,21
1528181755855010,18,-40,-5,-10,-2,-23,-33,11
1528181755855010,17,24,-5,2,1,-7,-21,-12
1528181755868971,24,-3,11,1,2,2,33,55
1528181755868971,-64,1,10,8,-2,-8,-22,-100
1528181755875951,-15,41,5,-2,-1,-7,89,110
1528181755875951,26,1,-9,-6,-1,24,6,-37
1528181755892906,35,-30,-2,2,8,27,14,19
1528181755892906,7,17,6,-1,-4,-2,-118,-102
1528181755893907,34,-6,-2,-2,2,11,77,83
1528181755893907,-85,22,2,4,-7,-41,-25,3
1528181755914862,83,39,17,12,0,-16,-89,16
1528181755914862,17,-79,-3,8,-7,-33,37,99
1528181755914862,-105,-2,-45,-32,13,39,-19,-128
1528181755914862,86,49,23,-19,0,-14,127,98
1528181755928811,-54,12,34,10,-7,-6,-16,-14
1528181755928811,10,-43,-12,-32,14,-30,-38,-45
1528181755936790,-2,-65,-56,-25,2,9,-68,-98
1528181755936790,-61,-69,-56,-26,-2,18,-10,-56
1528181755951783,-37,77,87,104,-27,10,7,-42
1528181755951783,43,6,-42,-81,32,-12,33,46
1528181755952748,12,-9,-17,54,-9,-5,-8,11
1528181755952748,4,-16,75,41,-11,4,-29,-9
1528181755974691,-11,-20,-49,105,-10,-4,24,9
1528181755974691,-7,50,-2,-62,-1,-15,-1,-1
1528181755975689,45,21,54,7,3,-1,-25,14
1528181755975689,-31,-12,-17,-8,-3,-9,-11,9
1528181755988918,-3,-25,-82,-45,-1,12,6,-29
1528181755988918,5,33,30,16,-23,-11,17,19
1528181755997677,28,-7,-15,-21,2,-8,-17,5
1528181755997677,6,20,-2,8,4,-1,-2,1
1528181756012629,-53,-27,-20,-63,-3,1,2,-32
1528181756012629,8,38,19,42,-2,-1,-1,7
1528181756012629,15,4,-9,-16,-6,-15,-33,8
1528181756012629,-8,-16,3,18,-4,8,22,-7
1528181756034539,11,-13,-6,-49,13,11,2,-11
1528181756034539,17,15,-16,23,-12,-15,4,25
1528181756035525,-20,13,39,25,-8,-3,-14,-11
1528181756035525,47,-14,-12,-22,1,-6,-14,-15
1528181756049489,-2,-5,-19,-28,3,-7,17,4
1528181756049489,-9,-8,20,24,-11,-26,-71,-60
1528181756050486,81,33,24,14,14,32,83,49
1528181756050486,-69,-17,-20,-15,1,31,-14,15
1528181756072670,2,-11,2,-17,-3,19,40,32
1528181756072670,18,1,-3,20,-9,-28,-48,2
1528181756072670,-66,-24,-5,0,12,18,-37,-85
1528181756072670,-17,-20,-16,0,4,18,31,-3
1528181756094631,51,-26,17,0,3,-28,-72,-8
1528181756094631,5,9,5,9,0,40,62,126
1528181756095365,-59,-7,-5,-10,-8,-31,-58,-65
1528181756095365,-36,22,3,2,-6,-16,11,-1
1528181756109587,9,7,-2,-10,7,-17,2,8
1528181756109587,-50,-59,-19,-5,-4,-8,3,-24
1528181756110325,25,-22,-4,2,-8,-17,-35,5
1528181756110325,44,28,6,9,-4,-14,-18,-26
1528181756132540,-8,20,6,-2,-15,2,-8,-15
1528181756132540,6,31,24,38,4,7,32,17
1528181756133265,-34,19,44,47,-10,-1,22,19
1528181756133265,6,-23,-81,-41,62,17,-9,-34
1528181756154969,18,-25,3,-59,-5,-5,10,41
1528181756154969,45,-38,9,-16,-14,-4,-12,-33
1528181756155534,-59,-27,-21,90,-10,-16,1,9
1528181756155534,56,24,63,65,-25,-14,-12,12
1528181756169848,-32,-49,-52,-72,40,24,-1,-23
1528181756169848,18,-2,-23,95,-6,-3,9,-10
1528181756170493,17,-5,-25,-83,2,-4,-2,17
1528181756170493,-18,-18,20,20,-31,-14,-12,-4
1528181756192634,-4,-7,4,13,-3,5,10,-11
1528181756192634,-21,13,66,9,-7,-6,0,-6
1528181756192634,34,16,-73,-38,-4,1,9,6
1528181756192634,-7,0,18,7,8,4,-7,9
1528181756214695,-16,8,-22,13,-8,0,-6,-15
1528181756214695,-1,16,-32,-24,16,5,10,4
1528181756214695,27,6,26,7,-3,0,-3,8
1528181756214695,-19,-30,-2,-27,-5,-12,-19,-14
1528181756230001,-26,57,3,5,-4,2,-1,-3
1528181756230001,15,12,-2,-1,-4,-7,20,-10
1528181756230654,57,13,9,-18,6,-1,-9,-4
1528181756230654,-70,-40,-15,-17,-4,-18,-5,6
1528181756252030,13,-8,16,23,-1,18,38,5
1528181756252030,30,36,-6,-14,-2,-15,-27,-14
1528181756253014,23,7,12,-12,-5,-21,-15,60
1528181756253014,-68,-6,-3,3,5,1,-20,-34
1528181756275213,15,13,14,19,-1,4,-5,11
1528181756275213,-22,-1,-16,-17,-1,9,-20,-18
1528181756275213,2,-38,-2,-6,1,0,23,18
1528181756275213,23,50,3,9,-2,9,42,5
1528181756290098,55,-27,-7,1,-1,11,13,-13
1528181756290098,-113,-50,1,-9,0,-16,-22,-11
1528181756290098,58,58,43,29,6,8,-12,24
1528181756290098,7,-39,-55,-21,0,7,16,-4
1528181756312173,4,38,24,-1,-1,-7,-36,-49
1528181756312173,25,20,1,-3,-6,-9,37,37
1528181756312854,-57,7,-3,2,-13,6,7,-28
1528181756312854,27,-5,29,2,6,0,8,6
1528181756334795,20,-6,-9,14,18,9,-10,32
1528181756334795,-5,-38,-18,-58,-7,0,-8,-10
1528181756335933,-36,-16,-1,2,-5,3,25,-13
1528181756335933,4,15,-3,-3,0,-15,-43,-4
1528181756350005,-58,3,17,20,-29,-11,10,-6
1528181756350005,-19,4,5,-40,31,18,-16,2
1528181756350005,10,-16,8,-67,21,2,13,-11
1528181756350005,-47,4,-42,-55,11,15,29,19
1528181756371724,5,10,25,39,-16,-16,-12,-4
1528181756371724,-3,15,-27,23,-18,-5,-6,5
1528181756372693,-31,-6,18,27,-19,-20,21,16
1528181756372693,-6,18,31,49,-10,7,-32,-3
1528181756394898,-37,0,-25,-65,15,0,1,-44
1528181756394898,14,32,-11,29,0,-44,-21,-6
1528181756395934,27,23,0,21,6,50,13,26
1528181756395934,4,6,22,-7,0,2,-1,14
1528181756409598,8,-18,-7,5,-16,-11,16,29
1528181756409598,5,-8,12,30,-5,13,17,-4
1528181756410597,-8,32,-13,-32,9,-4,-32,-47
1528181756410597,10,-2,3,26,-15,-28,3,28
1528181756432297,-4,27,-5,-30,1,-8,-2,-12
1528181756432297,-4,-32,0,-6,-2,-1,-5,-18
1528181756432954,57,-17,-13,2,-1,-3,-2,2
1528181756432954,-11,14,1,7,-8,0,15,4
1528181756455071,-10,-48,-10,-6,-3,-4,-28,-27
1528181756455071,7,14,6,55,-3,11,21,20
1528181756455071,-5,-22,-8,-25,-3,-6,-6,-20
1528181756455071,35,-1,-1,-13,5,-9,-15,-31
1528181756470203,-2,-6,5,24,0,13,27,39
1528181756470203,7,-6,1,15,1,18,11,5
1528181756470203,-18,-3,16,-16,10,-5,-14,6
1528181756470203,13,-5,-37,-21,-8,1,-7,-16
1528181756492097,-7,-9,13,34,-5,-6,-3,2
1528181756492097,1,2,-13,-27,9,10,6,-2
1528181756493094,-22,30,-2,1,1,-8,-11,-8
1528181756493094,13,4,10,-3,2,4,2,3
1528181756515155,11,-5,-5,6,2,4,-2,7
1528181756515155,9,-6,13,-10,-8,-4,-1,-3
1528181756515155,-5,-18,-13,12,1,-7,-17,-17
1528181756515155,5,-12,1,3,-4,1,-5,1
1528181756530112,4,8,2,0,-1,-9,-17,38
1528181756530112,5,10,14,-6,8,34,22,-28
1528181756530112,-7,-2,18,-2,-3,-6,6,5
1528181756530112,7,-3,-58,-2,-1,-3,-1,5
1528181756552223,4,0,-37,-18,2,-6,-15,-9
1528181756552223,5,-2,23,-27,-5,-7,-8,-1
1528181756552977,-2,-6,19,20,-2,0,4,4
1528181756552977,3,-6,-40,0,-3,-4,-5,-3
1528181756575133,-10,-16,16,-3,1,4,7,-13
1528181756575133,-2,-4,-61,-11,-4,-5,3,9
1528181756576005,-8,5,18,7,-5,-2,-2,-4
1528181756576005,4,-3,2,-6,-2,-2,-1,4
1528181756589190,-5,5,22,7,11,5,2,-5
1528181756589190,5,7,19,-3,0,-2,-1,3
1528181756590214,-3,-14,-15,-2,-5,-3,-8,2
1528181756590214,6,5,18,-5,2,2,6,-5
1528181756612370,-2,-1,-27,-3,-1,2,5,1
1528181756612370,-2,2,4,4,2,-5,-6,0
1528181756613342,-2,-1,18,5,0,3,4,0
1528181756613342,2,-4,15,-2,-4,-2,-3,-1
1528181756634081,-9,0,-28,-11,-5,-2,-1,-10
1528181756634081,2,-1,-16,-3,0,-5,4,4
1528181756635067,-2,-3,-33,4,1,0,-1,-3
1528181756635067,3,5,90,14,4,0,-3,1
1528181756649438,-3,-20,-83,-36,-7,-4,1,-6
1528181756649438,-3,-5,79,-10,-5,-4,-4,-1
1528181756650028,-3,-5,-65,-10,-4,-2,0,-1
1528181756650028,4,14,57,18,3,2,-1,0
1528181756671968,2,11,44,18,3,0,1,-3
1528181756671968,-1,-6,-64,-5,-3,-3,-2,1
1528181756672966,-5,-16,-14,-14,-4,0,-1,-2
1528181756672966,-2,-9,-13,-9,-1,-3,-1,2
1528181756695117,1,11,6,0,-2,-2,-1,-5
1528181756695117,3,5,-20,7,3,1,0,5
1528181756695117,1,-3,45,10,2,1,-1,1
1528181756695117,0,-3,-66,-5,1,0,-2,0
1528181756718124,-1,-1,47,3,-1,-2,0,-3
1528181756718124,-1,1,48,-3,-4,-4,-3,-2
1528181756718124,0,2,-1,1,-1,-1,0,1
1528181756718124,3,10,27,2,-1,-3,-2,-2
1528181756733140,-3,-9,-48,-2,-1,-3,-1,-4
1528181756733140,-8,-23,-13,-23,-4,-2,-1,-4
1528181756735082,-3,-1,31,-11,-6,0,-1,-2
1528181756735082,0,0,4,-2,-3,0,-2,-2
1528181756749052,2,11,54,17,3,0,1,1
1528181756749052,0,1,-17,7,0,-1,-1,-1
1528181756750041,-1,-4,-46,-6,-3,-2,0,0
1528181756750041,1,3,34,3,-1,0,0,-1
1528181756763006,-5,-6,-20,-8,-1,-1,-2,-2
1528181756763006,3,9,46,14,1,-1,2,4
1528181756769241,-5,-2,-41,-5,-3,-3,-4,-1
1528181756769241,2,7,101,17,-1,0,1,1
1528181756783964,-6,-25,-69,-35,-7,-2,-2,-5
1528181756783964,-1,-7,-33,-8,1,1,-1,-1
1528181756791976,1,9,29,19,3,0,1,0
1528181756791976,1,-1,30,4,2,-1,-2,-2
1528181756807435,-3,-2,-50,-12,-6,-4,-3,-1
1528181756807435,4,5,-29,9,2,2,0,-1
1528181756808371,-1,-8,-59,-23,-5,-5,-3,0
1528181756808371,-6,-17,-54,-3,-2,-2,-5,-7
1528181756824145,4,10,69,15,-2,1,0,-1
1528181756824145,-7,-11,-9,-14,-4,-7,-4,-2
1528181756829135,3,2,33,9,2,0,-1,-1
1528181756829135,-2,-3,-19,-4,-2,0,0,0
1528181756844414,-4,-8,10,2,-2,-2,-2,-4
1528181756844414,3,0,66,-9,-1,0,-3,-2
1528181756852119,-3,-5,-32,-2,-5,-2,0,-1
1528181756852119,-2,-5,-3,-7,-5,-3,-2,0
1528181756867030,-1,-6,28,9,3,1,-3,-2
1528181756867030,1,6,11,14,2,0,0,-1
1528181756868028,-3,-7,-32,-10,-5,-3,-2,-3
1528181756868028,0,6,11,-16,-3,-6,-4,0
1528181756882989,-2,-12,-23,6,1,2,0,1
1528181756882989,-1,12,2,7,-1,1,1,-1
1528181756888973,-1,3,28,-1,4,-1,-2,-2
1528181756888973,0,-2,-55,-17,-9,-5,-2,-4
1528181756904556,-2,5,11,11,4,-1,0,-3
1528181756904556,1,-8,-21,-5,-2,0,0,-1
1528181756911259,-2,3,18,14,0,-1,1,-2
1528181756911259,-1,-4,24,-3,-2,-3,-1,-2
1528181756927460,-2,15,40,2,2,-2,-1,0
1528181756927460,0,12,-14,4,0,-1,-1,-1
1528181756928448,2,2,43,1,-2,1,0,-1
1528181756928448,-2,-12,-13,2,4,-1,-1,0
1528181756943174,-3,8,15,0,-3,-1,-2,-3
1528181756943174,1,-9,-7,-2,-5,-4,0,0
1528181756949513,-2,2,45,5,2,1,0,1
1528181756949513,-2,2,-53,-6,3,1,-1,0
1528181756964118,1,-9,-10,-5,-1,-1,0,0
1528181756964118,-1,5,-22,-1,-3,-2,-2,1
1528181756971099,0,-3,22,8,-2,0,-2,-4
1528181756971099,1,0,2,13,2,2,-1,0
1528181756987054,-2,-4,-29,-37,-5,-2,0,-1
1528181756987054,-3,-7,12,1,-3,-2,-4,-1
1528181756988270,3,6,-9,0,-1,-2,1,-1
1528181756988270,-2,-6,-8,3,2,2,0,0
1528181757003011,2,20,27,15,-1,1,-1,1
1528181757003011,-3,10,-8,-15,-4,-2,-1,-2
1528181757008995,0,-4,7,2,-3,-3,-3,1
1528181757008995,-4,-10,-1,-7,-4,-2,0,-3
1528181757023956,1,33,14,-4,8,2,1,0
1528181757023956,3,-7,-15,-11,0,-1,-1,-1
1528181757031937,-3,-3,-4,2,5,0,0,-3
1528181757031937,2,12,5,0,-5,-3,-2,0
1528181757047100,-2,-12,-29,9,-4,-4,-2,-2
1528181757047100,-2,-2,6,6,3,1,-1,-2
1528181757047891,2,1,-10,-16,-2,-2,-2,-2
1528181757047891,0,-6,12,-4,3,-1,-1,-1
1528181757062851,-2,-9,27,2,-5,0,0,-1
1528181757062851,-1,-9,-23,-5,-3,-4,-2,1
1528181757068838,-3,-2,19,5,0,0,2,-1
1528181757068838,1,1,-19,2,-1,1,1,0
1528181757083795,-1,-7,-17,-5,-3,-4,-3,0
1528181757083795,-3,3,13,-4,1,1,0,1
1528181757090815,-2,-4,-1,-3,-4,-3,-2,-1
1528181757090815,-2,-1,-19,-2,-2,1,-1,-1
1528181757106766,-3,-7,5,4,-1,-3,-1,-2
1528181757106766,-2,-4,3,7,-1,0,-1,-1
1528181757114765,-1,-1,-12,-4,-1,-1,0,-2
1528181757114765,-2,2,10,3,-2,-1,-1,1
1528181757130716,0,-5,1,5,-3,2,1,1
1528181757130716,-2,2,-4,-33,-2,-1,0,-1
1528181757131667,-1,-1,4,6,10,6,2,1
1528181757131667,1,2,1,31,-1,-2,0,0
1528181757143638,1,-1,-6,-39,1,0,1,-1
1528181757143638,1,0,9,3,3,0,-1,-1
1528181757151996,-3,0,-7,-32,-11,-2,-1,1
1528181757151996,0,-6,-54,-4,2,1,0,1
1528181757166575,-2,-2,9,18,0,-2,0,-2
1528181757166575,0,0,6,14,1,0,0,0
1528181757174815,1,-2,-13,14,-1,-1,-1,0
1528181757174815,-2,-4,-1,-11,0,1,-2,-1
1528181757181883,0,-1,3,4,-2,-3,-2,-1
1528181757181883,-2,0,1,-3,0,0,-1,-2
1528181757188596,0,0,0,4,-2,-4,-3,0
1528181757188596,1,-2,21,-6,-3,-2,-2,-4
1528181757203552,-1,-2,-9,-11,-2,-2,-1,-1
1528181757203552,-2,-3,8,11,-2,-2,1,-2
1528181757211536,-4,7,-1,3,2,-1,0,-2
1528181757211536,-3,-2,3,-10,-2,-3,-1,-1
1528181757226491,0,-2,-2,4,-2,-2,-2,0
1528181757226491,-1,-4,3,4,0,-1,-2,-2
1528181757242459,-2,-4,-3,-3,-3,-1,-1,-3
1528181757242459,-2,-2,-3,-10,-2,0,-2,-2
1528181757244443,-1,-1,3,4,0,-3,-1,-1
1528181757244443,-2,0,-5,1,-2,-2,-1,1
1528181757248462,-2,-4,-3,-4,-2,-2,-2,-3
1528181757248462,-1,-2,7,1,-2,-1,-1,-2
1528181757264390,-1,-4,-5,2,0,0,-1,-3
