timestamp,emg1,emg2,emg3,emg4,emg5,emg6,emg7,emg8
1528190211625646,0,-2,0,-1,-2,-1,0,-1
1528190211625646,-1,-2,1,-2,-2,0,-2,0
1528190211634622,0,-2,-2,-2,-1,-1,-1,-1
1528190211634622,-1,0,-1,-1,-1,0,-2,-1
1528190211636617,-2,-2,0,-1,0,0,-1,0
1528190211636617,0,-1,-2,-2,0,-2,-2,-1
1528190211657560,-1,-2,0,-1,0,-1,-1,-2
1528190211657560,0,-1,-2,-1,-1,0,0,-1
1528190211659554,-2,-2,0,-1,-1,0,0,-3
1528190211659554,-2,0,-1,-1,-2,-2,0,-2
1528190211680498,-1,0,1,-1,0,-2,-3,-1
1528190211680498,-2,-1,0,-1,0,-3,-1,-2
1528190211682493,-2,1,-1,-1,-2,-2,-3,-1
1528190211682493,-2,-1,-1,0,0,-1,-2,0
1528190211695459,0,-1,0,-2,-2,-1,-1,-1
1528190211695459,-5,-4,0,-1,-2,-1,-2,-1
1528190211696457,2,0,-2,-2,-1,-1,0,1
1528190211696457,-1,-1,-2,-2,-1,-2,1,-1
1528190211717401,-2,-1,-2,0,0,-2,-1,-2
1528190211717401,0,-2,-2,-1,0,-1,-2,-1
1528190211719395,0,-2,-1,1,-1,0,0,-1
1528190211719395,0,0,-2,0,0,0,-1,-1
1528190211731364,-2,-1,0,0,-1,-2,0,-1
1528190211731364,0,-1,-1,0,0,1,0,-2
1528190211740339,-1,-1,-1,-1,0,-1,0,0
1528190211740339,-2,-2,1,-1,-1,0,-1,0
1528190211755302,-2,0,-1,-2,-1,0,-1,0
1528190211755302,0,0,-1,-1,-2,-1,-1,-1
1528190211756297,-1,0,0,-2,-1,-2,-1,-2
1528190211756297,-3,-2,-1,0,-2,-1,-3,-3
1528190211777241,-1,-2,-1,-1,1,-3,-1,0
1528190211777241,0,0,-2,-2,0,-2,0,1
1528190211779236,-1,-1,-2,-1,-1,-1,-1,-2
1528190211779236,1,0,-2,-1,0,-1,-2,-3
1528190211791204,0,-2,-2,0,-3,-1,-1,-1
1528190211791204,-1,0,1,-2,0,-2,0,1
1528190211800180,-1,-1,-1,-1,-2,0,-1,-2
1528190211800180,0,-1,-1,-1,-1,1,0,0
1528190211822121,0,-1,-1,0,-1,-2,0,-1
1528190211822121,-1,-1,-1,0,-2,-2,-1,0
1528190211824114,0,-1,0,-1,-2,-1,-3,-1
1528190211824114,0,0,-2,-1,-2,-2,-1,-1
1528190211837081,-2,-1,-3,-1,-1,1,0,-2
1528190211837081,0,-2,-1,-1,-2,0,0,-1
1528190211839076,0,1,0,-2,1,0,1,-1
1528190211839076,-1,-1,0,0,-2,-1,-1,0
1528190211851042,-2,-4,-1,0,-1,-1,-1,0
1528190211851042,3,4,-1,1,-1,-2,-1,0
1528190211861017,-1,-2,0,-1,-1,-1,-2,-2
1528190211861017,0,-2,-1,-2,0,-2,-3,-1
1528190211874980,-3,1,-1,-1,-1,-1,-2,-1
1528190211874980,-2,-2,-1,0,-2,0,-2,-2
1528190211876973,0,-1,-1,0,-1,-1,-1,-1
1528190211876973,-1,0,0,-2,0,-2,-1,-1
1528190211897919,0,-2,-1,-1,-1,0,-1,0
1528190211897919,-1,-1,-3,-1,0,-1,0,0
1528190211898915,1,-1,-1,0,-2,-1,-1,-2
1528190211898915,-1,-1,1,-2,-2,-2,-1,-1
1528190211910884,0,1,-2,0,-1,-2,-1,-1
1528190211910884,-3,-1,-1,0,-2,-1,-2,-2
1528190211919860,1,-1,-2,-1,-2,-1,-1,-1
1528190211919860,-1,-1,-1,-1,-2,0,-1,-2
1528190211935815,-1,0,-1,-2,-1,-1,0,0
1528190211935815,-2,-2,-1,-1,0,-2,-2,-2
1528190211936813,-1,-1,-2,-1,-1,-2,-1,0
1528190211936813,-2,-1,-2,-1,-2,0,0,-1
1528190211964740,0,3,-1,-1,0,0,-1,-1
1528190211964740,-3,-2,0,-2,-1,-2,0,-1
1528190211966734,-2,-1,-2,-1,-2,-2,1,0
1528190211966734,-1,0,-1,0,-2,0,0,0
1528190211970723,-2,-2,0,-2,-1,-1,-2,-2
1528190211970723,-1,0,-2,-1,0,0,-2,-1
1528190211979699,-1,1,-1,-2,-1,-2,-1,-2
1528190211979699,0,-2,-1,0,0,-2,0,-2
1528190212002638,0,-2,-2,0,-1,-1,-3,0
1528190212002638,0,-2,-1,-2,-1,-1,-1,-2
1528190212003670,-2,0,-1,-1,-2,0,-1,0
1528190212003670,0,-1,-1,-2,1,-1,-2,-1
1528190212017825,-2,0,-3,-2,-1,0,1,-1
1528190212017825,-1,-2,-1,0,-1,-1,1,-1
1528190212019843,-2,-2,-1,0,-1,-1,-1,0
1528190212019843,-1,0,-1,0,0,-2,-1,0
1528190212031825,0,0,0,0,-2,-1,0,-1
1528190212031825,-1,-1,-3,0,0,-1,0,-1
1528190212040537,0,-2,0,-1,-1,0,0,-2
1528190212040537,-2,-3,-1,0,-1,0,0,-2
1528190212055813,3,2,-2,0,0,-1,-1,0
1528190212055813,-2,-1,-1,-1,-1,0,0,-1
1528190212056502,-1,-2,-1,-1,0,0,-1,0
1528190212056502,-2,-2,-1,0,-1,-1,-1,1
1528190212077439,-2,-3,-2,-2,-1,-1,0,-3
1528190212077439,-1,-4,-2,-1,-1,-1,-1,-1
1528190212079433,-3,-4,-1,-1,1,-2,-2,-1
1528190212079433,2,3,-1,-2,-2,0,-1,-1
1528190212091400,0,-1,0,-1,-1,0,-1,1
1528190212091400,0,0,-1,-1,-1,-3,-1,-1
1528190212100376,-2,-1,-3,-1,-2,-1,-1,-1
1528190212100376,-1,-3,-3,-1,0,0,-2,-2
1528190212121319,1,3,1,-1,-2,-1,-1,-1
1528190212121319,-2,-1,1,0,-1,0,-1,-2
1528190212130297,-3,-5,-1,0,0,-2,-2,-2
1528190212130297,2,3,-1,1,-2,-1,0,-1
1528190212138321,-2,-4,-2,-1,-2,-2,-2,-2
1528190212138321,-3,-3,-1,-2,0,-2,-1,0
1528190212139273,-1,2,0,-2,-2,-1,-1,-1
1528190212139273,-3,-3,-2,-1,-1,-1,-1,-1
1528190212151240,-3,-2,0,0,-2,-1,-1,-3
1528190212151240,-2,1,0,0,-2,-1,-2,0
1528190212160217,0,0,0,0,-1,-2,-1,-1
1528190212160217,-1,-2,-1,-1,-1,-2,-1,-1
1528190212175177,0,-1,-1,0,-1,-2,0,-2
1528190212175177,0,0,-1,-3,-2,-1,-2,-2
1528190212181579,-2,0,-2,0,0,-1,0,-1
1528190212181579,-2,-1,1,-1,-1,-2,-3,-1
1528190212213089,-2,-4,-1,0,-1,-2,0,-1
1528190212213089,2,5,-1,0,-2,-1,0,1
1528190212215073,0,0,0,0,0,-1,0,-1
1528190212215073,0,0,-1,0,1,-2,-1,-2
1528190212216220,0,-3,-1,-2,-2,-1,-1,-2
1528190212216220,-1,-3,-2,-1,-1,-1,-1,-1
1528190212221327,-3,-3,-4,-3,-2,0,-2,0
1528190212221327,4,6,0,-1,-3,0,-2,-1
1528190212242699,-3,-1,-1,0,-1,0,-1,-1
1528190212242699,0,-3,0,-2,-2,-1,0,-1
1528190212265750,1,-1,-1,-1,-2,0,0,0
1528190212265750,-2,-6,-3,0,-1,-1,-2,-1
1528190212266504,-2,0,-2,-2,-1,-1,0,0
1528190212266504,-2,-2,-1,-1,0,0,0,-2
1528190212268498,1,0,0,-2,0,-1,-1,-2
1528190212268498,-3,-3,0,-1,-3,-1,0,-1
1528190212295427,0,-1,-1,-1,0,-1,-1,-1
1528190212295427,-1,-1,1,0,-1,-1,-2,1
1528190212296423,1,0,0,0,-2,-2,-2,-2
1528190212296423,-2,-1,-1,-1,-1,0,-2,0
1528190212302670,-1,-1,-2,0,-1,-1,0,-1
1528190212302670,-2,-2,-2,0,0,-1,1,-2
1528190212304402,-1,0,-1,0,-1,-1,-2,-1
1528190212304402,-1,-1,1,1,-2,0,0,0
1528190212316639,-2,-2,-2,-2,-2,-1,0,0
1528190212316639,4,6,0,0,-1,-1,-3,-1
1528190212325618,0,-2,-1,-1,-2,0,0,-2
1528190212325618,-1,-2,-1,-3,0,-2,-2,-1
1528190212339700,-1,-1,-1,-2,-1,-2,0,1
1528190212339700,-4,-7,-4,-2,-2,-1,0,0
1528190212364514,0,1,-1,0,-1,0,-2,-1
1528190212364514,-1,-1,-1,-1,-1,-2,0,-2
1528190212365511,1,-1,0,-2,0,0,-2,-2
1528190212365511,-2,-1,0,0,0,-2,-1,-2
1528190212368764,-3,-2,-1,0,-1,-3,1,-1
1528190212368764,-2,-1,-2,-1,-1,-1,1,-2
1528190212376744,0,-1,0,1,-2,0,-2,0
1528190212376744,-2,-1,0,-1,-2,-2,-1,0
1528190212400497,0,-1,-2,-2,1,-1,0,0
1528190212400497,2,2,0,-1,-2,0,-1,0
1528190212407769,-2,0,-1,-2,0,-1,0,-2
1528190212407769,0,1,-1,0,-2,-1,-2,0
1528190212408987,-1,0,-1,-2,-1,-2,-1,0
1528190212408987,-2,-3,-2,-3,-2,0,-1,1
1528190212423011,-1,0,-1,-1,-1,0,0,0
1528190212423011,-1,-3,0,-2,-1,0,0,-1
1528190212423675,-1,0,-2,-1,-1,0,-1,-1
1528190212423675,-2,1,-1,-1,-1,-1,-1,-2
1528190212436481,-4,-3,0,-1,-1,-2,-2,-1
1528190212436481,0,2,-1,-1,1,1,0,-2
1528190212467982,-1,-2,0,-2,-1,-1,-2,-2
1528190212467982,2,-3,-2,-1,-1,1,-1,0
1528190212468993,-2,-2,-1,0,-1,-1,1,-2
1528190212468993,-2,-2,-1,-1,-2,-1,-1,-2
1528190212470974,-3,-2,0,-1,-1,0,0,-2
1528190212470974,-4,-2,1,-1,0,-1,-2,-2
1528190212488925,-1,2,-3,-1,-1,-1,-2,-1
1528190212488925,0,-1,-2,-1,-1,-2,-1,-2
1528190212497953,-2,-1,1,-1,-1,-2,-1,0
1528190212497953,-1,0,0,-1,0,-2,-1,-2
1528190212498910,0,-2,-1,-1,-1,-1,-2,-1
1528190212498910,0,-1,-1,0,-1,-1,-1,-1
1528190212504899,-2,-1,-3,-1,-1,-1,-2,0
1528190212504899,0,-2,-4,0,-1,0,0,1
1528190212518900,0,0,-1,-1,-1,-1,-3,0
1528190212518900,-2,-3,-1,-3,-1,0,0,-1
1528190212527821,3,5,1,-2,-1,-2,-2,-3
1528190212527821,-1,0,-2,-2,-3,-2,-1,-2
1528190212542833,-2,-4,-2,-2,-1,-2,-1,-1
1528190212542833,-2,0,-1,-1,-2,-2,-2,0
1528190212543799,-3,-1,-2,0,0,2,0,-1
1528190212543799,-2,-4,-1,0,0,0,-1,-1
1528190212555798,3,1,-1,-3,0,-1,-1,-2
1528190212555798,-2,-1,-2,-1,1,-2,0,-1
1528190212572728,-3,-2,0,-2,0,-3,0,-3
1528190212572728,-1,2,0,1,-1,-2,-1,-1
1528190212587718,-2,-2,-3,-2,-2,-3,-2,1
1528190212587718,1,0,-1,-1,-2,-1,-2,-2
1528190212603620,0,-4,-1,-1,-1,0,-2,0
1528190212603620,-1,-2,-1,-2,-2,-1,-1,1
1528190212603620,-1,1,-1,1,-1,0,-1,-2
1528190212603620,-5,-6,-2,-2,-1,0,-1,-1
1528190212605651,2,2,-1,0,-4,-2,-2,0
1528190212605651,-2,0,-1,0,0,-1,-1,-3
1528190212616586,-2,-1,1,-1,-1,-3,0,1
1528190212616586,-2,-3,0,0,-1,-2,-2,-1
1528190212625561,0,-3,-2,0,-3,0,-1,-2
1528190212625561,2,4,-2,-2,-2,-1,0,-2
1528190212639549,-1,-1,1,0,-2,-1,-1,-2
1528190212639549,1,1,-1,-1,0,0,-2,-2
1528190212655481,-1,-1,-2,0,-1,-3,-1,0
1528190212655481,-3,-3,0,-1,0,0,-1,0
1528190212662462,-1,-1,-2,1,0,0,-1,0
1528190212662462,0,-1,-1,-1,0,0,-1,-1
1528190212664456,4,4,0,0,-1,-1,-1,-1
1528190212664456,-2,-4,0,-1,-2,-1,-2,-2
1528190212692436,-2,-1,-2,-2,-1,-1,-1,-1
1528190212692436,-4,-4,-1,0,-3,-2,-2,-1
1528190212694376,-3,-3,-1,-1,0,1,-1,2
1528190212694376,1,0,-3,0,-1,-1,-1,1
1528190212706404,1,2,-1,0,-1,-2,0,-1
1528190212706404,-1,-1,-4,-2,-2,-1,1,-2
1528190212715322,-2,-1,0,-1,-2,-2,-2,-2
1528190212715322,0,0,-1,0,-1,-2,-1,-1
1528190212722354,-3,-4,-1,-1,-1,1,-1,-2
1528190212722354,2,2,0,-1,0,0,0,1
1528190212736264,-3,-2,-2,-2,-3,0,1,0
1528190212736264,0,0,-2,-1,-1,-1,-2,-2
1528190212737261,0,-1,-2,-3,-1,-2,-1,-2
1528190212737261,1,1,0,1,-1,1,-1,-1
1528190212745241,0,-2,-2,-2,-1,-2,-2,0
1528190212745241,-1,-2,-1,-1,1,-1,-1,1
1528190212767236,0,-1,0,0,-1,-1,0,0
1528190212767236,0,0,-1,-1,-2,-1,0,0
1528190212769177,-1,-2,-2,-2,0,-1,-2,-1
1528190212769177,-2,-1,0,-1,-2,-1,-1,-1
1528190212782219,-1,-1,0,0,-1,0,-1,-2
1528190212782219,-1,-2,0,-1,-3,-2,-1,-2
1528190212797102,-1,1,0,0,-2,-1,0,-1
1528190212797102,2,0,0,0,-1,-1,0,0
1528190212798103,-2,0,-1,-1,-1,-1,0,0
1528190212798103,-1,-1,0,1,-1,-1,0,-1
1528190212805081,-2,-4,-2,-2,-1,1,-2,-1
1528190212805081,-2,-1,-1,-3,-2,-1,0,-3
1528190212820056,-1,-2,-2,0,-1,-1,0,1
1528190212820056,1,-1,0,0,0,0,-1,-1
1528190212842359,-1,-2,-1,0,0,-1,0,-2
1528190212842359,-4,-5,0,-1,-1,-1,-2,-1
1528190212850123,-1,-1,-2,-1,-1,0,-2,-1
1528190212850123,0,-1,-2,0,-1,-1,-2,-1
1528190212852344,0,-1,-1,0,-1,0,0,-1
1528190212852344,0,-1,-2,0,0,0,0,-2
1528190212865363,-2,0,0,-2,0,-3,-2,-2
1528190212865363,0,-1,-2,-1,2,-1,-1,-1
1528190212866593,0,-2,0,0,-1,-1,0,-1
1528190212866593,1,-1,-1,0,-2,0,-2,-2
1528190212879612,0,0,0,0,-2,-1,-2,-1
1528190212879612,-1,0,-2,-2,-2,0,-1,-2
1528190212887567,-2,-3,-1,-2,0,-1,-1,-2
1528190212887567,-1,-1,-1,-3,-2,-1,-1,0
1528190212903348,-1,-1,0,2,-1,-2,-1,-1
1528190212903348,-1,-1,0,-1,-1,-2,1,-2
1528190212904260,-2,-1,0,0,-1,-1,-1,-1
1528190212904260,-3,0,-2,2,-1,-1,-2,0
1528190212916227,0,0,0,-2,-1,-1,-2,0
1528190212916227,0,0,-1,-2,-2,1,-2,-1
1528190212941178,-1,-1,-1,-1,0,-1,-2,-1
1528190212941178,0,0,-2,-1,-2,0,-1,0
1528190212942986,-2,-3,-1,-1,1,0,-2,-1
1528190212942986,-2,-1,0,0,0,-2,-1,-2
1528190212946505,0,-1,-1,0,0,-2,0,-2
1528190212946505,0,-1,0,-1,0,-2,0,-1
1528190212962467,-2,-1,-1,-1,-4,0,-1,-3
1528190212962467,0,2,-2,-2,-2,-2,-2,0
1528190212964218,-1,0,-2,0,-2,0,0,-1
1528190212964218,-1,-2,-2,-2,0,-1,0,-1
1528190212985417,-1,0,-1,-1,-1,-1,-1,-2
1528190212985417,-1,-2,0,-1,-1,0,-1,0
1528190212987375,0,0,-2,-1,-1,0,-1,0
1528190212987375,-3,-1,0,-1,-2,-2,-1,0
1528190212999127,-1,-1,-2,0,-1,-1,0,0
1528190212999127,-1,-2,-1,0,-1,-1,-2,-1
1528190213006132,0,0,0,-1,0,-1,0,0
1528190213006132,1,0,-2,-1,-2,-1,-2,-1
1528190213022299,-1,0,0,-1,0,-1,-1,-1
1528190213022299,-2,-2,-1,-2,-1,-3,-2,-2
1528190213028621,-1,-1,-1,-1,-1,-2,-1,-1
1528190213028621,-1,0,2,0,0,0,-1,-3
1528190213045310,0,-1,-1,-1,-1,-1,0,-1
1528190213045310,0,1,-2,0,0,0,-1,0
1528190213046306,-3,0,-2,-1,-2,-1,-2,0
1528190213046306,-1,-1,0,-1,-2,0,-1,-1
1528190213067429,-1,0,-3,-2,0,-2,-1,1
1528190213067429,-1,-1,0,1,-2,-1,0,-1
1528190213084464,-1,-2,-1,-2,-1,-2,-2,-1
1528190213084464,-10,-5,0,0,-1,0,-1,-2
1528190213086204,5,2,0,-2,-1,-1,-1,0
1528190213086204,0,0,-1,-1,0,-1,0,-1
1528190213106479,1,0,1,0,0,-2,-1,0
1528190213106479,0,-1,-2,-2,-1,-2,0,-1
1528190213106479,-4,-3,-3,-2,-2,-2,-1,-3
1528190213106479,-6,-2,2,1,0,0,1,-3
1528190213108136,-1,-2,-4,-2,-1,-2,0,-3
1528190213108136,0,-1,-1,-1,-1,-1,-1,-2
1528190213128351,1,0,1,-2,-1,-2,0,0
1528190213128351,-1,-2,-1,-2,-2,-1,-3,-1
1528190213129081,-1,0,3,-1,0,0,0,-1
1528190213129081,1,-2,-2,-1,0,-2,-4,-1
1528190213143045,-3,1,-2,0,-1,-2,-1,-2
1528190213143045,-2,1,0,2,0,-1,-2,-1
1528190213144040,1,-1,-1,-1,-1,0,-1,1
1528190213144040,1,-1,-1,-1,-1,-1,-2,0
1528190213165323,1,-1,-2,0,0,0,1,-2
1528190213165323,1,0,-2,-1,0,0,-3,0
1528190213166979,-1,-1,-2,-2,-1,-2,-2,-1
1528190213166979,0,0,-1,-1,-2,-2,1,0
1528190213189064,-3,-5,-2,0,-2,-1,-1,-2
1528190213189064,4,1,0,-1,-2,-1,0,-2
1528190213189934,-2,-1,-1,-1,-1,-3,0,-1
1528190213189934,-1,0,0,-2,0,-2,-1,-1
1528190213202190,-3,-1,1,-2,0,-2,-1,0
1528190213202190,1,-2,-2,-2,-1,-1,0,-1
1528190213202882,0,-1,-1,0,-1,0,-1,1
1528190213202882,0,-1,0,0,-1,-2,0,0
1528190213225076,0,1,1,-1,0,0,-2,-1
1528190213225076,0,-1,-2,-1,-1,-3,-1,-1
1528190213225076,2,2,1,-1,-1,1,0,-1
1528190213225076,-1,-2,-2,-1,-1,-1,-1,-2
1528190213247763,-1,-3,-1,-1,-2,0,-1,0
1528190213247763,-1,-1,-1,-1,-1,-1,0,-2
1528190213248768,-1,-3,-3,-1,-1,-1,-1,-1
1528190213248768,0,-1,-2,-1,0,0,0,-1
1528190213262722,0,-2,-2,-1,-1,-1,-3,0
1528190213262722,-2,-1,-2,-1,-1,-2,-1,0
1528190213270076,-2,0,-1,-1,-1,-2,-2,0
1528190213270076,0,-2,-1,-1,-1,0,-2,-2
1528190213278679,-1,1,-2,0,-2,-2,-1,-3
1528190213278679,-1,-2,-1,-2,0,-1,-1,1
1528190213280683,-2,-2,-1,0,0,0,-2,-2
1528190213280683,-2,0,-2,0,-1,-1,-1,-1
1528190213292648,0,-1,-2,-1,-1,0,0,0
1528190213292648,-1,0,0,-2,-2,-2,-2,-1
1528190213298630,1,-1,-1,-1,0,-2,0,0
1528190213298630,-1,-1,0,0,0,-1,-1,-1
1528190213314190,-1,-1,-1,-2,-2,-1,-2,-1
1528190213314190,0,0,-2,-1,-2,0,-1,-2
1528190213321339,0,0,0,-3,-1,0,-1,-1
1528190213321339,1,-1,-2,-1,-2,-1,1,-2
1528190213344265,-1,-2,0,-1,-1,-3,-1,0
1528190213344265,1,-2,-1,-1,-1,0,1,-1
1528190213353184,-3,0,1,1,-1,-1,0,-2
1528190213353184,-2,-1,-1,-2,-2,-1,1,0
1528190213354128,-1,0,-1,0,0,0,0,-2
1528190213354128,0,0,-2,-1,-2,-2,-3,-1
1528190213358959,1,1,-2,-1,-2,-1,-1,-1
1528190213358959,0,-2,-1,-1,-1,-1,-2,0
1528190213373899,0,-2,-2,-2,-1,-1,0,-2
1528190213373899,-2,-3,1,-1,-1,1,-2,-1
1528190213380935,0,-3,-1,0,-1,-1,0,-2
1528190213380935,-2,1,0,-2,-2,-1,-2,-1
1528190213405102,-1,-2,-1,0,-2,-1,-1,-1
1528190213405102,-1,1,-1,-4,-1,-1,-1,0
1528190213405102,-1,-2,-1,-1,-3,0,-1,-1
1528190213405102,-1,-2,-1,-1,-2,-2,0,0
1528190213412795,0,-2,0,-1,-2,-1,0,-1
1528190213412795,-3,-1,-1,-1,-2,-3,0,-1
1528190213419338,-2,-2,-1,-1,0,0,-2,-2
1528190213419338,-1,0,-2,-2,0,-1,-2,1
1528190213434498,-2,0,-1,-1,-1,0,-1,-2
