timestamp,emg1,emg2,emg3,emg4,emg5,emg6,emg7,emg8
1528189896758857,-1,-2,0,-2,-2,0,1,-2
1528189896758857,-1,-2,-2,-1,-1,-1,-2,-1
1528189896759854,-1,-1,-2,-2,-2,0,-1,0
1528189896759854,0,0,-1,-1,-2,-1,-3,-2
1528189896761848,0,-1,-1,-2,0,-2,-2,0
1528189896761848,0,-1,-2,0,-1,0,0,-1
1528189896762846,-1,-1,-1,-2,-1,0,-1,-1
1528189896762846,0,-2,-2,-2,1,-1,0,-1
1528189896764847,-1,-1,-1,0,0,-1,-2,0
1528189896764847,-1,-1,0,-2,-2,0,0,-3
1528189896769826,-1,-2,-1,-1,-1,-1,-1,0
1528189896769826,0,-1,-1,-1,-1,-1,-1,0
1528189896776808,0,-1,-1,-1,-1,-2,0,1
1528189896776808,0,-1,-1,-1,-1,-1,-2,0
1528189896789773,1,-2,-1,1,-1,-1,-1,-2
1528189896789773,0,-1,-2,-2,-1,-2,-1,0
1528189896808722,0,0,-2,-1,0,-2,0,-1
1528189896808722,-1,-1,0,-2,-1,-1,-1,0
1528189896812711,-1,-1,-1,-2,-2,0,-3,0
1528189896812711,-2,-2,-1,0,-1,0,0,1
1528189896831661,-2,-2,-1,0,-2,1,-1,-1
1528189896831661,-1,-1,-1,-1,0,-2,-3,-1
1528189896836647,0,0,-2,-1,-1,0,0,-1
1528189896836647,-1,0,-1,-2,1,-1,0,-3
1528189896837644,-1,-2,0,1,-1,-2,-2,-3
1528189896837644,-1,-1,-1,-1,0,-1,0,0
1528189896859586,-1,-1,-1,-3,-2,-3,0,0
1528189896859586,0,-2,-1,-1,-1,1,1,-2
1528189896898483,-2,-1,1,-2,0,0,-2,-2
1528189896898483,0,-1,-3,-1,-1,0,-1,-2
1528189896899479,-1,-1,-2,-3,0,-2,-1,1
1528189896899479,0,-1,-1,-1,-1,0,-2,0
1528189896902471,-1,1,-2,0,-1,-1,0,0
1528189896902471,-1,-4,-2,-2,-2,0,-3,-1
1528189896903468,-2,-2,-1,-1,0,-2,1,0
1528189896903468,-2,-1,-1,-1,1,-1,-2,0
1528189896919425,0,-2,1,-1,0,-1,-1,-1
1528189896919425,-1,0,-1,-1,-2,-1,0,-1
1528189896919425,-2,-1,-1,-2,-1,-1,0,-1
1528189896919425,-2,-1,1,-1,-1,-3,-1,1
1528189896924413,-2,-1,-3,-1,0,0,-2,-1
1528189896924413,-1,-1,0,1,0,-2,-1,0
1528189896941367,-1,-1,-1,0,-2,0,-1,-2
1528189896941367,-3,-2,-2,-1,-2,0,-2,0
1528189896947351,-1,-2,-2,-2,-1,-1,0,-1
1528189896947351,1,-2,0,0,0,-1,-1,2
1528189896970290,0,-1,-1,0,-2,-2,-1,0
1528189896970290,-1,-2,-2,-2,-1,0,-1,-1
1528189896971287,-2,0,0,0,-1,1,0,0
1528189896971287,-1,-1,-1,-1,-1,-1,-2,-2
1528189896985250,-1,-1,0,0,1,-1,-1,0
1528189896985250,-1,0,-1,-1,-1,-2,-1,-1
1528189896986247,-1,-1,1,-2,-1,-1,0,-1
1528189896986247,0,-1,-1,-3,-1,0,0,-2
1528189897008188,-1,1,0,0,-1,-1,-1,-1
1528189897008188,-1,-1,-1,0,0,0,-2,-1
1528189897009187,-1,0,-1,1,-1,-1,0,-2
1528189897009187,-1,0,0,0,-1,-1,-1,0
1528189897030132,-1,-2,-1,-1,0,-1,-2,0
1528189897030132,-2,-1,-1,-2,-1,-1,-1,-1
1528189897031130,0,-1,0,-1,0,-2,-1,0
1528189897031130,-2,-1,-1,0,-3,-1,-1,-1
1528189897054104,0,-1,-3,-3,1,0,-2,0
1528189897054104,-1,-1,-1,-1,-1,0,-1,-3
1528189897054104,-2,-1,-2,-1,0,1,0,-2
1528189897054104,1,-1,-2,0,-1,-2,-1,-2
1528189897069026,-1,-2,-1,-2,0,-1,-2,0
1528189897069026,1,-2,-2,-2,0,-1,-1,1
1528189897069026,-3,-1,-1,-1,0,0,-1,-2
1528189897069026,-2,0,0,-1,-1,-1,-2,-1
1528189897090967,-2,-2,0,-1,-2,-2,-1,-2
1528189897090967,-1,-2,-2,-1,-2,-1,-1,-1
1528189897090967,1,-2,-1,-1,-2,1,-1,-1
1528189897090967,-1,-2,0,-2,-1,-1,-1,-1
1528189897105930,-1,0,-2,0,-2,-1,-1,-1
1528189897105930,-2,0,-2,-2,-2,-3,0,-1
1528189897105930,-1,0,-1,-1,-2,-2,-1,-1
1528189897105930,-1,0,-1,-1,-2,0,-1,-1
1528189897135848,-2,-1,-1,-2,-2,-1,-2,0
1528189897135848,-2,-2,-2,0,0,-1,0,-2
1528189897136845,-1,0,-1,-1,-1,-1,-2,-2
1528189897136845,-1,-3,-1,0,0,-2,0,0
1528189897150808,0,0,-2,-1,-1,-2,-1,-2
1528189897150808,-1,-1,0,-1,0,0,-1,-1
1528189897151805,0,-2,0,0,-2,-1,0,0
1528189897151805,0,-1,-2,-2,-1,-1,0,-1
1528189897165806,-1,-3,-1,-1,0,0,-1,-2
1528189897165806,-3,-1,-2,-2,-1,-1,-1,-1
1528189897166804,-3,-1,-1,0,2,-1,-2,-2
1528189897166804,-2,-1,0,-1,-3,-2,-2,-1
1528189897196725,-2,-1,-1,-1,-1,-1,0,-1
1528189897196725,0,-1,-1,0,-1,-1,0,-1
1528189897196725,0,-3,-2,-2,-1,-2,0,-2
1528189897196725,-2,0,0,-1,0,-1,-1,1
1528189897210647,0,-1,-1,-1,-1,-1,-2,-1
1528189897210647,1,-2,0,-1,1,-2,-2,-1
1528189897211687,0,-3,-1,0,-1,-1,-2,0
1528189897211687,-1,-1,-3,-2,-1,-2,-1,-2
1528189897225607,-1,0,-3,-1,-1,-1,0,-2
1528189897225607,-3,-1,-1,-1,-2,-1,0,-1
1528189897226604,-5,-5,-1,-2,-3,1,0,-2
1528189897226604,-2,-5,-2,-1,0,-1,-2,0
1528189897248572,2,3,1,0,-1,-2,-2,0
1528189897248572,0,0,-1,-1,0,1,-1,-1
1528189897248572,-1,0,-2,0,-2,-1,2,-1
1528189897248572,-2,-2,-1,-1,-1,-1,-1,0
1528189897270487,1,1,-3,0,-1,-1,-2,1
1528189897270487,1,0,0,-1,-1,-1,-2,0
1528189897271504,-2,-2,-2,-1,0,-1,-1,-1
1528189897271504,-1,-1,-1,0,-1,-1,-1,-2
1528189897287442,1,-1,0,0,-1,0,0,-1
1528189897287442,0,1,-1,-1,-2,0,-1,-1
1528189897287442,-4,-3,-1,-3,-1,2,-1,-1
1528189897287442,-1,-2,-1,0,-2,-1,-1,-1
1528189897308386,0,-2,-1,0,-1,-2,-2,-1
1528189897308386,0,0,1,-2,-2,0,-1,-2
1528189897308386,-3,0,-1,-3,-1,-3,0,-1
1528189897308386,1,-1,0,-2,-2,1,0,-1
1528189897330328,-1,0,-3,-1,-1,-1,-2,-1
1528189897330328,-1,-1,-1,-1,0,1,-1,-2
1528189897331327,-1,-1,-1,-1,-2,-2,0,-1
1528189897331327,0,-2,-1,-1,-1,0,-1,-1
1528189897345328,-1,-1,-2,0,-3,-1,0,0
1528189897345328,0,0,-2,0,-2,-1,-1,-2
1528189897346285,-1,-1,0,-1,-2,0,-1,1
1528189897346285,-1,0,-2,0,0,-1,-2,-1
1528189897368226,-2,-3,0,-1,0,-1,-1,0
1528189897368226,-1,-2,-1,0,-3,0,0,-2
1528189897369223,-1,-1,-1,-1,-2,1,-2,-2
1528189897369223,0,-1,-2,-3,-2,-2,-2,0
1528189897390194,-1,-2,-1,-1,-3,-1,0,0
1528189897390194,-1,-2,-2,-2,-2,0,-1,-1
1528189897391165,-1,-2,-1,-2,-1,-3,-2,-2
1528189897391165,-2,-1,0,-1,-1,-3,-1,0
1528189897405157,-1,2,-1,1,1,-1,-1,1
1528189897405157,-1,-1,-1,-2,1,0,1,-1
1528189897413106,-1,0,-2,-1,1,-2,0,-2
1528189897413106,-1,-2,-2,-1,-1,-2,-1,-1
1528189897428066,-1,0,0,0,1,0,-1,-1
1528189897428066,-1,0,-2,-1,-1,1,-1,0
1528189897429063,-2,-1,-1,-1,-2,-1,-1,-3
1528189897429063,-2,-1,-1,-1,-1,-1,-1,-1
1528189897450008,-2,-2,0,-1,-1,-1,-2,-1
1528189897450008,-1,0,0,-2,-3,-1,0,-1
1528189897451005,0,-1,-4,-2,0,-2,0,0
1528189897451005,-2,-2,-2,-2,-1,-1,-3,0
1528189897465014,-3,-2,-1,1,-1,1,0,-2
1528189897465014,-1,-2,0,-1,-2,0,-2,-1
1528189897472977,0,0,-1,0,-1,0,-3,-3
1528189897472977,0,-1,-2,-3,-1,0,-2,-2
1528189897487942,-1,-2,-3,-2,-2,-2,0,0
1528189897487942,0,1,-2,-1,0,-2,0,0
1528189897488904,-1,-2,-1,-2,0,-1,0,-1
1528189897488904,0,-2,-1,-1,0,-1,0,-1
1528189897511057,-1,-1,-2,-2,-1,-2,-1,-1
1528189897511057,-3,-1,0,-1,-1,-2,-1,-1
1528189897525806,0,0,1,-2,-1,-1,-1,-2
1528189897525806,-2,-2,-2,0,-2,-1,-1,0
1528189897549742,-1,-1,-1,-1,-3,0,-1,-1
1528189897549742,-3,-1,-1,0,-1,-2,0,0
1528189897550739,-2,0,-1,-1,-1,-2,-2,-1
1528189897550739,-1,-1,-1,-1,-1,-1,-2,-2
1528189897552733,-1,-2,-1,0,-2,-1,-1,-1
1528189897552733,-2,-2,-3,-1,-1,-2,-1,-1
1528189897555728,-1,-1,-1,0,-1,0,-1,-2
1528189897555728,-1,0,-1,0,0,0,-1,-1
1528189897578667,-1,-1,-1,-2,0,-1,-1,1
1528189897578667,-1,-1,-1,-2,-1,-1,-1,0
1528189897579661,-1,-2,0,-3,0,-3,-2,-1
1528189897579661,-1,-2,-2,0,-1,-2,-2,-2
1528189897593981,0,-1,-2,-1,-1,0,-2,0
1528189897593981,0,-1,0,-1,0,1,-1,-3
1528189897594623,-1,0,-1,-1,2,-2,-1,0
1528189897594623,-2,0,-1,-2,-1,-1,1,-2
1528189897607876,0,-1,-1,-1,0,0,0,-1
1528189897607876,-1,-2,-2,-1,-1,0,-1,-2
1528189897608584,-1,0,-2,-1,-3,-1,1,-1
1528189897608584,-1,0,-1,0,-3,-1,-1,-2
1528189897630544,0,-2,0,-2,-1,-2,0,-1
1528189897630544,-1,-1,-2,-1,-2,-1,-1,0
1528189897631522,-3,-3,-3,-1,-2,-2,0,-1
1528189897631522,1,1,0,-1,-3,-1,-1,-1
1528189897645616,-3,1,-1,-2,-4,-1,-1,1
1528189897645616,-1,0,-3,-1,-1,-2,0,-2
1528189897653464,1,0,-1,-1,-1,-1,-1,-1
1528189897653464,-2,0,-2,-2,0,0,-1,0
1528189897668464,-2,-2,-1,-1,-1,0,-1,-1
1528189897668464,-1,-2,0,0,-1,-1,-1,-1
1528189897668464,0,1,-2,-2,-1,-1,-1,-2
1528189897668464,0,0,0,-2,-1,-1,-1,-1
1528189897690782,0,0,-2,-1,0,-2,0,0
1528189897690782,-2,1,1,-2,-1,1,-3,-2
1528189897691364,0,-1,-1,0,2,0,0,-1
1528189897691364,0,-1,-2,0,1,-2,0,-1
1528189897705557,-1,0,0,-1,-2,0,-1,-1
1528189897705557,-2,0,-1,-1,-1,-1,-1,-1
1528189897713588,0,0,1,1,-1,-2,-1,-1
1528189897713588,0,0,-1,-1,-1,0,0,-1
1528189897728606,0,1,-1,-2,-1,-1,-1,-2
1528189897728606,-1,-2,-2,0,1,-1,0,-1
1528189897729262,0,-1,-1,-1,-2,-2,0,-3
1528189897729262,-1,-2,0,-2,-1,-2,-2,-2
1528189897752200,-2,0,1,-3,-1,-1,-2,0
1528189897752200,-1,-1,-1,-2,-1,-2,-1,0
1528189897753437,-2,-1,-2,-3,-1,-1,-1,-1
1528189897753437,0,-4,-3,-1,-3,-1,0,0
1528189897774187,-2,-2,1,0,0,0,-2,1
1528189897774187,0,-1,0,-1,0,-1,-1,0
1528189897774187,0,-2,-3,0,-1,-2,-1,-1
1528189897774187,1,-1,0,-3,0,0,-1,0
1528189897788104,-1,-1,-2,-1,-1,-1,-1,-2
1528189897788104,0,-2,0,-1,-2,-1,-1,0
1528189897789101,-1,-2,-2,0,-1,-1,-2,1
1528189897789101,-2,-2,-1,-2,-2,0,-2,-1
1528189897818071,1,0,-1,-1,-1,-1,-2,0
1528189897818071,-3,-1,-1,-2,0,-2,-1,-2
1528189897826029,-1,-4,0,1,0,-1,-1,-1
1528189897826029,0,3,-2,-2,-2,1,-2,0
1528189897834036,-1,-1,-1,0,-1,1,0,0
1528189897834036,-5,-7,0,-1,-1,0,0,0
1528189897835026,5,6,0,-1,-1,-2,-1,0
1528189897835026,0,-1,-2,-1,-1,0,0,-2
1528189897854978,-2,-1,-3,-3,-3,-2,-1,0
1528189897854978,0,0,-1,-1,-1,-2,-2,-1
1528189897862932,-4,-4,-2,-1,-1,-1,-1,-2
1528189897862932,0,-1,0,-2,-3,0,-1,0
1528189897869922,-1,0,-1,0,-2,0,-3,-1
1528189897869922,-1,0,-2,0,-2,-2,-1,-1
1528189897879913,0,-3,0,-2,1,-1,-1,-1
1528189897879913,-2,2,-2,0,-1,-1,-1,-1
1528189897908837,-1,-2,-1,-1,-2,-1,0,-3
1528189897908837,-1,-1,-1,-1,-1,-1,-1,-2
1528189897910832,0,-2,-1,-1,-3,0,-1,-2
1528189897910832,0,-1,-2,0,-1,-2,-2,-1
1528189897915817,1,-1,1,0,-2,-1,1,0
1528189897915817,0,-2,-1,-1,-1,0,-1,0
1528189897917762,0,0,-1,-1,0,0,-1,-2
1528189897917762,0,0,-2,-2,-1,0,0,0
1528189897929782,-1,-1,-2,-1,-1,-1,-2,-1
1528189897929782,-1,-1,-1,-2,0,-1,-1,1
1528189897946733,-1,-2,-2,-1,-2,-1,0,-3
1528189897946733,-1,-1,0,-1,-1,0,-1,-2
1528189897961639,-1,-2,-2,-1,0,0,0,0
1528189897961639,-1,-1,-1,-1,-1,-1,-2,-3
1528189897962643,-2,1,-1,-1,-1,-3,-1,-1
1528189897962643,-1,0,-1,-2,-2,-1,-1,0
1528189897976658,1,-1,-2,1,0,-1,-1,1
1528189897976658,0,-3,-2,0,-1,-1,-2,-1
1528189897977599,-2,-3,0,1,0,0,0,1
1528189897977599,1,-1,-2,-1,-1,-1,-1,-1
1528189897989620,0,-1,-1,-1,-2,-2,-2,-1
1528189897989620,-1,-1,-1,-2,-1,-1,0,-2
1528189897998564,-1,-1,-2,-1,-2,-1,-2,-1
1528189897998564,-1,-2,0,-2,-1,-2,-1,-2
1528189898013501,-1,0,-2,0,-2,0,0,-1
1528189898013501,0,0,-1,-2,-1,-1,-2,-4
1528189898015497,-2,-2,-1,-3,-2,0,1,-1
1528189898015497,-1,0,-1,0,-1,0,-1,-1
1528189898036496,-2,-1,-1,-3,1,-1,-1,-1
1528189898036496,0,2,-2,-1,-2,-1,1,0
1528189898037500,-3,0,-2,-1,-2,-2,-1,-2
1528189898037500,-1,-2,0,-1,0,-1,-1,-2
1528189898049461,-1,-1,1,-1,-1,-2,-2,-1
1528189898049461,0,0,-1,-1,-1,-2,0,-1
1528189898058435,0,-2,0,-3,-1,-1,-1,0
1528189898058435,1,-2,-1,0,0,-2,-2,0
1528189898072343,-2,-1,-1,-1,-1,-1,-2,0
1528189898072343,-1,-3,-1,-1,0,0,0,-2
1528189898081320,0,0,1,-1,-3,-1,-1,-3
1528189898081320,-2,-2,-1,-1,-4,-1,-2,0
1528189898096534,-2,-2,-1,-1,-1,-1,0,-1
1528189898096534,-3,0,-1,-1,0,0,-1,1
1528189898098277,-1,-2,-1,1,-1,0,-2,0
1528189898098277,0,-2,-1,-1,-1,-2,-1,-2
1528189898119419,-2,-1,-1,-2,-1,0,-1,0
1528189898119419,-3,-1,-2,0,-2,-2,-2,-1
1528189898120231,-3,-2,-3,-2,-2,-1,0,-1
1528189898120231,0,-2,-1,-2,0,1,0,-2
1528189898133439,-2,-1,-1,0,0,0,-2,0
1528189898133439,-1,-1,0,0,-1,-1,0,0
1528189898140420,-2,-1,0,-1,-1,1,-1,0
1528189898140420,-2,-3,-2,-1,-3,-2,-1,-2
1528189898172526,0,-1,0,-1,-1,0,-1,-1
1528189898172526,-1,0,0,-3,-1,0,-1,-1
1528189898174143,-1,-1,-1,0,-1,-2,-2,-2
1528189898174143,0,-3,-1,-1,0,0,-2,-1
1528189898179422,-3,0,-1,-2,-1,-3,-1,0
1528189898179422,-1,-1,-2,-1,0,-2,-1,0
1528189898180056,-2,-1,-1,-1,0,1,-2,-1
1528189898180056,1,-1,-2,-2,-1,-1,0,0
1528189898193375,-1,-2,-2,0,0,0,-1,-2
1528189898193375,0,-1,-2,-1,-1,-2,0,-2
1528189898200003,1,-1,-2,0,-1,0,-1,0
1528189898200003,0,0,-1,-1,0,-1,-1,-1
1528189898217034,-2,-3,0,-3,-2,0,-3,-2
1528189898217034,0,-1,-1,-1,-1,-2,-1,-1
1528189898217956,0,-1,-3,0,-1,-2,-1,-1
1528189898217956,0,-1,-2,0,-2,0,0,-2
1528189898230284,-1,-2,-2,-2,-3,-2,-1,-2
1528189898230284,-2,-2,-2,-2,-1,-1,0,-2
1528189898238900,-2,-1,-1,-1,0,-1,0,0
1528189898238900,-1,-1,-1,1,-3,-2,-1,-1
1528189898253321,-1,-1,-1,1,-2,-2,0,-1
1528189898253321,-1,-1,0,0,-2,-1,0,-2
1528189898260546,-1,-1,-3,-1,-1,-1,-2,0
1528189898260546,-1,0,-2,-2,0,-1,0,-1
1528189898276999,1,-2,1,-2,0,-1,0,0
1528189898276999,0,-1,-1,-1,1,1,-1,0
1528189898278000,-2,-2,-2,-1,-1,-2,0,-1
1528189898278000,0,0,-2,-1,0,-2,-1,0
1528189898306271,0,0,0,0,-1,-1,-1,-1
1528189898306271,-1,-2,-1,-1,-1,-1,-2,-1
1528189898307928,-1,-2,-2,0,0,0,1,-2
1528189898307928,-1,-1,-1,-1,-1,-2,-2,-1
1528189898313167,-1,0,0,0,-1,-2,-1,-1
1528189898313167,-2,0,-2,-1,-1,-1,-3,-1
1528189898328209,-2,-3,-2,-2,-3,0,-2,0
1528189898328209,1,0,0,1,-3,-2,-2,1
1528189898336168,1,-2,0,-1,-2,0,-3,0
1528189898336168,-1,0,0,0,-2,1,-1,-1
1528189898337842,0,0,-1,0,0,0,-1,-1
1528189898337842,-3,-2,-1,-1,-3,0,0,-2
1528189898358812,0,-2,-1,-1,-2,-2,-1,-2
1528189898358812,0,-1,-1,-2,1,-2,-2,-1
1528189898361038,-1,0,-2,-1,0,-1,-1,-1
1528189898361038,-1,-1,0,-1,0,-2,-1,-3
1528189898373751,-2,-1,-1,-2,-1,-1,-1,-3
1528189898373751,-1,0,-2,-2,1,-1,-2,0
1528189898380060,-1,0,-1,-2,-1,0,-1,-1
1528189898380060,0,0,0,0,-1,-3,0,-2
1528189898396397,-2,-2,-1,-1,-1,-1,-1,-1
1528189898396397,0,-1,-1,0,-1,0,-2,0
1528189898398072,1,-1,-1,0,-1,-2,-1,0
1528189898398072,-2,-1,-1,-2,0,-2,0,-1
1528189898419004,0,1,0,-2,-1,0,-1,-1
1528189898419004,-1,0,-1,-1,-2,0,-2,-1
1528189898420003,-2,-2,-1,-1,-2,-2,-2,0
1528189898420003,-1,0,-1,-1,-2,-1,-2,-1
1528189898433635,0,-2,-1,-1,1,-1,-1,0
1528189898433635,-3,-2,0,0,-3,-1,-1,-1
1528189898440459,1,0,0,0,1,-1,-1,-3
1528189898440459,-1,0,-1,-1,0,0,-1,1
1528189898456155,-1,-1,0,-1,-1,-2,0,0
1528189898456155,0,-3,-2,-1,1,-2,0,0
1528189898458150,0,-1,-3,-1,-1,-2,-2,-1
1528189898458150,-1,0,-1,-2,0,-2,-2,-2
1528189898479265,-2,-1,0,0,-1,-2,-1,-1
1528189898479265,0,0,-1,-2,-2,-1,1,-1
1528189898485315,-1,-1,0,-2,-2,-2,-2,-2
1528189898485315,-1,-1,0,-2,-1,-2,0,1
1528189898501055,0,0,0,-1,-1,0,0,-2
1528189898501055,-2,-1,-1,-1,0,-1,0,-1
1528189898503030,-1,0,-1,0,-1,-1,-2,-1
1528189898503030,-1,-3,-1,-2,-1,0,-1,-1
1528189898515006,-1,-3,-1,-1,-1,-1,1,-2
1528189898515006,-1,1,-1,0,0,-2,-1,-1
1528189898523973,0,0,-2,-2,-2,-1,0,0
1528189898523973,-2,0,-1,-1,-1,-1,-2,-1
1528189898539194,-2,-1,-1,-1,-1,-1,-1,-1
1528189898539194,-2,-1,0,-1,-2,-1,-1,-1
1528189898541105,-1,-2,-1,-1,-1,-1,-1,-1
1528189898541105,1,-2,-1,-1,-1,-1,-2,0
1528189898552897,-2,0,-1,-1,-2,-1,1,-1
1528189898552897,1,-2,-2,-2,0,2,-1,-1
1528189898559882,-1,0,1,-1,-2,-1,-1,-1
1528189898559882,-1,0,-1,0,-1,-1,-2,-1
1528189898576133,-2,0,-2,-2,-2,-1,-2,0
1528189898576133,0,-2,-1,-1,0,1,-1,0
1528189898583935,0,-3,-1,-1,0,-2,0,0
1528189898583935,-1,-1,-2,-2,-1,0,-2,-3
1528189898599553,-2,0,-2,0,-1,-2,-2,0
1528189898599553,-2,-1,-1,-1,-2,-4,-3,-2
1528189898600248,-2,0,0,-1,-1,-1,-1,-1
1528189898600248,-2,-1,-1,-1,-2,-1,-1,0
1528189898613255,-1,-2,-1,-1,1,0,0,-1
1528189898613255,-1,-2,-1,0,-1,-1,0,-1
1528189898621191,0,0,-2,-1,-2,-3,-2,-3
1528189898621191,-1,0,-1,-2,0,0,-1,1
1528189898636151,-1,-2,0,0,-1,-2,-1,0
1528189898636151,-1,-3,-1,-1,-2,-3,-2,-2
1528189898638146,0,-1,0,0,-2,-1,-1,-1
1528189898638146,0,-2,0,-1,-1,-1,-1,-2
1528189898659092,-2,-2,-1,-1,-1,-1,-2,-1
1528189898659092,0,-2,-2,-1,-1,-1,1,0
1528189898661113,-1,-1,-2,-2,1,0,0,-2
1528189898661113,-2,2,0,1,-2,-1,-1,-1
1528189898672058,0,0,-1,-1,1,-1,0,0
1528189898672058,-2,-1,-2,-1,-1,-1,-2,0
1528189898681032,-2,0,-2,0,-1,1,-3,0
1528189898681032,0,-2,-1,0,-1,0,0,-1
1528189898697011,0,-1,0,0,-1,-1,-2,1
1528189898697011,0,-1,0,1,-1,-1,-2,0
1528189898697986,-1,1,0,0,-2,-2,-1,-2
1528189898697986,1,-1,-3,-2,-1,-2,-2,0
1528189898719190,0,-1,-1,-1,0,-2,-1,-1
1528189898719190,-1,-1,-1,0,-1,0,0,-1
1528189898720186,-2,-3,-1,-1,-1,-1,0,-1
1528189898720186,-1,-2,-1,-1,-1,-1,0,-1
1528189898732903,-2,-1,-2,-2,-1,0,-1,0
1528189898732903,-2,-1,-1,-2,-2,-1,0,0
1528189898741868,-1,-1,0,-2,-1,-1,-1,-1
1528189898741868,0,0,-1,-1,-1,-1,0,0
1528189898756911,0,-2,-1,0,-2,-3,-1,0
1528189898756911,-1,-1,-1,-2,0,-1,0,1
1528189898757826,-1,1,-1,-2,-2,-1,-1,-1
1528189898757826,1,-1,-1,-1,-1,-1,-1,-1
1528189898778773,0,-1,-1,0,0,0,-2,0
1528189898778773,-3,0,-1,-1,1,-1,-2,-2
1528189898780765,-1,-2,-3,-2,-1,-1,-1,-2
1528189898780765,0,-2,-1,-1,-2,0,0,-1
1528189898793041,0,-1,-1,-1,-1,-1,-1,-2
1528189898793041,-3,0,-1,-1,-1,-1,-1,-3
1528189898801709,-1,-1,-1,-2,-1,-2,-1,0
1528189898801709,-1,0,-1,-1,-1,-1,-2,0
1528189898816894,-3,-1,-2,0,-1,0,-1,-1
1528189898816894,-2,-1,-1,-1,-1,1,0,-1
1528189898817674,-1,-1,-1,-1,-2,-1,0,-1
1528189898817674,0,-1,-1,-2,-1,0,-3,-1
1528189898838883,-1,0,-1,0,-1,0,-1,0
1528189898838883,-1,-3,1,-1,-2,-2,-1,-2
1528189898840605,0,0,-1,-1,0,-1,0,-1
1528189898840605,0,-2,-1,-1,0,0,-2,-1
1528189898852835,-1,-1,-1,-1,0,0,0,-1
1528189898852835,-2,-1,-1,0,-1,-1,0,0
1528189898861550,0,-2,-1,-2,-2,0,0,-2
1528189898861550,0,-2,-3,-1,0,-1,-1,-2
1528189898861550,0,-2,-3,-1,0,-1,-1,-2
1528189898861550,0,-2,-3,-1,0,-1,-1,-2
1528189898861550,0,-2,-3,-1,0,-1,-1,-2
1528189898861550,0,-2,-3,-1,0,-1,-1,-2
1528189898861550,0,-2,-3,-1,0,-1,-1,-2
1528189898861550,0,-2,-3,-1,0,-1,-1,-2
1528189898861550,0,-2,-3,-1,0,-1,-1,-2
1528189898861550,0,-2,-3,-1,0,-1,-1,-2
1528189898861550,0,-2,-3,-1,0,-1,-1,-2
1528189898861550,0,-2,-3,-1,0,-1,-1,-2
1528189898861550,0,-2,-3,-1,0,-1,-1,-2
1528189898861550,0,-2,-3,-1,0,-1,-1,-2
1528189898861550,0,-2,-3,-1,0,-1,-1,-2
1528189898861550,0,-2,-3,-1,0,-1,-1,-2
1528189898861550,0,-2,-3,-1,0,-1,-1,-2
1528189898861550,0,-2,-3,-1,0,-1,-1,-2
1528189898861550,0,-2,-3,-1,0,-1,-1,-2
1528189898861550,0,-2,-3,-1,0,-1,-1,-2
1528189898861550,0,-2,-3,-1,0,-1,-1,-2
1528189898861550,0,-2,-3,-1,0,-1,-1,-2
1528189898861550,0,-2,-3,-1,0,-1,-1,-2
1528189898861550,0,-2,-3,-1,0,-1,-1,-2
1528189898861550,0,-2,-3,-1,0,-1,-1,-2
1528189898861550,0,-2,-3,-1,0,-1,-1,-2
1528189898861550,0,-2,-3,-1,0,-1,-1,-2
1528189898861550,0,-2,-3,-1,0,-1,-1,-2
1528189898861550,0,-2,-3,-1,0,-1,-1,-2
1528189898861550,0,-2,-3,-1,0,-1,-1,-2
1528189898861550,0,-2,-3,-1,0,-1,-1,-2
1528189898861550,0,-2,-3,-1,0,-1,-1,-2
1528189898861550,0,-2,-3,-1,0,-1,-1,-2
1528189898861550,0,-2,-3,-1,0,-1,-1,-2
1528189898861550,0,-2,-3,-1,0,-1,-1,-2
1528189898861550,0,-2,-3,-1,0,-1,-1,-2
1528189898861550,0,-2,-3,-1,0,-1,-1,-2
1528189898861550,0,-2,-3,-1,0,-1,-1,-2
1528189898861550,0,-2,-3,-1,0,-1,-1,-2
1528189898861550,0,-2,-3,-1,0,-1,-1,-2
1528189898861550,0,-2,-3,-1,0,-1,-1,-2
1528189898861550,0,-2,-3,-1,0,-1,-1,-2
1528189898861550,0,-2,-3,-1,0,-1,-1,-2
1528189898861550,0,-2,-3,-1,0,-1,-1,-2
1528189898861550,0,-2,-3,-1,0,-1,-1,-2
1528189898861550,0,-2,-3,-1,0,-1,-1,-2
1528189898861550,0,-2,-3,-1,0,-1,-1,-2
1528189898861550,0,-2,-3,-1,0,-1,-1,-2
1528189898861550,0,-2,-3,-1,0,-1,-1,-2
1528189898861550,0,-2,-3,-1,0,-1,-1,-2
1528189898861550,0,-2,-3,-1,0,-1,-1,-2
1528189898861550,0,-2,-3,-1,0,-1,-1,-2
1528189898861550,0,-2,-3,-1,0,-1,-1,-2
1528189898861550,0,-2,-3,-1,0,-1,-1,-2
1528189898861550,0,-2,-3,-1,0,-1,-1,-2
1528189898861550,0,-2,-3,-1,0,-1,-1,-2
1528189898861550,0,-2,-3,-1,0,-1,-1,-2
1528189898861550,0,-2,-3,-1,0,-1,-1,-2
1528189898861550,0,-2,-3,-1,0,-1,-1,-2
1528189898861550,0,-2,-3,-1,0,-1,-1,-2
1528189898861550,0,-2,-3,-1,0,-1,-1,-2
1528189898861550,0,-2,-3,-1,0,-1,-1,-2
1528189898861550,0,-2,-3,-1,0,-1,-1,-2
1528189898861550,0,-2,-3,-1,0,-1,-1,-2
1528189898861550,0,-2,-3,-1,0,-1,-1,-2
1528189898861550,0,-2,-3,-1,0,-1,-1,-2
1528189898861550,0,-2,-3,-1,0,-1,-1,-2
1528189898861550,0,-2,-3,-1,0,-1,-1,-2
1528189898861550,0,-2,-3,-1,0,-1,-1,-2
1528189898861550,0,-2,-3,-1,0,-1,-1,-2
1528189898861550,0,-2,-3,-1,0,-1,-1,-2
1528189898861550,0,-2,-3,-1,0,-1,-1,-2
1528189898861550,0,-2,-3,-1,0,-1,-1,-2
1528189898861550,0,-2,-3,-1,0,-1,-1,-2
1528189898861550,0,-2,-3,-1,0,-1,-1,-2
1528189898861550,0,-2,-3,-1,0,-1,-1,-2
1528189898861550,0,-2,-3,-1,0,-1,-1,-2
1528189898861550,0,-2,-3,-1,0,-1,-1,-2
1528189898861550,0,-2,-3,-1,0,-1,-1,-2
1528189898861550,0,-2,-3,-1,0,-1,-1,-2
1528189898861550,0,-2,-3,-1,0,-1,-1,-2
1528189898861550,0,-2,-3,-1,0,-1,-1,-2
1528189898861550,0,-2,-3,-1,0,-1,-1,-2
1528189898861550,0,-2,-3,-1,0,-1,-1,-2
1528189898861550,0,-2,-3,-1,0,-1,-1,-2
1528189898861550,0,-2,-3,-1,0,-1,-1,-2
1528189898861550,0,-2,-3,-1,0,-1,-1,-2
1528189898861550,0,-2,-3,-1,0,-1,-1,-2
1528189898861550,0,-2,-3,-1,0,-1,-1,-2
1528189898861550,0,-2,-3,-1,0,-1,-1,-2
1528189898861550,0,-2,-3,-1,0,-1,-1,-2
1528189898861550,0,-2,-3,-1,0,-1,-1,-2
1528189898861550,0,-2,-3,-1,0,-1,-1,-2
1528189898861550,0,-2,-3,-1,0,-1,-1,-2
1528189898861550,0,-2,-3,-1,0,-1,-1,-2
1528189898861550,0,-2,-3,-1,0,-1,-1,-2
1528189898861550,0,-2,-3,-1,0,-1,-1,-2
1528189898861550,0,-2,-3,-1,0,-1,-1,-2
1528189898861550,0,-2,-3,-1,0,-1,-1,-2
1528189898861550,0,-2,-3,-1,0,-1,-1,-2
1528189898861550,0,-2,-3,-1,0,-1,-1,-2
1528189898861550,0,-2,-3,-1,0,-1,-1,-2
1528189898861550,0,-2,-3,-1,0,-1,-1,-2
1528189898861550,0,-2,-3,-1,0,-1,-1,-2
1528189898861550,0,-2,-3,-1,0,-1,-1,-2
1528189898861550,0,-2,-3,-1,0,-1,-1,-2
1528189898861550,0,-2,-3,-1,0,-1,-1,-2
1528189898861550,0,-2,-3,-1,0,-1,-1,-2
1528189898861550,0,-2,-3,-1,0,-1,-1,-2
1528189898861550,0,-2,-3,-1,0,-1,-1,-2
1528189898861550,0,-2,-3,-1,0,-1,-1,-2
1528189898861550,0,-2,-3,-1,0,-1,-1,-2
1528189898861550,0,-2,-3,-1,0,-1,-1,-2
1528189898861550,0,-2,-3,-1,0,-1,-1,-2
1528189898861550,0,-2,-3,-1,0,-1,-1,-2
1528189898861550,0,-2,-3,-1,0,-1,-1,-2
1528189898861550,0,-2,-3,-1,0,-1,-1,-2
1528189898861550,0,-2,-3,-1,0,-1,-1,-2
1528189898861550,0,-2,-3,-1,0,-1,-1,-2
1528189898861550,0,-2,-3,-1,0,-1,-1,-2
1528189898861550,0,-2,-3,-1,0,-1,-1,-2
1528189898861550,0,-2,-3,-1,0,-1,-1,-2
1528189898861550,0,-2,-3,-1,0,-1,-1,-2
1528189898861550,0,-2,-3,-1,0,-1,-1,-2
1528189898861550,0,-2,-3,-1,0,-1,-1,-2
1528189898861550,0,-2,-3,-1,0,-1,-1,-2
1528189898861550,0,-2,-3,-1,0,-1,-1,-2
1528189898861550,0,-2,-3,-1,0,-1,-1,-2
1528189898861550,0,-2,-3,-1,0,-1,-1,-2
1528189898861550,0,-2,-3,-1,0,-1,-1,-2
1528189898861550,0,-2,-3,-1,0,-1,-1,-2
1528189898861550,0,-2,-3,-1,0,-1,-1,-2
1528189898861550,0,-2,-3,-1,0,-1,-1,-2
1528189898861550,0,-2,-3,-1,0,-1,-1,-2
1528189898861550,0,-2,-3,-1,0,-1,-1,-2
1528189898861550,0,-2,-3,-1,0,-1,-1,-2
1528189898861550,0,-2,-3,-1,0,-1,-1,-2
1528189898861550,0,-2,-3,-1,0,-1,-1,-2
1528189898861550,0,-2,-3,-1,0,-1,-1,-2
1528189898861550,0,-2,-3,-1,0,-1,-1,-2
1528189898861550,0,-2,-3,-1,0,-1,-1,-2
1528189898861550,0,-2,-3,-1,0,-1,-1,-2
1528189898861550,0,-2,-3,-1,0,-1,-1,-2
1528189898861550,0,-2,-3,-1,0,-1,-1,-2
1528189898861550,0,-2,-3,-1,0,-1,-1,-2
1528189898861550,0,-2,-3,-1,0,-1,-1,-2
1528189898861550,0,-2,-3,-1,0,-1,-1,-2
1528189898861550,0,-2,-3,-1,0,-1,-1,-2
1528189898861550,0,-2,-3,-1,0,-1,-1,-2
1528189898861550,0,-2,-3,-1,0,-1,-1,-2
1528189898861550,0,-2,-3,-1,0,-1,-1,-2
1528189898861550,0,-2,-3,-1,0,-1,-1,-2
1528189898861550,0,-2,-3,-1,0,-1,-1,-2
1528189898861550,0,-2,-3,-1,0,-1,-1,-2
1528189898861550,0,-2,-3,-1,0,-1,-1,-2
1528189898861550,0,-2,-3,-1,0,-1,-1,-2
1528189898861550,0,-2,-3,-1,0,-1,-1,-2
1528189898861550,0,-2,-3,-1,0,-1,-1,-2
1528189898861550,0,-2,-3,-1,0,-1,-1,-2
1528189898861550,0,-2,-3,-1,0,-1,-1,-2
1528189898861550,0,-2,-3,-1,0,-1,-1,-2
1528189898861550,0,-2,-3,-1,0,-1,-1,-2
