timestamp,emg1,emg2,emg3,emg4,emg5,emg6,emg7,emg8
1528445515701631,1,0,0,0,-2,-1,-1,-2
1528445515701631,-1,0,-1,-2,-2,1,-1,-1
1528445515705645,-1,-2,-2,-3,-2,-2,-1,-2
1528445515705645,-1,-1,-2,-2,0,-1,-1,0
1528445515707614,-1,-2,0,1,0,0,-1,-1
1528445515707614,1,-2,-2,-1,-1,-1,-1,1
1528445515708612,0,0,-1,0,0,1,-1,0
1528445515708612,0,0,-1,-1,-2,-1,0,-2
1528445515719582,-1,0,-3,-1,-2,-2,0,-2
1528445515719582,-2,-2,0,0,-1,0,0,-1
1528445515727560,1,-2,0,0,1,-1,-2,-1
1528445515727560,-2,-2,-1,-2,-1,-1,-1,-1
1528445515733546,0,-1,-3,-1,-1,-2,-1,0
1528445515733546,-1,0,-1,1,-1,-2,-1,-1
1528445515748551,-2,1,-2,-1,-1,-2,0,-1
1528445515748551,0,-1,0,-1,-1,1,0,-1
1528445515757481,-2,-1,-1,-2,-1,0,-1,-1
1528445515757481,-1,-1,-1,-2,-1,-4,-2,-2
1528445515774473,-3,0,-1,-2,-2,-1,0,-2
1528445515774473,-3,-2,-2,0,-4,-1,-2,-2
1528445515779422,1,-3,-2,-2,1,0,0,-1
1528445515779422,-2,-2,1,0,-2,-1,-3,1
1528445515795380,-2,-2,-1,-2,1,-1,1,0
1528445515795380,-1,-1,-1,1,-1,-3,-3,-2
1528445515841256,-1,1,-1,-1,-1,0,0,0
1528445515841256,-1,-2,0,-1,0,0,-2,-2
1528445515842254,-2,-1,-2,-1,-1,0,0,-2
1528445515842254,-1,1,-2,-1,-2,-1,-2,-1
1528445515843251,0,0,-2,0,0,0,-1,0
1528445515843251,-1,-1,-1,0,-2,0,0,-2
1528445515844249,0,1,-1,-1,-1,-2,0,-1
1528445515844249,-1,-1,-2,0,0,0,-1,0
1528445515854223,0,-1,0,-1,0,0,-2,-1
1528445515854223,-2,-1,-2,0,0,-4,-1,-1
1528445515855220,0,-2,-1,0,0,0,-1,-2
1528445515855220,-2,-2,-1,-1,-1,-1,2,-2
1528445515863197,0,0,-2,-1,-1,-1,-2,-1
1528445515863197,1,-1,0,-1,0,0,0,1
1528445515876202,-1,-1,-1,0,-1,-3,0,0
1528445515876202,-1,-2,0,-1,-2,-4,-2,-1
1528445515885139,-2,-1,-1,0,-1,-2,0,0
1528445515885139,0,-1,0,-1,-1,-1,-1,-3
1528445515908077,-2,-1,-3,-2,-1,-2,-2,0
1528445515908077,0,-3,0,-2,-1,0,-1,-2
1528445515909076,-1,-2,-1,-2,1,-1,0,-1
1528445515909076,-3,0,-2,-2,-3,-2,-1,-2
1528445515922041,-1,0,-1,-2,-1,0,-1,-2
1528445515922041,0,-3,-2,-1,-2,-2,-1,-2
1528445515930019,-1,-2,-3,-2,-1,-2,0,-1
1528445515930019,-1,0,0,0,0,0,-1,-2
1528445515945002,-2,-2,0,-2,-1,0,-1,0
1528445515945002,0,1,-1,0,0,-1,-2,0
1528445515946974,0,-2,-1,-1,0,0,0,-1
1528445515946974,-1,-1,-1,0,0,-1,-2,-3
1528445515967931,0,-1,0,0,-2,0,-1,0
1528445515967931,1,-1,0,-2,-1,-3,-1,-1
1528445515968932,-2,-1,-1,0,-2,0,-1,0
1528445515968932,-1,0,-2,-2,-2,-1,-2,0
1528445515981880,0,-2,-3,-2,-2,-1,-1,0
1528445515981880,0,1,-3,0,-2,0,0,0
1528445515989859,-1,0,-1,0,0,-3,-2,-2
1528445515989859,-3,-2,-1,-2,-1,0,1,-1
1528445516004821,-1,-1,-2,1,-1,-2,-2,-2
1528445516004821,-1,-1,-1,0,0,-1,0,0
1528445516006815,0,0,0,0,-1,-1,-2,-2
1528445516006815,0,1,-2,-1,-1,0,-1,1
1528445516027761,-1,0,0,-1,1,0,-2,-1
1528445516027761,-2,-2,-1,0,1,-2,-2,0
1528445516028757,-1,0,0,0,-1,1,0,-1
1528445516028757,-2,-1,-1,-2,0,0,1,-1
1528445516041771,0,-1,-2,-2,-1,-4,0,-2
1528445516041771,-2,-1,0,-2,1,-2,-2,-2
1528445516048702,0,-1,0,-2,0,-1,0,0
1528445516048702,0,-2,-1,-2,-1,1,-2,-1
1528445516064660,-3,-1,0,-1,0,-1,-1,0
1528445516064660,-1,-2,-1,-2,-2,0,-1,-2
1528445516066655,0,-2,-1,-1,0,-4,-1,-2
1528445516066655,-2,-2,1,-1,0,-2,-1,-2
1528445516087625,0,-1,-1,-1,-1,-1,-3,-2
1528445516087625,-2,0,-1,-2,-1,-2,-2,-1
1528445516089632,0,-1,0,-1,-1,0,0,-1
1528445516089632,0,-1,-2,-2,-2,-2,-2,-1
1528445516101561,0,-1,-1,0,-2,-1,0,-2
1528445516101561,0,-1,1,0,-1,0,-1,0
1528445516110537,-3,-3,-2,-2,-1,0,-1,-2
1528445516110537,-2,-3,-1,-1,-1,0,-1,0
1528445516125497,-2,0,-1,0,-1,-4,-3,-2
1528445516125497,-1,-1,-3,-1,-1,-1,0,-2
1528445516126618,-1,0,0,-1,-1,-1,-1,-1
1528445516126618,0,-1,-2,1,-2,0,0,0
1528445516147476,-1,-1,-1,1,0,0,-2,-2
1528445516147476,0,-1,-1,-1,-1,-2,-2,-1
1528445516149433,0,-1,-2,0,-2,-2,-1,-1
1528445516149433,-2,-3,1,-2,-1,-3,0,-1
1528445516161451,1,1,0,0,0,2,2,0
1528445516161451,0,-1,-1,-1,0,-1,0,1
1528445516170415,-1,-2,-2,-1,1,-1,-1,0
1528445516170415,-1,1,-1,-2,-1,-2,-3,-2
1528445516185338,-1,-2,-2,-3,-2,-1,-1,-1
1528445516185338,0,0,0,-2,-3,0,0,-3
1528445516186353,0,-1,0,-2,-2,0,-2,-2
1528445516186353,0,-1,-1,-1,0,-1,1,0
1528445516207314,-1,-4,-1,-1,1,-6,-3,-1
1528445516207314,-1,-1,-2,0,0,0,-2,-1
1528445516209313,-2,-1,-2,-1,-2,-1,-1,-3
1528445516209313,0,0,0,-1,-2,0,-1,-1
1528445516221241,-4,-5,-1,0,-3,1,-1,-1
1528445516221241,2,3,-1,0,0,0,0,0
1528445516230217,-4,-3,0,0,-1,-1,-1,-2
1528445516230217,-1,-2,0,-1,-1,-1,-2,0
1528445516245215,-1,-1,-2,-2,0,-1,1,0
1528445516245215,-2,-1,-2,-2,-1,-1,-1,0
1528445516247177,-1,-1,-2,0,-1,0,-1,0
1528445516247177,2,0,-1,-1,-1,-3,-1,-1
1528445516267135,-2,-1,-1,-1,-2,-2,-1,-1
1528445516267135,0,-2,-1,-2,-2,0,-2,-2
1528445516269114,0,1,-1,-2,0,-1,-1,0
1528445516269114,-2,-1,-2,1,1,1,0,-2
1528445516281081,0,1,-3,-2,-2,2,-2,-1
1528445516281081,-1,-2,-1,-2,-3,-7,-3,-1
1528445516290062,-1,-1,0,-2,-2,-1,-1,-1
1528445516290062,-1,-3,-1,-1,0,-2,-1,-2
1528445516305044,-1,0,1,-2,0,0,0,0
1528445516305044,-2,-1,-1,-3,-1,2,0,0
1528445516307038,1,-1,-2,-1,-2,-4,-1,-1
1528445516307038,-1,0,-1,0,-2,-1,-1,-1
1528445516327956,0,-1,-1,-1,0,-2,-1,-3
1528445516327956,-2,-1,1,-1,0,-1,1,-2
1528445516328954,-2,-2,-1,-1,-2,-2,-2,-2
1528445516328954,-2,-3,-2,-1,-2,-1,-4,0
1528445516340921,-1,1,-3,-1,-2,0,1,0
1528445516340921,-1,0,-3,-1,-1,0,-2,0
1528445516349903,-3,-1,-2,-1,-2,-2,1,-3
1528445516349903,0,-1,0,-1,-2,-2,-1,-1
1528445516364857,-1,-2,-1,-2,-1,1,-1,-1
1528445516364857,0,-2,0,-1,0,1,1,-1
1528445516366852,-1,-3,-3,0,1,0,-2,0
1528445516366852,1,1,1,-2,-2,-4,-4,-1
1528445516387796,0,-1,-2,-2,-2,-3,-1,-2
1528445516387796,1,-1,-2,-1,0,1,0,-1
1528445516388793,-2,0,0,-1,-1,-1,-1,0
1528445516388793,-4,-2,-1,-1,1,1,1,-1
1528445516400761,-3,-5,-2,0,0,-1,-3,1
1528445516400761,2,4,0,0,-1,-1,-2,-1
1528445516409751,-1,0,-1,-1,-2,0,-2,0
1528445516409751,-1,0,-1,-1,-1,-1,2,-2
1528445516424696,-2,0,0,-1,-2,-2,-1,-1
1528445516424696,-4,-3,-3,-2,0,-1,-2,-1
1528445516426692,0,-2,-2,-1,0,0,-2,0
1528445516426692,0,-1,-2,0,0,-3,0,-1
1528445516447635,0,1,0,0,0,0,0,-2
1528445516447635,-2,-2,1,0,-2,-2,0,-1
1528445516449631,0,2,1,-1,-1,-1,3,-1
1528445516449631,-3,-1,-3,-1,0,0,-2,0
1528445516461621,0,1,0,-1,1,0,-1,-1
1528445516461621,-3,-2,-2,-2,0,0,-2,-2
1528445516470574,-1,-1,-1,0,0,-1,0,-1
1528445516470574,0,-2,-2,-2,-2,0,-2,-1
1528445516485581,-1,-2,0,-3,-2,-3,-4,0
1528445516485581,-1,-1,1,-1,-1,-2,0,0
1528445516487579,-3,-1,-1,-1,-3,0,-1,-1
1528445516487579,0,-1,-1,-1,0,-1,-1,0
1528445516507775,-1,0,-3,-1,0,1,0,-3
1528445516507775,-1,-2,1,-1,-1,0,-1,-2
1528445516509520,0,-2,-2,-3,-1,-2,-1,0
1528445516509520,-2,-1,0,0,-2,-1,-2,1
1528445516530511,0,-2,1,-1,-1,0,0,1
1528445516530511,0,-2,0,0,-3,-2,-2,2
1528445516531462,-1,-1,-2,1,-1,0,-1,-1
1528445516531462,-1,0,-2,0,-2,-2,-2,-2
1528445516545423,0,0,-1,-1,0,-1,0,-3
1528445516545423,-1,0,-2,-2,-1,3,-1,-4
1528445516546439,-1,0,0,-2,-1,-2,0,-2
1528445516546439,-1,2,-1,-3,-1,0,-1,-2
1528445516568367,-1,-1,-1,-3,0,-3,-3,-2
1528445516568367,0,-1,-2,-2,1,-1,-1,-1
1528445516569360,0,0,-2,-1,-1,-1,-2,0
1528445516569360,1,-2,-1,-1,-2,-3,0,-1
1528445516590549,-3,0,0,0,0,1,0,0
1528445516590549,-1,0,-1,-1,-1,-4,-1,-1
1528445516591554,0,-2,0,-1,-1,-3,-1,0
1528445516591554,-1,-2,0,-1,0,1,-1,-2
1528445516604266,1,-1,-2,-1,-2,-1,-2,-2
1528445516604266,-1,0,-1,0,0,0,0,-1
1528445516611248,-2,-2,0,-1,-1,-2,-3,-3
1528445516611248,0,1,0,-1,-1,-1,-1,0
1528445516627205,-1,-1,-3,-2,0,-1,0,-2
1528445516627205,-2,-3,-2,-1,0,-1,-2,0
1528445516629227,-1,1,-1,0,0,-1,-3,-1
1528445516629227,-2,-2,-3,-2,1,-2,-2,-2
1528445516650143,-1,-2,-1,-1,0,-1,-2,-1
1528445516650143,-1,0,0,-1,-2,0,0,0
1528445516652138,-1,-3,-3,-1,-1,-1,-1,-2
1528445516652138,-1,-2,0,-1,-1,-1,-2,-1
1528445516664107,1,1,-1,0,-2,0,-1,-1
1528445516664107,-1,-1,-1,-2,1,-2,1,-2
1528445516673082,1,-1,0,-3,-3,-2,-1,0
1528445516673082,-3,-2,0,-1,-1,-2,-1,-2
1528445516688043,-2,-3,-1,0,-1,-1,0,-1
1528445516688043,-2,-1,-1,-1,0,-2,-1,-1
1528445516689040,-1,-1,-1,0,-2,-3,-1,-1
1528445516689040,0,-1,0,-2,-2,-1,1,-2
1528445516710033,-4,-4,0,-1,-2,0,-1,-1
1528445516710033,2,3,0,-1,-1,0,-1,-1
1528445516711979,-1,-2,-1,-2,1,1,0,-1
1528445516711979,-3,-5,-2,1,-1,0,-1,-1
1528445516723998,1,2,-1,-1,-1,-4,-2,-1
1528445516723998,-2,-2,-1,0,-1,1,-1,-2
1528445516732923,-1,1,0,-1,0,1,-2,-2
1528445516732923,0,0,-1,-1,-2,0,1,-1
1528445516747937,0,0,0,0,-1,-1,-1,-1
1528445516747937,-2,-2,-1,-1,-2,-4,-3,0
1528445516748908,-1,-1,0,-2,-1,-1,2,-1
1528445516748908,-2,-3,-2,-2,-1,-1,-1,1
1528445516769881,-2,-3,-1,0,-1,0,-1,-2
1528445516769881,1,-1,-1,0,-1,-1,-3,-2
1528445516771850,-2,-2,-2,0,0,-2,-2,0
1528445516771850,-1,-2,-1,-1,-1,-1,-2,0
1528445516783840,3,6,0,-1,-1,0,0,3
1528445516783840,-2,-4,-3,-1,-1,1,0,-1
1528445516792763,-1,-1,-1,1,-1,-1,0,-1
1528445516792763,1,0,-2,-1,-1,-2,1,-2
1528445516805783,-1,-3,-1,-2,-2,-1,-2,-3
1528445516805783,0,-2,-1,-1,-2,-1,0,0
1528445516815721,-7,-7,-1,-2,-1,-2,-1,0
1528445516815721,4,8,-1,-1,0,-2,-2,-1
1528445516829718,-4,-1,0,0,-1,1,0,-1
1528445516829718,-1,-2,-1,-2,-1,-2,-1,-2
1528445516836704,-1,-2,-2,0,-1,3,-1,-3
1528445516836704,-2,-3,-2,0,-1,0,0,-1
1528445516852657,-1,-1,-3,-2,-2,-2,-1,-1
1528445516852657,-4,-1,-1,0,1,-2,-1,0
1528445516854652,1,-1,-1,0,-1,0,-1,1
1528445516854652,0,-3,-1,-3,-2,-1,-2,-1
1528445516866620,0,0,-3,-1,-1,-1,-1,0
1528445516866620,-3,-2,-2,-1,-2,1,0,-1
1528445516875542,0,1,-1,-1,-1,-3,-1,-2
1528445516875542,1,1,2,1,0,0,0,-2
1528445516889558,-3,-4,-2,-1,-2,-2,-2,-1
1528445516889558,-1,-2,-1,0,-3,-1,-1,-1
1528445516896540,-1,-3,-1,-3,-1,0,-1,-1
1528445516896540,-2,-2,-1,-1,-2,0,-1,-1
1528445516912497,-2,-3,0,0,-1,-2,-1,-1
1528445516912497,-1,-2,0,0,0,-2,-1,-1
1528445516914438,1,2,-1,0,-2,0,0,-1
1528445516914438,-2,-2,0,-1,-1,-1,-1,-2
1528445516926444,0,-2,-2,-1,-2,1,2,-1
1528445516926444,1,1,0,-1,-1,-1,-1,-1
1528445516935393,-1,-2,-1,-1,0,-2,-3,-3
1528445516935393,-1,0,0,-2,0,-1,-1,0
1528445516949344,1,1,-3,-1,-1,1,-2,0
1528445516949344,0,-2,-2,-1,-3,0,-1,-2
1528445516956325,-1,-1,-1,-2,-2,-3,-1,-1
1528445516956325,-1,-1,-2,-1,-2,0,-1,-1
1528445516972283,0,-1,-1,0,-1,0,-1,0
1528445516972283,-2,-1,-1,-3,0,-1,0,0
1528445516974277,-1,1,0,-2,-1,1,-1,-1
1528445516974277,-2,-2,-1,0,-1,-2,-1,0
1528445516986461,-2,-2,0,-1,0,-3,2,0
1528445516986461,0,-2,-1,-1,-2,0,-1,-2
1528445516995233,-2,0,-1,-1,-1,-1,-1,-1
1528445516995233,-1,-1,-1,-1,-3,-3,-2,-1
1528445517009738,-2,-2,-1,-2,-2,-1,-2,0
1528445517009738,-1,0,-2,-2,-2,-1,1,0
1528445517016451,-1,-2,-1,1,-2,0,-2,-1
1528445517016451,-2,0,-1,0,-1,1,-1,-1
1528445517031650,-1,-2,0,0,0,-2,-3,-2
1528445517031650,-1,-1,0,-1,-1,-3,-2,1
1528445517040387,-2,-4,-1,-1,-2,0,0,0
1528445517040387,2,3,-2,-2,-1,-1,0,0
1528445517055685,0,0,-1,-1,-1,-1,-2,-2
1528445517055685,1,-2,-1,-1,-1,0,-1,-1
1528445517057542,-2,-3,-1,-2,-2,-1,-1,-1
1528445517057542,-1,-4,-1,-1,1,-1,0,0
1528445517069574,-1,-3,-1,-1,-2,0,0,0
1528445517069574,-2,-1,-1,-1,1,-1,-2,-2
1528445517076890,1,0,-1,-1,-1,-3,-2,1
1528445517076890,-1,-3,-2,-1,-2,-1,-1,-1
1528445517093338,1,-3,0,-1,0,0,-1,-1
1528445517093338,-3,-1,-2,1,0,-2,1,-1
1528445517094353,1,1,0,0,-1,0,-1,0
1528445517094353,-2,-1,-1,-1,0,-1,-1,0
1528445517115637,-2,-2,0,1,-1,-1,-2,-2
1528445517115637,-1,1,-1,-1,0,-3,-2,-1
1528445517117381,0,-1,-2,-2,0,0,0,-2
1528445517117381,1,-1,0,-1,-1,-1,-1,-2
1528445517129427,-2,-1,-1,-2,-2,-3,-2,-1
1528445517129427,0,-1,-1,-2,-3,-1,-1,-2
1528445517137814,-1,-1,0,0,-2,-1,-1,-1
1528445517137814,-1,-2,-1,-1,-1,0,0,-1
1528445517152774,-1,-1,-3,-1,-1,1,0,0
1528445517152774,-1,-2,-1,-1,-2,-2,-2,-1
1528445517153773,-2,-1,0,-1,1,-2,-1,-1
1528445517153773,-3,-3,-1,-1,0,0,-2,0
1528445517175801,0,2,-2,-1,-1,-2,1,-3
1528445517175801,-1,-1,-1,-1,-1,1,0,-2
1528445517176742,-1,0,0,0,-2,-2,0,-1
1528445517176742,-2,-1,1,0,0,0,1,1
1528445517190230,-2,-2,-1,-2,-1,-2,-2,0
1528445517190230,1,-2,-2,-2,-1,0,0,0
1528445517196546,0,-1,-3,-2,-1,0,-1,-2
1528445517196546,-3,-1,-1,-1,-1,-2,-2,1
1528445517213380,-2,-1,0,-1,0,-1,1,0
1528445517213380,-2,0,-1,0,0,0,1,-1
1528445517214137,-1,-1,-1,-1,-1,-2,-3,-1
1528445517214137,1,0,-1,-1,-1,-2,0,-1
1528445517235736,-1,-2,-1,1,-1,-2,-2,0
1528445517235736,-1,-2,1,0,-1,0,-2,1
1528445517236586,1,-1,-2,-2,0,-1,0,0
1528445517236586,1,-3,-3,-1,-1,0,-1,-2
1528445517249828,0,1,0,-1,-2,-1,-2,-3
1528445517249828,-1,-1,-1,0,-1,-2,-1,-3
1528445517256057,-2,-2,-1,-1,-1,0,-2,-1
1528445517256057,3,4,-1,-1,-1,0,0,-1
1528445517272819,0,-1,-1,0,-1,-6,-2,0
1528445517272819,-1,-1,-1,0,-1,0,0,-1
1528445517275027,-1,-1,-2,-3,-1,-2,0,-2
1528445517275027,-3,-3,1,-4,-2,-1,0,-1
1528445517295796,1,0,-1,-1,-1,1,0,-1
1528445517295796,0,2,-1,-1,-1,-3,-2,-2
1528445517296757,-1,-2,-1,0,-1,0,-1,-1
1528445517296757,-1,-3,-2,-1,-2,0,0,-2
1528445517308986,-2,-3,-2,-2,-1,0,-1,-1
1528445517308986,-2,-3,-2,-2,-2,-1,0,0
1528445517317717,0,1,0,-2,-1,-1,0,-2
1528445517317717,-2,-1,-1,-1,-1,-1,-2,-3
1528445517332904,0,-1,-1,0,-1,0,0,-1
1528445517332904,1,-1,-1,0,-3,-2,-1,-1
1528445517334919,0,-1,-2,0,-2,-1,0,-1
1528445517334919,-1,-2,-2,-1,0,-2,0,-1
1528445517355775,-2,-2,0,-2,0,-1,-1,0
1528445517355775,2,3,-1,-1,0,-1,0,-1
1528445517356611,-4,-3,-2,-1,-2,-1,-3,-1
1528445517356611,0,5,0,-3,-1,-2,-2,-2
1528445517368566,-2,-1,-1,-1,0,-1,1,-1
1528445517368566,-1,-4,-2,-1,0,0,-2,-1
1528445517377936,1,-2,-2,-1,-3,-1,0,-1
1528445517377936,-2,-3,-1,1,-2,-2,-2,0
1528445517393229,-2,-1,-1,0,-2,0,-3,-1
1528445517393229,-1,1,0,-2,-1,-1,0,-1
1528445517393909,-1,0,-1,1,-1,-1,1,-1
1528445517393909,-2,-2,0,-1,-1,-2,0,-2
1528445517415466,-2,1,-2,-2,0,-1,0,0
1528445517415466,-1,-3,-1,-1,-1,0,-1,-1
1528445517417460,0,0,0,0,-1,0,0,-1
1528445517417460,-2,0,-1,-1,-2,-1,1,-2
1528445517429593,2,-2,-1,-2,0,0,-4,-2
1528445517429593,-2,1,-3,-1,-1,-1,-2,0
1528445517437779,-1,-1,-1,-2,0,0,1,0
1528445517437779,-1,-2,-3,0,0,-1,-2,0
1528445517453096,-1,-1,0,-1,-2,0,0,-2
1528445517453096,-2,-2,-1,-2,-1,-3,-2,0
1528445517454947,-1,-1,0,0,-1,-1,-1,-1
1528445517454947,-2,-1,-2,-1,-2,-2,-1,-1
1528445517475334,-3,-3,-1,-1,0,0,0,0
1528445517475334,-3,-6,-1,-3,-1,0,-1,-1
1528445517476981,1,0,0,-1,-1,-2,-1,1
1528445517476981,-1,-2,-1,-2,-1,0,-2,-1
1528445517489458,-2,-1,-1,0,0,-1,0,0
1528445517489458,-2,-2,-1,0,0,0,-2,-2
1528445517497458,-1,0,0,-2,-1,0,-1,-2
1528445517497458,-2,0,-2,-1,0,0,-2,0
1528445517512307,0,-1,-1,-1,0,-1,0,0
1528445517512307,-2,0,-1,-1,-1,-2,-1,-2
1528445517513309,0,-2,-2,2,0,-1,-1,0
1528445517513309,-1,-4,-1,1,-2,-2,-2,-1
1528445517535118,0,-1,-1,-2,-4,-2,-1,0
1528445517535118,1,0,0,-2,-1,0,0,-1
1528445517535118,-2,-1,-2,-3,0,-2,-2,-2
1528445517535118,-1,0,-2,-2,0,0,0,1
1528445517548283,-3,0,-1,-1,-1,-2,1,-3
1528445517548283,-1,-2,-1,-2,-1,-1,0,-1
1528445517557628,-2,-2,-2,-1,-1,0,-3,-3
1528445517557628,-4,-4,-1,-2,0,-2,-3,-3
1528445517572596,4,6,0,-2,-2,-3,0,0
1528445517572596,-2,-1,-2,-1,-3,-2,-1,-2
1528445517572596,-1,-2,-1,-1,-1,0,-1,1
1528445517572596,0,0,1,1,-1,1,0,-2
1528445517594448,-1,-3,-2,0,-1,-1,0,1
1528445517594448,0,-1,-2,0,-1,-1,-1,-1
1528445517595445,0,0,-2,-2,-1,-1,1,0
1528445517595445,-1,-1,-3,-1,-2,-1,-1,-2
1528445517609135,-1,-2,0,0,0,-2,-2,-2
1528445517609135,-1,-2,-1,-2,0,0,0,-1
1528445517625008,-2,-2,-1,1,-1,-2,-2,-1
1528445517625008,1,-2,-2,-3,1,-2,-1,1
1528445517632670,-1,-3,-1,-1,0,-1,-2,-2
1528445517632670,-1,-1,-2,-1,-1,-1,-1,-1
1528445517632670,-1,0,-1,-2,-1,-2,-1,-2
1528445517632670,-1,-1,0,-1,-2,-1,-1,-1
1528445517654855,0,-1,-1,-2,-1,-2,-1,-1
1528445517654855,-1,-3,0,-3,-2,-2,1,-1
1528445517655854,0,-2,0,-1,-1,-1,-1,0
1528445517655854,0,-1,1,0,0,0,-1,0
1528445517668819,-1,-2,-3,-1,-1,0,-1,0
1528445517668819,1,0,-1,1,-1,-3,-3,-2
1528445517676798,-1,-1,-2,-1,-2,-1,-2,0
1528445517676798,-1,1,-1,-2,0,-1,0,-1
1528445517692592,-2,0,0,0,0,0,-1,-2
1528445517692592,-2,-1,0,-1,0,-1,0,0
1528445517693528,-1,-2,-1,-2,0,-2,-1,-3
1528445517693528,-1,-2,-2,-1,-2,-1,0,0
1528445517714772,-2,-2,0,-3,-2,-1,-1,-1
1528445517714772,-1,0,-2,0,-1,-1,-2,-1
1528445517715431,-1,-1,1,-2,-1,-1,0,0
1528445517715431,-2,1,0,0,-2,-2,1,-2
1528445517729413,-1,0,-1,0,-1,0,-1,1
1528445517729413,-1,-1,-1,0,0,-1,-1,0
1528445517737555,-1,-1,-1,0,0,-1,-2,-1
1528445517737555,0,-1,-1,-3,0,-1,0,-3
1528445517752336,-2,-2,-1,-2,-2,-1,-1,-1
1528445517752336,-1,-1,0,0,-2,0,-2,-2
1528445517752336,-2,-1,-1,1,-2,-2,-1,0
1528445517752336,0,-2,0,-1,-1,-2,-1,-2
1528445517775515,-2,-2,-1,-1,-1,0,-1,0
1528445517775515,-1,-2,-2,-1,1,-1,0,-1
1528445517782509,-1,0,-2,-1,0,0,-1,-1
1528445517782509,0,-1,-1,-2,-1,1,-1,1
1528445517789445,-1,0,-2,-1,-2,-1,-2,-1
1528445517789445,0,-1,0,-2,-2,-2,-1,-2
1528445517797673,-3,0,0,0,-2,0,0,-1
1528445517797673,1,1,0,0,-1,-3,-2,-2
1528445517812691,0,-2,-1,0,-1,0,-2,-2
1528445517812691,-2,-1,-1,0,-2,-2,-1,1
1528445517812691,-1,-1,-1,-3,0,-1,-1,-2
1528445517812691,-2,-1,-1,-1,0,-1,0,0
1528445517834726,-1,0,-1,-2,0,-1,-1,0
1528445517834726,-1,-2,-1,2,-1,-2,-2,-1
1528445517835766,-1,-1,-1,-1,0,-2,-1,0
1528445517835766,0,-2,-1,-1,-2,0,-1,-1
1528445517849263,0,0,1,-1,-1,-2,-2,-1
1528445517849263,-2,-2,-1,-2,-1,0,1,0
1528445517857327,0,-1,-1,-1,-1,-2,0,-1
1528445517857327,-1,-2,-2,-1,0,-1,-2,-1
1528445517872654,-1,-2,-3,0,-2,-1,-1,-2
1528445517872654,0,-1,0,-1,-1,0,-2,0
1528445517872654,0,-1,-1,-2,-3,-3,-1,-2
1528445517872654,-2,0,-1,0,-1,-1,0,-1
1528445517895053,-1,-1,0,0,-1,-1,0,-1
1528445517895053,1,1,-2,-3,0,-2,1,1
1528445517896089,-2,-1,-1,0,-2,-1,-1,0
1528445517896089,-1,-1,0,-1,-2,-1,-1,0
1528445517909357,-1,-3,-1,-2,-1,-1,-1,0
1528445517909357,-2,0,-2,1,-1,-2,-2,0
1528445517917352,0,0,0,-2,0,-1,-2,-2
1528445517917352,-2,-1,-1,-1,-2,-2,-2,-1
1528445517931954,-3,0,-1,-1,-1,-1,-1,-2
1528445517931954,-1,-2,-2,-1,0,-1,-1,-3
1528445517932950,0,-1,-1,1,-1,1,-1,0
1528445517932950,0,-1,-2,1,-2,-3,-2,-1
1528445517953914,0,-2,-1,0,0,-2,-1,1
1528445517953914,-2,-1,0,-2,0,-1,0,-2
1528445517954892,1,-3,-1,-1,-2,1,0,0
1528445517954892,-1,-2,-1,-1,-1,-1,-2,-2
1528445517977262,-3,0,-1,-1,-3,-1,-1,-1
1528445517977262,1,1,0,-1,-1,0,-2,-3
1528445517978258,-1,0,-2,-1,-1,-4,-2,0
1528445517978258,-1,-1,-1,-1,0,-2,-1,-1
1528445517992559,-2,-2,-1,0,-1,-2,-2,1
1528445517992559,-3,-2,-1,-1,-1,0,-3,-1
1528445517992559,-2,0,-2,-1,-1,-1,0,-2
1528445517992559,0,-1,-1,-1,0,0,-1,-2
1528445518015203,-1,1,-2,-2,0,-2,-1,-3
1528445518015203,0,-1,0,0,-2,1,-1,-1
1528445518015203,-1,-1,-2,0,0,-1,-1,1
1528445518015203,0,-1,-1,-2,-1,0,-2,0
1528445518037683,1,0,-1,-1,-2,2,1,-1
1528445518037683,-2,-1,-2,-2,-3,-1,-3,1
1528445518038420,-2,-1,-1,-1,0,-3,-4,0
1528445518038420,-2,-1,-1,0,-1,-1,1,1
1528445518052710,-1,0,-1,-1,-2,0,-3,-2
1528445518052710,0,-2,-1,-1,-1,-2,-1,-1
1528445518052710,0,-2,-1,-1,0,0,0,0
1528445518052710,0,0,-1,0,-1,-1,-2,-2
1528445518074575,0,-3,-2,-1,-1,-2,-1,-2
1528445518074575,0,-3,-1,-1,-1,-1,-1,-2
1528445518075310,-1,-2,-1,-1,-1,0,-2,1
1528445518075310,-2,-1,-1,0,-2,0,-1,-1
1528445518105491,0,0,-1,0,1,-1,-2,-1
1528445518105491,0,0,0,-1,-1,0,-1,-2
1528445518106490,-1,-1,-1,-2,-3,-3,-2,-4
1528445518106490,-2,0,-3,-1,-2,-2,-2,-1
1528445518112477,0,-2,-1,-1,-3,-1,0,-1
1528445518112477,-1,-2,0,-1,0,-2,-2,0
1528445518113366,-1,1,0,0,-1,0,0,-2
1528445518113366,-1,-1,0,-1,0,0,-1,-3
1528445518134458,-2,-1,-1,0,-2,-2,0,-2
1528445518134458,0,-1,-2,-2,-2,0,-2,-1
1528445518135454,-1,-2,0,-1,-2,-1,0,-2
1528445518135454,-1,-1,-1,0,-4,-2,-2,-1
1528445518157445,-1,0,-1,0,-1,0,-1,0
1528445518157445,-1,-1,-2,-1,0,-4,-4,-2
1528445518158393,-4,0,0,-1,1,-2,-4,0
1528445518158393,-1,-2,0,-1,0,0,-1,-1
1528445518171359,-2,-2,-2,-2,0,0,4,1
1528445518171359,-2,-1,-1,-2,-3,-4,-2,-3
1528445518172372,-2,-2,-2,1,-2,-3,-1,-2
1528445518172372,-1,-2,1,-2,-2,-1,0,0
1528445518194297,1,-1,-1,-2,-1,3,-2,0
1528445518194297,-2,0,-1,-1,0,-1,2,0
1528445518195294,0,0,-2,-1,0,-2,-10,-3
1528445518195294,-1,0,-1,0,-2,-1,3,-1
1528445518218395,1,-1,0,-2,-1,-2,1,0
1528445518218395,2,-2,1,0,-1,0,3,1
1528445518218395,1,-1,-1,-2,-2,-1,0,0
1528445518218395,-1,0,-1,-1,1,-2,-2,-1
1528445518232456,-2,-1,-1,-1,-2,-3,-5,-3
1528445518232456,-2,-1,-2,1,-1,-1,-2,0
1528445518233193,-2,-1,-1,-1,-1,0,1,-1
1528445518233193,-1,0,-1,-2,-1,0,-1,-1
1528445518255247,-2,0,-3,0,-1,-1,-1,-1
1528445518255247,-3,0,-1,-2,0,-1,-2,-1
1528445518255247,0,-2,-2,-2,-1,0,2,-1
1528445518255247,-2,-1,-1,0,-1,0,0,-1
1528445518277451,-1,-3,-1,-1,-4,-3,-2,-2
1528445518277451,-3,-1,-1,-2,-2,0,-3,-1
1528445518278450,0,-1,-2,-1,0,-2,0,0
1528445518278450,-1,-1,-1,-1,-2,-3,-1,0
1528445518292590,-1,-2,1,0,1,-2,-3,-1
1528445518292590,0,-2,-2,-1,0,1,0,-1
1528445518293486,-2,1,0,-1,0,0,0,0
1528445518293486,0,-1,0,-1,-1,-1,-2,-2
1528445518315042,-3,-2,-3,-1,-1,-1,-2,1
1528445518315042,-1,-1,0,-1,-1,-2,1,0
1528445518315660,-1,-2,0,-2,0,1,1,0
1528445518315660,-1,0,-2,-1,-1,1,-1,-1
1528445518338005,-1,-1,0,0,-1,-2,0,-1
1528445518338005,0,0,-2,-1,-1,-2,-2,-2
1528445518338595,-2,1,-1,-2,-3,-1,-1,0
1528445518338595,-3,-1,-1,-1,-1,-2,-1,-1
1528445518351800,1,0,0,-2,-1,0,-1,-1
1528445518351800,0,0,0,-1,-1,-1,-1,-2
1528445518352581,-1,-1,-1,0,-2,-1,-1,-2
1528445518352581,0,-1,-2,-1,0,0,-1,0
1528445518374502,0,0,-1,-1,-2,-2,-2,-2
1528445518374502,1,-2,-4,-1,-1,-2,0,0
1528445518375541,0,-1,-2,-2,-3,0,0,-1
1528445518375541,0,1,0,-2,0,0,-2,-1
1528445518397704,-2,0,-3,-2,-1,-1,-1,0
1528445518397704,-2,-1,-2,-2,-2,-1,-1,-2
1528445518398437,0,-1,-2,0,-3,-2,-1,-2
1528445518398437,0,-2,-2,0,-2,-1,-1,-2
1528445518412665,-2,-1,0,-2,0,-1,0,0
1528445518412665,0,-1,0,0,-1,-3,-2,0
1528445518412665,0,-3,-1,-2,0,0,-1,-1
1528445518412665,-2,0,-1,0,0,-1,-1,-2
1528445518434858,1,-1,-2,0,-1,-3,-2,-3
1528445518434858,-2,-2,-2,-2,-2,1,2,0
1528445518435858,0,-2,-1,-2,0,-1,-1,-2
1528445518435858,-1,-1,1,-1,-3,-1,-2,0
