timestamp,emg1,emg2,emg3,emg4,emg5,emg6,emg7,emg8
1528444955866795,-2,-1,-1,-1,-1,-1,-1,-1
1528444955866795,-1,-2,-2,-2,-1,-1,-1,-2
1528444955882724,1,-1,-1,-1,-2,-3,-4,-1
1528444955882724,-2,1,-1,0,0,0,-1,-2
1528444955897660,0,3,0,-2,0,0,-2,-2
1528444955897660,-2,-1,-2,0,-2,-2,-1,-1
1528444955904640,-2,-2,-2,-2,-1,-1,1,-1
1528444955904640,-1,-1,1,-1,-1,-1,0,0
1528444955919602,-2,-2,-2,-1,-3,-2,-2,-1
1528444955919602,-1,-1,0,-1,-1,0,-2,-2
1528444955927580,-1,0,-1,-1,-2,-3,-1,-1
1528444955927580,-1,-1,-1,-1,-2,1,-2,-1
1528444955942567,0,-1,-2,-1,-2,1,0,0
1528444955942567,-2,0,-2,-2,0,-2,0,-2
1528444955957499,-1,-1,0,0,-2,-2,-2,0
1528444955957499,-1,1,-1,-1,-2,-1,-1,0
1528444955964481,0,0,-1,-2,-1,-1,-2,-1
1528444955964481,1,-2,-1,-1,-2,-2,0,0
1528444955979441,-1,-2,0,1,-3,0,-2,-1
1528444955979441,0,-2,-3,0,-1,-1,0,-1
1528444955987453,-2,-1,-1,1,-2,-2,-1,-3
1528444955987453,-2,-1,-2,-2,-1,0,0,0
1528444956002419,-1,-3,-2,-1,1,-1,-1,-1
1528444956002419,0,-1,-2,-2,-1,-1,0,-1
1528444956009390,-2,-2,-1,-2,-1,-1,-2,0
1528444956009390,0,0,-1,0,-2,-1,-1,-2
1528444956024322,0,-1,-1,0,1,-1,-1,-1
1528444956024322,-1,-1,0,1,-3,-2,-1,-1
1528444956039282,-1,-1,-1,-1,-1,0,-1,-1
1528444956039282,0,-3,0,-1,0,-2,-1,-2
1528444956047295,-1,-2,-2,-2,-1,-3,-1,1
1528444956047295,-1,1,-1,-1,0,0,-2,1
1528444956062220,0,-1,-1,-2,-2,0,0,-1
1528444956062220,0,-2,-3,-1,-2,-2,0,0
1528444956070198,-2,-2,-1,-1,0,-2,-1,-1
1528444956070198,-1,-3,-1,0,-2,0,0,-2
1528444956085217,-2,0,-1,-1,0,2,0,-1
1528444956085217,-1,0,-2,-2,-1,-1,1,0
1528444956100120,0,-1,-1,-2,-1,0,0,-2
1528444956100120,-1,-2,-1,1,-2,-1,-1,-2
1528444956107099,-1,-2,-1,0,-1,-1,-2,0
1528444956107099,-1,-2,-2,0,-1,-1,-2,-3
1528444956130090,-1,0,-1,0,-1,-1,-1,0
1528444956130090,0,-1,0,-1,-1,0,-2,-1
1528444956137064,-2,-1,-1,-2,-1,0,-2,-2
1528444956137064,-1,0,-1,-1,0,-1,0,-1
1528444956151981,-2,-3,-2,-1,0,0,-1,0
1528444956151981,0,0,-2,-2,-2,0,0,-1
1528444956166941,-3,-3,-2,-1,-1,-3,-1,-3
1528444956166941,3,5,1,-1,-2,-2,-1,0
1528444956174920,-2,0,-1,0,-1,1,0,-3
1528444956174920,-2,0,0,-2,-1,-1,0,-1
1528444956181901,1,0,-1,0,-1,0,-1,-3
1528444956181901,-3,-2,-2,0,-2,1,0,-3
1528444956189881,0,-1,-2,-2,-2,-2,-1,-3
1528444956189881,-1,0,-2,-1,0,-1,-3,-2
1528444956204839,0,-1,-2,-1,-1,-4,1,0
1528444956204839,-2,-2,0,-1,-1,-1,-2,-1
1528444956219799,0,-1,-3,-2,0,-2,0,-1
1528444956219799,-3,-2,-1,-3,0,-1,0,-1
1528444956226784,0,0,0,0,0,-1,-2,0
1528444956226784,-1,-2,0,-1,-1,-1,-2,0
1528444956241740,-3,-1,-2,-1,-2,-3,-3,0
1528444956241740,0,-1,0,-1,-1,-2,-1,0
1528444956249718,-2,-2,-1,-2,-2,-1,-1,0
1528444956249718,-1,-1,-2,-1,0,-2,-1,0
1528444956264678,-1,-1,-1,-1,-1,0,-2,-2
1528444956264678,-1,-2,-2,-1,0,-2,0,-1
1528444956279639,0,-1,-2,-1,-1,0,0,-1
1528444956279639,-2,-1,-1,-1,-1,-1,0,-3
1528444956287649,0,-2,-1,-1,-1,0,-1,-1
1528444956287649,-2,-2,0,0,-1,0,-1,0
1528444956302629,-1,-1,-1,-1,1,0,-2,1
1528444956302629,0,0,-2,-1,0,-1,-3,0
1528444956309610,-1,0,-1,1,-1,-2,-1,-1
1528444956309610,-3,-4,-2,-1,-1,-1,-1,-1
1528444956324572,0,0,0,-1,-2,0,-2,-2
1528444956324572,0,1,-2,-1,-3,-2,-2,-2
1528444956339500,-2,0,0,-1,-1,-2,-8,1
1528444956339500,0,-2,-2,-1,-1,-1,-2,-2
1528444956347510,0,-1,-1,0,0,-1,3,2
1528444956347510,1,-1,-1,-1,0,-1,-2,-2
1528444956362474,-2,0,-2,-2,-2,0,1,-1
1528444956362474,-1,-4,-2,-1,-2,-1,-1,0
1528444956369453,-2,1,-2,0,-1,-1,-4,-2
1528444956369453,-1,-3,-1,0,0,-2,-1,0
1528444956384359,0,-1,-2,-2,-1,-2,0,0
1528444956384359,0,0,-2,-2,-2,0,-1,0
1528444956399320,-1,0,0,-2,-1,-1,0,1
1528444956399320,-3,-2,-1,1,0,-2,-2,-1
1528444956407350,0,-1,-1,-1,-1,-1,-1,-1
1528444956407350,-1,-1,0,0,-2,-1,0,0
1528444956422259,-3,0,0,-2,-1,0,-1,-2
1528444956422259,-2,0,-1,-2,-1,1,-2,-2
1528444956430238,1,-1,0,-1,-2,0,-1,-2
1528444956430238,0,0,-2,-2,-2,-2,-3,0
1528444956445263,0,-2,-2,0,-2,-1,1,-1
1528444956445263,-1,0,0,-2,-1,0,-3,-2
1528444956460310,-1,-1,1,0,0,0,-3,-2
1528444956460310,-1,-2,0,0,0,-2,0,-2
1528444956467296,-2,-1,0,-1,-1,-1,-2,0
1528444956467296,-2,2,1,1,-2,-2,0,0
1528444956482297,-1,-1,-3,-3,-2,-2,-2,-1
1528444956482297,-3,0,-1,1,-2,-2,-2,-3
1528444956489443,-1,-2,0,-1,1,1,0,0
1528444956489443,-3,-1,-1,0,-1,-2,-2,-1
1528444956504944,-2,-3,-1,-1,1,-2,-1,-2
1528444956504944,2,3,0,-2,-1,-1,1,-1
1528444956519899,-1,-1,-1,0,-1,0,0,-2
1528444956519899,1,-2,0,-3,0,-2,-1,0
1528444956534860,-1,1,-1,-2,-1,0,-3,0
1528444956534860,-1,-2,0,-2,-1,-1,-1,-2
1528444956549820,-2,-1,-2,0,0,-1,0,-1
1528444956549820,-2,0,0,0,-1,-2,-1,-1
1528444956557633,-2,-1,-1,-3,-2,-1,-1,0
1528444956557633,-1,-3,-1,-2,-1,0,-2,-3
1528444956572752,0,0,-2,-1,-2,-3,-1,0
1528444956572752,-2,-2,-2,-1,-1,0,-1,-1
1528444956587718,-3,-2,0,-1,0,-2,0,-2
1528444956587718,-2,0,0,-1,0,-1,0,0
1528444956602060,1,-1,-2,0,0,-2,0,0
1528444956602060,-1,0,-1,0,-1,-1,0,-2
1528444956616848,-2,-1,-1,-2,-3,0,-1,0
1528444956616848,0,-1,-1,-1,-1,0,-1,-1
1528444956631811,-1,-1,-1,-1,-1,0,-1,-2
1528444956631811,-1,-1,-2,-2,1,-1,0,-2
1528444956646769,0,-1,0,-2,-3,-1,0,-1
1528444956646769,0,-1,0,-1,0,-2,-1,0
1528444956654893,-5,-4,-1,0,-1,-1,-1,0
1528444956654893,3,0,-1,-1,-1,-2,-1,-2
1528444956669845,-1,0,-1,-1,-1,-2,0,-2
1528444956669845,-2,-2,-1,1,-2,-1,-1,-2
1528444956685028,-1,-2,-2,-1,0,-1,0,0
1528444956685028,-1,-1,0,-2,-1,-2,-1,1
1528444956692009,-1,-1,-1,-1,-1,-1,0,-1
1528444956692009,-1,-2,-2,-2,-1,-2,-2,-1
1528444956707161,0,0,-1,-2,-1,-1,0,-1
1528444956707161,0,0,-1,0,0,-3,0,-2
1528444956715014,1,-1,0,-1,-2,-1,-1,0
1528444956715014,-3,-1,-1,0,-1,-1,-1,1
1528444956729936,0,0,-2,0,-1,0,-3,1
1528444956729936,0,0,-2,-1,0,0,-1,-1
1528444956744929,-1,-1,-2,-1,-1,1,-1,-1
1528444956744929,1,-1,0,-1,-1,1,0,-1
1528444956752017,-1,-2,-1,1,-1,-3,-3,-1
1528444956752017,-3,-3,0,0,-2,0,0,-1
1528444956767449,-1,0,-2,0,0,-2,-2,1
1528444956767449,-3,0,-3,0,-1,-1,-1,-1
1528444956774431,-2,-2,-1,-2,-2,-2,-2,-1
1528444956774431,-1,-1,-1,-2,-1,0,-2,-1
1528444956790290,-1,0,-1,0,-1,1,1,-2
1528444956790290,-3,-1,-1,-1,0,-1,1,0
1528444956805265,1,-1,0,-1,-2,-2,-1,-2
1528444956805265,-2,-2,-1,-2,-2,0,-2,-1
1528444956812545,1,-1,-1,-1,-1,0,0,-2
1528444956812545,1,-3,0,-1,-1,-1,-1,-1
1528444956827545,-1,-1,-1,0,-1,0,-1,-2
1528444956827545,-1,-1,-2,-1,0,-2,-1,0
1528444956834874,0,-1,0,-1,0,0,0,0
1528444956834874,-1,0,-1,-1,0,-1,0,0
1528444956849686,-1,-3,-1,-2,-1,1,-3,0
1528444956849686,0,-2,0,-1,-1,-3,-1,1
1528444956864850,-1,-3,-1,-1,-1,0,-2,0
1528444956864850,0,-1,-3,0,-2,0,0,-2
1528444956871831,0,-1,-2,-1,-3,-2,-2,-2
1528444956871831,-2,-1,-1,-1,-1,-1,0,-1
1528444956887804,-1,-2,-1,0,-1,-3,-3,0
1528444956887804,0,-1,-2,-1,0,-1,-1,-1
1528444956894927,-1,0,-2,-2,-1,0,-2,0
1528444956894927,0,0,-2,0,0,0,-1,0
1528444956909888,-1,-2,-1,0,0,-2,0,-2
1528444956909888,-1,-2,0,0,-1,-1,-2,0
1528444956924848,-2,1,-4,0,-2,-1,0,-1
1528444956924848,-4,-2,0,-1,-1,-2,-2,-1
1528444956932668,-2,-1,0,-3,-1,0,-2,-2
1528444956932668,0,1,-2,0,2,-1,-2,-1
1528444956947828,-1,-3,-2,-2,-2,-2,-1,0
1528444956947828,-1,-3,-1,0,-2,1,-2,0
1528444956954970,-1,-1,0,-2,-1,-1,0,-2
1528444956954970,-2,-2,-3,0,-1,-2,0,-2
1528444956969962,-1,0,-1,0,-1,-1,-2,0
1528444956969962,-1,-1,-1,-1,-2,-1,-1,-2
1528444956984888,-1,-1,-2,-1,0,-2,-2,-2
1528444956984888,0,-1,0,-1,-1,-1,-1,-1
1528444956992766,-2,0,-3,-1,0,-1,-1,-1
1528444956992766,-2,-1,-2,0,-2,0,-1,-1
1528444957007766,-1,1,1,-1,-2,-1,0,-1
1528444957007766,0,-2,-2,-1,-2,-1,-1,-2
1528444957014686,-2,0,-1,0,-2,-2,-2,0
1528444957014686,0,-1,-1,-3,-1,-2,-1,1
1528444957029609,-1,-1,-2,-1,-1,-1,0,1
1528444957029609,1,-1,0,0,-2,1,-1,-1
1528444957044728,0,-1,-3,0,-2,-1,-1,0
1528444957044728,-1,-1,-1,-1,1,-1,1,-3
1528444957052707,0,0,-1,-1,-2,-2,1,0
1528444957052707,-2,-2,-1,-2,-2,-3,-1,-1
1528444957067508,0,-2,-1,-1,0,1,-1,-1
1528444957067508,-2,0,-1,0,-2,-1,-1,-1
1528444957074647,0,0,-1,-1,-1,-1,-1,-1
1528444957074647,-1,-2,-1,0,-2,-1,-3,-1
1528444957089807,-1,-1,-1,-3,1,-3,-1,0
1528444957089807,-2,1,-1,0,-1,-1,-1,-1
1528444957104612,-1,-2,-1,-1,0,0,0,0
1528444957104612,-1,-1,0,-2,-1,-1,-1,0
1528444957112731,-2,-2,-1,0,-2,-2,0,-1
1528444957112731,-1,-1,0,-2,-1,0,-1,-1
1528444957127798,-1,-2,-4,-1,0,-1,0,-1
1528444957127798,1,-1,0,-2,-1,-2,0,-1
1528444957134767,-2,0,-1,-2,-2,0,-1,-1
1528444957134767,-3,-1,-3,-1,0,0,0,-1
1528444957157067,0,-1,0,-1,-1,-1,-1,-1
1528444957157067,0,-2,0,-1,-2,-1,-1,-1
1528444957172150,-1,-1,-1,-2,-1,-1,-1,0
1528444957172150,-1,0,-1,0,-1,-2,0,-1
1528444957180211,-1,-2,-1,-1,1,1,-1,-2
1528444957180211,-1,-2,-1,-2,-1,-1,-3,-2
1528444957195172,-1,-1,0,1,-1,-1,0,0
1528444957195172,-2,-1,-1,1,-3,0,-1,-2
1528444957202155,0,-3,-1,-2,-1,-1,-2,-1
1528444957202155,-1,0,-2,1,0,-1,-1,0
1528444957210128,-2,0,-1,0,1,-1,-2,-2
1528444957210128,0,-2,-1,-1,-1,0,-2,-1
1528444957224935,0,-1,0,-1,-2,0,-3,-1
1528444957224935,0,-2,0,-3,-1,1,0,0
1528444957231913,0,-1,-1,-1,-3,-1,-1,-2
1528444957231913,-2,1,-2,0,0,-1,-1,-1
1528444957246912,-1,0,-1,0,-2,-2,-2,0
1528444957246912,-2,-1,0,0,0,0,-1,1
1528444957255043,-2,-2,-3,-2,-1,-3,-1,-2
1528444957255043,0,-2,-1,0,-2,0,0,-1
1528444957270015,-1,-1,-1,-1,-1,-1,-1,0
1528444957270015,-1,-1,-2,-1,-2,-1,-2,-1
1528444957284999,0,-3,-1,-1,-2,-1,-1,0
1528444957284999,-1,0,-3,1,-1,-1,-2,0
1528444957292026,-3,-1,-1,0,0,-1,-1,-1
1528444957292026,0,-2,-1,0,-1,-1,0,-1
1528444957307096,1,0,-1,0,-2,1,1,-3
1528444957307096,-1,-1,-2,-2,-1,0,-1,-1
1528444957314930,-1,-1,-2,0,-2,0,-1,-1
1528444957314930,-1,0,-1,-2,0,-2,-1,0
1528444957330036,-1,0,-1,-2,-2,-3,-2,0
1528444957330036,-2,-1,0,-1,-1,0,-1,0
1528444957345211,-1,0,-1,0,-1,-1,1,0
1528444957345211,-2,-1,-1,-2,-1,0,0,0
1528444957352359,0,-1,-1,-2,-1,0,-2,-1
1528444957352359,-1,-2,0,-1,-1,-1,-1,-2
1528444957367515,-1,-2,-2,-1,-1,0,1,-1
1528444957367515,-2,0,-2,-2,-1,-2,-2,-1
1528444957374497,1,-1,-1,1,-1,-1,-1,2
1528444957374497,0,0,-3,-1,-1,-2,-1,-1
1528444957390316,-2,-3,0,0,-1,-1,-1,0
1528444957390316,-2,-2,-2,0,0,-1,-3,-1
1528444957404631,-2,-1,-3,0,-2,-1,-2,-1
1528444957404631,-1,-1,1,-1,-1,1,0,-2
1528444957412610,-2,0,0,-1,-1,-1,1,0
1528444957412610,0,0,1,0,-2,0,0,-2
1528444957427462,0,-2,0,-1,-1,-1,-1,-1
1528444957427462,0,0,-1,1,-1,-3,-2,0
1528444957434388,0,-2,-1,-1,0,-1,-2,-2
1528444957434388,-3,-1,0,-2,-2,-1,1,1
1528444957449349,-1,1,-1,0,-1,0,-1,-1
1528444957449349,-2,-1,0,0,-1,-2,-1,-1
1528444957457380,2,-1,-1,0,-3,-1,0,0
1528444957457380,-1,0,-1,-1,-2,-2,-2,0
1528444957472322,-2,-1,-2,-1,1,-2,-1,-1
1528444957472322,0,-2,0,-1,-1,-2,0,-2
1528444957487302,-2,1,-2,0,-2,-2,0,-2
1528444957487302,-3,-1,-1,-1,-3,-1,-2,0
1528444957494285,-3,-2,-1,0,-2,0,2,-1
1528444957494285,0,-2,-2,-2,1,-1,-1,-1
1528444957509241,-1,-3,0,-1,-1,-1,0,1
1528444957509241,0,0,-2,-2,1,0,-1,0
1528444957525201,-1,0,-2,-2,-2,1,-1,-1
1528444957525201,-2,-1,-1,-1,-1,0,-1,0
1528444957540161,-1,-2,-1,-2,-2,-3,-3,-1
1528444957540161,-1,-1,-3,-1,-1,-2,-1,-1
1528444957555119,-1,-1,1,-2,-1,-1,-1,0
1528444957555119,0,-1,-1,-1,-1,0,-1,-1
1528444957562081,-1,-1,-1,-1,2,0,0,-1
1528444957562081,0,-2,-1,-1,-1,-1,-3,-2
1528444957577041,0,0,-1,-2,-2,-2,-2,-1
1528444957577041,-1,-1,-1,0,1,0,-1,0
1528444957592002,-2,-1,-1,-1,-1,-1,-1,-3
1528444957592002,-1,0,0,-2,-2,-2,-2,-1
1528444957606927,-1,-1,-3,-1,-1,-2,-2,-1
1528444957606927,-1,-1,-3,-1,-2,0,-1,-1
1528444957614906,0,-1,-3,-2,0,-1,-1,-1
1528444957614906,-1,-1,0,-1,-1,-1,0,-3
1528444957629922,-2,-3,-1,0,-1,-1,-1,-1
1528444957629922,-1,-2,-1,2,-2,-1,-2,0
1528444957644881,-1,0,-1,-1,-2,-1,-2,-1
1528444957644881,0,-2,-1,-1,-1,-2,-1,-1
1528444957659836,-1,-1,0,-1,0,-2,1,-1
1528444957659836,0,-1,-2,-1,-1,-1,0,-2
1528444957674746,-2,0,-1,-1,-1,0,-2,-1
1528444957674746,-2,-1,-1,-1,0,-1,-2,-1
1528444957681731,-1,0,-1,0,0,-2,-1,-1
1528444957681731,-1,-2,-1,0,-2,0,0,-1
1528444957697685,0,0,-2,-1,-2,0,0,0
1528444957697685,-1,-1,-3,0,1,-3,0,-1
1528444957712702,-2,-1,0,0,-1,0,-1,-2
1528444957712702,0,0,-2,-1,-1,-2,-1,0
1528444957727657,-1,-1,-2,-3,-2,-1,-2,-1
1528444957727657,-3,-1,-2,-1,-1,-2,0,0
1528444957734587,-1,-1,0,-2,0,-1,0,0
1528444957734587,0,0,1,0,-2,1,-1,0
1528444957749550,1,-1,0,-2,-2,-1,1,0
1528444957749550,-1,-1,0,0,-1,0,-1,-1
1528444957757672,-1,-3,-2,-1,0,0,-2,-1
1528444957757672,-2,0,-1,-2,-1,-3,-1,-2
1528444957772628,0,-1,-1,0,-1,0,0,0
1528444957772628,-1,-1,-1,-1,-1,-2,-1,0
1528444957787581,1,-1,-1,-2,-1,-2,-1,0
1528444957787581,1,0,-2,-1,-1,0,-2,-2
1528444957794564,0,-2,-2,-1,-1,-1,-2,-1
1528444957794564,-1,-1,-1,-2,-1,-1,0,-1
1528444957809389,-1,-1,0,0,0,-1,0,-1
1528444957809389,-1,0,-1,0,0,0,-1,0
1528444957817500,-1,-2,-2,0,-1,-2,0,-1
1528444957817500,-1,-1,-2,-2,-1,0,-1,0
1528444957832774,-3,1,-1,-1,1,-1,-3,-2
1528444957832774,-1,-1,-1,-1,0,-2,0,-2
1528444957847831,0,-1,-1,0,0,-2,-1,-1
1528444957847831,-2,0,-1,-1,-1,-1,0,0
1528444957854951,-1,-1,-2,0,-2,-2,1,-1
1528444957854951,-2,-1,-2,-2,-1,1,-2,0
1528444957869753,-2,-1,-1,-1,0,-1,1,-1
1528444957869753,-1,-1,0,-2,-2,-1,0,0
1528444957877750,-1,-1,-1,-1,-3,-2,-2,0
1528444957877750,-2,-1,-2,-1,0,-1,0,-1
