timestamp,emg1,emg2,emg3,emg4,emg5,emg6,emg7,emg8
1528183796870369,-1,-2,0,-1,0,-1,0,-1
1528183796870369,0,0,1,-1,-1,0,-2,1
1528183796872364,1,0,-1,-1,0,-2,-2,0
1528183796872364,0,-1,0,-1,0,0,1,0
1528183796884332,-1,0,0,0,0,0,0,-1
1528183796884332,0,-1,0,-1,-1,-1,0,-2
1528183796893308,-2,-1,-2,-1,-2,0,-1,0
1528183796893308,-1,-1,0,0,1,-1,0,0
1528183796908307,0,-2,-1,0,-1,-1,0,0
1528183796908307,0,-2,-2,-1,-1,0,-1,-2
1528183796910293,-1,-1,0,-2,0,-2,1,0
1528183796910293,-1,0,1,0,-2,-1,-1,-1
1528183796930238,-1,0,-1,0,-1,-1,0,0
1528183796930238,0,-2,-1,0,-1,-2,-2,-1
1528183796931238,-1,-1,-1,-2,-2,0,-1,-1
1528183796931238,-2,0,-1,-2,0,-1,1,0
1528183796952203,-1,0,0,-1,-1,0,-1,0
1528183796952203,-1,0,-2,0,-1,-2,2,1
1528183796953152,-2,-1,0,0,-1,0,0,-1
1528183796953152,0,-1,2,-1,0,0,0,0
1528183796967150,0,-1,-1,-2,-1,-1,-2,-1
1528183796967150,-1,-2,0,0,0,0,0,0
1528183796968109,0,-1,1,-1,-1,-2,1,-1
1528183796968109,0,-2,-1,-2,0,0,-1,-1
1528183796990048,1,-1,-2,0,-3,-1,0,-1
1528183796990048,0,0,-1,-3,-1,1,-1,0
1528183796991047,0,0,-1,0,-2,0,-3,1
1528183796991047,0,-3,1,-2,-2,0,-1,-1
1528183797012987,-1,0,-1,-1,0,0,-1,-1
1528183797012987,-1,-1,0,-2,1,-2,-1,-2
1528183797012987,-1,-2,-3,-2,0,0,-1,0
1528183797012987,-1,-1,-2,1,-1,-1,1,-1
1528183797026951,-1,-1,-1,-1,0,-2,0,-1
1528183797026951,-2,-2,0,-1,-1,-2,-1,0
1528183797034929,0,-1,0,0,-2,-2,-2,0
1528183797034929,0,2,-2,-2,-3,-2,-2,0
1528183797049890,-2,0,0,0,-1,-1,-3,-1
1528183797049890,0,0,-1,0,1,1,0,0
1528183797050900,1,-3,-2,-2,0,-1,1,-2
1528183797050900,-3,1,0,0,-1,1,0,-2
1528183797072828,0,-4,0,-1,0,0,0,-1
1528183797072828,0,1,-1,0,-1,0,0,0
1528183797073825,0,-1,-1,1,-1,-2,0,-2
1528183797073825,0,-1,0,0,-1,-1,0,0
1528183797087788,0,1,-1,-1,-1,0,0,0
1528183797087788,-2,-1,-1,0,0,1,0,-1
1528183797088786,1,1,-1,-1,0,-2,-1,1
1528183797088786,0,-1,-1,-1,0,-1,-1,-1
1528183797109731,1,-2,0,0,-1,-2,0,-1
1528183797109731,1,0,-1,-1,0,-1,-2,-2
1528183797110728,-1,2,0,-1,-1,-1,0,-1
1528183797110728,1,-1,0,-1,0,0,-1,0
1528183797132669,0,0,-2,-1,-1,-2,0,0
1528183797132669,-1,-1,0,1,0,-1,-1,0
1528183797133665,0,-1,-2,1,-1,-1,-1,-1
1528183797133665,-1,-1,-1,-1,0,0,-1,-1
1528183797147641,0,-1,-2,-3,0,-2,-1,1
1528183797147641,0,0,-1,-2,-2,-2,0,-1
1528183797148627,1,-1,-1,-2,1,-1,-2,0
1528183797148627,-2,-2,-1,1,-1,0,-1,-1
1528183797170579,0,2,0,0,-1,-2,-2,-1
1528183797170579,-1,-2,0,-1,0,-1,-1,-1
1528183797170579,-1,-1,0,-1,0,-1,-1,-1
1528183797170579,0,-1,-1,0,-2,-1,0,-1
1528183797192508,-1,-1,0,0,0,-1,0,-1
1528183797192508,0,-1,0,1,-2,-2,-1,-1
1528183797193506,-1,0,1,-2,-1,1,0,-1
1528183797193506,0,-1,0,-2,0,-1,-1,0
1528183797215472,0,-2,0,0,0,0,-2,0
1528183797215472,0,0,0,-1,-1,-1,-1,-1
1528183797215472,-1,-1,-1,-1,0,-1,1,-2
1528183797215472,-1,0,-2,0,0,-1,-1,-1
1528183797230423,-2,-1,0,-2,-1,3,-1,-2
1528183797230423,-1,-2,-2,-1,0,-1,1,2
1528183797230423,0,-1,-2,1,-1,0,0,-1
1528183797230423,0,-1,0,1,0,1,1,1
1528183797252368,0,-3,-3,-2,0,1,-2,-2
1528183797252368,0,-1,-1,0,-2,-2,1,0
1528183797253345,-1,-1,-2,0,-2,0,-2,-1
1528183797253345,0,0,0,-1,-1,-1,0,-1
1528183797267308,0,0,-2,-1,-1,0,0,-1
1528183797267308,-2,-1,0,-2,-1,0,0,-1
1528183797268313,-2,-2,-1,0,-1,-1,-1,0
1528183797268313,0,1,0,-1,0,-2,0,-1
1528183797290246,-2,-1,-2,-2,-1,-2,-1,0
1528183797290246,0,1,-1,-1,-1,-1,-1,-1
1528183797291245,-2,0,-1,0,0,-2,0,1
1528183797291245,0,0,0,-1,-1,1,-2,-2
1528183797313245,0,0,-1,0,0,0,0,-2
1528183797313245,-1,-1,-2,-3,-1,0,-2,-1
1528183797313245,0,1,0,-2,-2,-1,0,-1
1528183797313245,-2,-1,-1,0,-1,-1,-2,1
1528183797327090,-1,1,0,2,0,-1,0,-2
1528183797327090,0,0,0,1,1,1,-1,-1
1528183797328088,0,1,-1,-2,0,-1,1,0
1528183797328088,-1,-2,-2,-1,2,0,0,1
1528183797350030,-2,0,-2,0,-2,-2,1,0
1528183797350030,0,-1,-1,0,-1,0,-1,0
1528183797351077,-1,-2,-1,1,0,0,0,-1
1528183797351077,1,-3,0,0,-1,0,-1,0
1528183797373221,0,-1,0,1,-1,-1,-1,0
1528183797373221,0,1,-1,-1,-2,0,0,0
1528183797373221,0,0,-1,1,-2,0,0,-1
1528183797373221,-1,0,-2,-1,0,0,0,-2
1528183797389004,-2,-1,-1,0,1,-1,-1,-1
1528183797389004,-2,-1,0,0,-2,-1,-1,-1
1528183797389923,1,-1,-1,-2,-1,-1,-1,-1
1528183797389923,-1,0,0,-1,-2,-1,-1,-1
1528183797410867,0,0,-1,0,-2,-1,-2,1
1528183797410867,-2,0,-1,-1,1,-1,-2,-2
1528183797412089,0,-2,-2,-1,-1,-1,-1,-1
1528183797412089,-1,-1,-2,-2,0,-1,0,-1
1528183797433307,1,-1,0,0,-2,0,-1,-1
1528183797433307,0,1,-1,-1,-1,0,-1,0
1528183797433307,-1,-2,-1,-1,-2,0,-2,1
1528183797433307,-1,-1,-1,-1,0,0,1,-2
1528183797448318,0,0,0,-1,0,-2,1,0
1528183797448318,0,-1,1,0,0,-1,-2,-1
1528183797448318,0,0,1,-1,-1,-1,-2,0
1528183797448318,0,-1,-1,0,1,0,-1,0
1528183797470227,-1,0,-1,-1,0,-1,0,-1
1528183797470227,1,-2,-1,-2,0,0,1,-2
1528183797478262,0,-1,1,-1,-1,-4,-1,-1
1528183797478262,0,-1,-2,-1,-1,-1,0,1
1528183797492966,0,-1,-1,-1,-1,-2,0,-1
1528183797492966,0,-3,-1,0,-2,0,-1,-1
1528183797492966,-1,-2,0,-1,1,1,-1,-1
1528183797492966,-1,0,-1,0,0,-1,-1,-2
1528183797508879,0,0,-2,0,0,0,-1,1
1528183797508879,0,-1,0,-1,-1,-1,2,0
1528183797509876,0,-1,-1,-1,-2,0,-1,-1
1528183797509876,-1,-1,0,0,-1,0,-1,-1
1528183797530068,-1,0,0,1,1,1,-1,-1
1528183797530068,-1,0,-1,-1,0,-2,1,0
1528183797530820,-2,1,-2,-2,0,-1,1,-1
1528183797530820,-1,0,1,-1,2,-3,-1,-1
1528183797553062,1,-1,1,-1,-1,-2,-1,-1
1528183797553062,-2,-2,-1,0,0,-2,-1,-2
1528183797553062,-1,-2,0,0,0,0,0,-1
1528183797553062,-1,0,0,-1,-1,1,1,0
1528183797568058,0,0,-2,-4,-1,-1,0,0
1528183797568058,-1,0,0,-2,1,-1,-2,0
1528183797568058,0,-2,-2,0,-2,0,-1,0
1528183797568058,2,-1,0,-1,-1,-2,1,-1
1528183797590256,-1,-1,1,1,2,1,1,-1
1528183797590256,-2,-1,0,0,-1,-1,-1,0
1528183797590978,-1,-1,0,0,0,-1,1,1
1528183797590978,-3,-1,0,-1,-1,0,-2,0
1528183797612241,0,-1,-2,0,-2,-1,1,0
1528183797612241,0,0,1,-2,-1,-1,-1,-1
1528183797613198,-2,-1,0,-1,0,1,-2,1
1528183797613198,0,0,-2,-3,-2,-1,-1,-1
1528183797628181,-1,-2,1,-2,0,-1,-2,0
1528183797628181,-1,0,-2,0,1,-1,0,-1
1528183797635258,1,-2,0,0,-2,-1,-1,1
1528183797635258,0,-1,-1,-1,1,0,-1,-1
1528183797650220,-1,0,-1,-2,-1,-2,-1,0
1528183797650220,0,-2,-1,0,-2,-2,0,1
1528183797658396,1,0,-1,-2,0,-1,1,-1
1528183797658396,-1,-1,-1,1,1,-3,-2,0
1528183797673352,0,0,-1,-1,0,1,-1,-2
1528183797673352,-1,-1,0,1,-1,0,-1,-2
1528183797673352,-1,1,0,0,0,0,-1,0
1528183797673352,-2,-1,0,-2,-1,0,0,-1
1528183797696033,1,0,1,-1,0,0,-1,-2
1528183797696033,0,0,-2,-1,-1,0,-1,0
1528183797696033,-2,-1,-3,-1,1,0,-1,-1
1528183797696033,0,0,-2,1,-1,0,-1,0
1528183797710163,-1,0,-1,0,-1,-1,-1,0
1528183797710163,0,1,0,0,0,-1,0,2
1528183797718165,0,-1,-2,0,-1,-1,0,0
1528183797718165,0,0,0,-3,-1,-1,0,-1
1528183797732863,0,-2,-1,1,0,-1,0,-1
1528183797732863,0,-1,0,-1,-1,-1,-2,-1
1528183797732863,0,-2,-1,0,0,0,-2,0
1528183797732863,0,0,-1,1,-1,1,1,0
1528183797754805,-1,-1,-3,0,-2,0,0,0
1528183797754805,0,-1,-2,0,0,-1,0,0
1528183797755802,0,1,-1,0,-1,-3,-1,0
1528183797755802,1,0,-1,-2,0,-1,-3,0
1528183797778740,0,-2,-1,-2,0,-1,-1,0
1528183797778740,0,0,0,-1,-1,-1,-1,-1
1528183797778740,-2,-2,-2,-1,-2,-2,-1,0
1528183797778740,-2,-1,0,0,0,-2,0,0
1528183797792703,-1,-2,0,-1,-1,-1,0,-1
1528183797792703,1,0,-3,0,-1,2,0,0
1528183797793700,0,-1,-1,-1,0,0,1,-1
1528183797793700,0,1,-1,-1,-2,0,-1,0
1528183797814644,-1,0,0,-1,-1,-1,-1,0
1528183797814644,0,-1,0,-3,-1,0,-1,-1
1528183797815642,-1,-1,-2,-1,-2,1,-1,-1
1528183797815642,0,-1,-2,1,-1,-1,0,-1
1528183797837583,-1,0,-2,1,-2,-1,-2,-1
1528183797837583,-2,0,-1,0,1,0,-1,0
1528183797838582,-1,-1,-1,-1,-1,0,-1,-1
1528183797838582,-1,1,0,0,0,-2,0,-1
1528183797852577,-1,-1,-1,-1,-1,1,-1,-1
1528183797852577,0,-1,0,-1,1,0,-1,0
1528183797853542,-1,-1,0,0,-3,-2,1,-1
1528183797853542,-2,-1,-1,-1,-1,-1,0,-2
1528183797875482,1,0,-1,-2,0,0,0,-1
1528183797875482,-2,1,-1,0,0,-1,-1,-1
1528183797875482,-3,-2,1,-1,0,-1,1,-1
1528183797875482,0,-1,0,0,0,0,-1,0
1528183797898421,0,0,-2,0,-1,0,-2,-1
1528183797898421,-2,-1,-1,-3,-1,0,-1,-1
1528183797899419,0,0,-2,0,0,0,0,-1
1528183797899419,0,-1,-1,0,0,-1,-1,-1
1528183797912383,0,1,0,1,0,-2,1,-1
1528183797912383,0,-1,1,1,0,-2,1,-1
1528183797913381,0,1,0,-2,0,-1,-3,-3
1528183797913381,0,-1,-2,-1,0,-2,-2,0
1528183797936321,0,-1,-1,1,1,-1,-3,-1
1528183797936321,-1,0,-1,0,-1,-2,0,1
1528183797937328,1,0,1,-2,0,0,1,1
1528183797937328,-1,-1,-1,-2,-1,-1,-1,-2
1528183797958311,0,0,0,-1,-2,0,1,-1
1528183797958311,-1,0,-2,-1,-1,-1,0,-1
1528183797959259,-1,-2,1,1,1,1,-1,-1
1528183797959259,0,0,-1,-1,1,-1,0,1
1528183797972276,-2,-1,0,-1,-1,0,-1,0
1528183797972276,1,0,-1,1,-1,-1,-2,-2
1528183797973221,-2,-1,-2,-1,0,-1,-1,0
1528183797973221,-1,-1,0,-1,-1,-1,-1,-1
1528183797996194,-1,0,0,-1,0,-1,0,1
1528183797996194,0,-1,0,-1,-1,0,-1,-2
1528183797996194,1,0,0,-1,-1,-1,-1,-2
1528183797996194,0,0,2,1,-2,0,1,-1
1528183798018134,1,-2,-2,-2,1,-2,0,-2
1528183798018134,0,-1,-2,0,-2,-1,0,0
1528183798019099,-2,-2,-1,-1,-1,0,-1,-1
1528183798019099,0,-2,1,-2,-3,0,0,0
1528183798033106,-1,0,-2,-2,-1,-1,0,0
1528183798033106,1,-1,0,0,0,-1,-1,0
1528183798033106,0,0,1,1,0,-2,-1,0
1528183798033106,-1,-1,-2,-1,0,0,-1,-1
1528183798055999,-3,0,-2,-1,-2,-1,-1,-1
1528183798055999,-1,-2,-1,-2,-1,-1,0,0
1528183798055999,0,0,-1,0,0,0,1,0
1528183798055999,1,0,-1,0,0,1,-2,-1
1528183798077946,0,-2,-1,-3,0,1,-1,-1
1528183798077946,0,1,0,0,0,0,0,-1
1528183798078938,0,-1,-2,-1,0,1,-1,0
1528183798078938,0,0,-3,1,-1,-1,-2,-1
1528183798093205,0,0,-1,0,-2,0,0,-1
1528183798093205,0,0,1,-1,0,-2,-1,-2
1528183798093205,0,1,0,-1,-1,-2,0,-1
1528183798093205,-3,-2,-1,-1,-1,-2,0,-1
1528183798116710,0,-1,0,-2,0,0,-1,-1
1528183798116710,-2,-2,-1,0,0,1,-1,-2
1528183798117388,0,-1,-2,-1,-1,0,-1,0
1528183798117388,0,1,-4,-1,0,-1,0,0
1528183798138937,-1,-1,-2,2,-1,-1,-1,1
1528183798138937,0,-3,0,-3,-2,0,0,0
1528183798138937,0,-1,-1,-1,-1,-2,-1,-1
1528183798138937,-1,-2,2,-2,0,-1,0,0
1528183798152579,-1,-1,0,0,-1,0,-1,-1
1528183798152579,-1,-2,-2,2,-1,-1,-2,1
1528183798153578,0,-1,-1,0,-2,0,0,0
1528183798153578,-1,-1,-1,-2,0,-1,0,-1
1528183798184497,-2,0,1,-1,0,-1,0,-1
1528183798184497,-1,0,-3,-2,-1,-1,0,-1
1528183798184497,-2,-1,0,0,0,-1,1,0
1528183798184497,1,-1,-1,0,-2,-1,0,0
1528183798198792,-1,-2,0,1,0,-1,-1,0
1528183798198792,-1,-1,0,-1,-2,0,-2,-1
1528183798199818,-3,-3,0,-1,-1,-1,-1,0
1528183798199818,-1,-1,-1,-1,-1,0,-1,-1
1528183798212742,2,-1,-1,-1,0,-1,0,-2
1528183798212742,-1,0,-1,1,0,-2,1,1
1528183798213416,1,0,-1,-3,-1,0,-1,-2
1528183798213416,-2,1,0,-1,-1,0,-2,-1
1528183798235631,0,-1,0,-1,-1,-1,-1,-1
1528183798235631,-2,0,1,0,-1,1,0,-2
1528183798236252,0,-1,-2,-1,0,-2,0,-1
1528183798236252,0,-1,-2,0,-1,-2,-3,-1
1528183798260193,-2,0,-1,-1,-1,-2,0,-2
1528183798260193,0,-1,0,1,-1,-1,0,0
1528183798260193,0,0,0,-1,0,-1,0,0
1528183798260193,-1,-1,-1,0,-1,0,-1,0
1528183798273323,-1,1,-1,-2,0,0,-1,1
1528183798273323,0,-2,-2,0,0,-2,-2,-1
1528183798273323,0,1,0,0,-1,-1,-1,0
1528183798273323,0,-1,-1,0,-1,0,-1,-1
1528183798295619,-1,0,-1,-1,-1,0,0,0
1528183798295619,-3,2,1,-1,0,-1,-1,-2
1528183798296731,-1,-1,-1,-2,-1,0,-1,-1
1528183798296731,-1,0,0,-1,0,0,1,-1
1528183798319120,-2,0,-2,-1,-1,-1,-2,0
1528183798319120,-1,1,-1,-2,0,-1,0,-1
1528183798319120,0,-1,-1,0,-2,-1,-3,-1
1528183798319120,0,-1,-2,-1,0,-2,0,0
1528183798332284,-1,-3,0,0,-1,-1,0,0
1528183798332284,-1,-1,-1,1,-1,0,-1,1
1528183798340180,0,-2,-1,-1,-1,0,-1,0
1528183798340180,1,0,0,-1,-1,0,-1,0
1528183798354802,0,0,0,0,0,0,-1,-2
1528183798354802,3,-1,-1,1,-1,1,0,0
1528183798355799,-1,0,0,0,0,0,-1,-2
1528183798355799,-2,-1,0,-2,-2,-2,-1,0
1528183798378565,-1,-2,0,0,-1,-1,0,2
1528183798378565,1,0,-2,-1,-1,0,-1,0
1528183798379210,-2,-1,-2,0,-1,-1,-1,0
1528183798379210,1,-1,3,-2,-3,0,1,-1
1528183798392199,-3,0,-1,0,1,0,-2,-1
1528183798392199,-2,0,-2,-2,-1,0,-1,-1
1528183798400152,1,-1,-2,-1,1,-3,1,-2
1528183798400152,-1,-1,-3,0,0,0,1,-3
1528183798415350,-1,-1,-1,0,-3,-2,0,-1
1528183798415350,-1,-1,-2,0,0,0,-1,-1
1528183798416109,0,0,-2,0,0,1,0,0
1528183798416109,-1,-1,-2,0,0,0,-1,-1
1528183798438090,0,1,-1,-1,-2,0,1,-1
1528183798438090,0,-2,-2,0,0,0,-1,1
1528183798439048,-2,1,-1,-1,-2,0,-2,1
1528183798439048,0,1,-1,1,-1,-1,0,0
1528183798452335,-1,-1,0,0,0,1,-1,-1
1528183798452335,-1,-1,-1,-2,-1,-1,-1,-1
1528183798460363,0,0,-1,0,-1,0,0,-3
1528183798460363,-2,-1,-1,-1,-1,0,-1,1
1528183798475295,0,-1,1,-1,-1,0,-2,0
1528183798475295,-1,-1,1,-1,-1,-1,-2,-1
1528183798475950,-1,0,0,-2,0,-1,-2,0
1528183798475950,0,-1,-1,0,-1,0,-1,-1
1528183798498340,2,0,-2,-1,-1,-1,0,-1
1528183798498340,-2,-2,0,0,-2,-1,-1,1
1528183798498889,0,0,-1,1,0,0,-2,0
1528183798498889,0,-1,0,-1,0,-2,-1,-1
1528183798511857,-1,0,-2,-2,1,-2,0,0
1528183798511857,1,-2,0,0,0,0,-2,-2
1528183798520341,-1,0,-2,-1,-2,-3,-2,-1
1528183798520341,0,2,-1,-2,-1,-1,-1,-2
1528183798535414,-1,-3,-3,-1,0,-1,-1,0
1528183798535414,-1,0,-1,-1,-2,0,0,-1
1528183798536038,0,-2,0,-1,-1,0,-1,1
1528183798536038,0,-2,1,0,1,1,0,0
1528183798557980,-1,-1,1,0,-1,0,-2,-2
1528183798557980,-1,0,-2,-1,1,0,1,0
1528183798558977,0,-2,-1,-1,-2,0,0,-1
1528183798558977,-1,-2,0,0,0,-1,0,-1
1528183798571943,0,0,0,0,0,-2,-2,1
1528183798571943,0,1,0,-1,0,-1,-1,-1
1528183798580919,0,-1,0,-1,0,-1,0,-1
1528183798580919,-2,0,-2,-2,-1,0,-2,1
1528183798594881,0,2,0,1,0,0,0,-1
1528183798594881,0,-1,-1,-1,-1,-3,0,0
1528183798603858,-2,-1,-2,-1,1,-1,-1,1
1528183798603858,0,-1,1,-1,-2,-1,-1,-2
1528183798619096,0,-2,0,-1,1,-1,-1,0
1528183798619096,-2,1,1,0,-1,-1,-1,0
1528183798619816,1,0,0,0,-1,-1,1,-1
1528183798619816,0,-1,-2,-1,-2,-2,-1,0
1528183798632045,0,-1,0,-2,-1,0,-1,1
1528183798632045,0,-1,-1,1,0,0,-1,-2
1528183798640765,-1,-1,-1,-3,-2,0,-1,-2
1528183798640765,0,-2,1,1,0,-1,-1,0
1528183798654982,-1,0,-1,-2,-1,0,2,-1
1528183798654982,1,-1,-1,0,-1,0,0,0
1528183798663697,-2,0,-1,0,0,0,-2,0
1528183798663697,0,1,-1,-2,0,-2,-1,-2
1528183798678927,-1,-1,-1,0,-1,-1,-1,-2
1528183798678927,-2,1,-1,-1,1,0,0,1
1528183798679654,0,0,0,-1,-1,-1,-1,-2
1528183798679654,0,2,-2,-1,0,-1,-1,0
1528183798701627,-2,-1,-2,-1,-1,0,0,-1
1528183798701627,-1,-1,0,-1,-2,-1,0,-1
1528183798702593,-1,-1,-1,-1,1,-1,-2,-2
1528183798702593,-2,0,-1,1,0,-1,0,-1
1528183798715561,0,-1,-1,0,-2,-3,0,0
1528183798715561,-1,-3,-1,0,0,1,0,-1
1528183798722753,-2,-1,1,0,-1,1,0,0
1528183798722753,-1,-1,-1,0,-1,-1,-1,-1
1528183798739058,-1,0,-1,-1,0,0,-1,0
1528183798739058,1,-1,-2,-1,0,0,-1,1
1528183798739869,-2,0,-1,-1,-1,-1,0,0
1528183798739869,0,-1,1,-2,0,0,0,0
1528183798761143,0,-1,0,0,0,-1,0,-1
1528183798761143,-1,1,0,0,-2,-1,0,-2
1528183798762805,0,0,-1,-1,-1,-1,0,0
1528183798762805,0,-2,0,-1,-2,-1,-2,1
1528183798775177,-1,-1,-1,-2,-1,1,-1,-2
1528183798775177,0,0,-1,-1,0,0,0,-2
1528183798782042,0,0,1,0,1,0,1,-1
1528183798782042,0,0,0,1,0,1,1,-2
1528183798798059,1,-2,0,2,-1,0,0,-2
1528183798798059,-2,0,-1,-2,-2,-1,-2,-2
1528183798800035,0,-2,0,-1,-2,0,0,-1
1528183798800035,0,-2,-2,1,0,-2,0,1
1528183798821263,0,-1,-2,-1,-1,0,-2,-2
1528183798821263,0,0,0,-1,0,0,-2,-1
1528183798822269,-2,0,-2,0,0,-1,0,0
1528183798822269,0,-1,-1,-1,-1,-2,-1,-2
1528183798834489,-1,-1,-1,-1,-1,-1,-1,0
