timestamp,emg1,emg2,emg3,emg4,emg5,emg6,emg7,emg8
1529292753302753,-1,-1,0,-3,-5,-9,-20,-10
1529292753302753,-3,-5,-3,-1,-5,-3,-4,-1
1529292753308734,3,-1,-1,0,1,8,7,3
1529292753308734,-6,-3,0,1,0,0,-4,-9
1529292753309731,1,1,0,0,1,5,9,6
1529292753309731,-1,0,-1,-1,1,-1,2,3
1529292753310729,2,0,-1,-2,2,3,3,8
1529292753310729,-3,-1,-3,-3,-5,-5,-2,-6
1529292753321697,-4,-2,-1,0,-2,-2,-5,-6
1529292753321697,2,3,1,-1,0,2,2,1
1529292753329681,-1,1,1,1,-1,7,15,10
1529292753329681,-3,-2,0,-3,-5,-24,-22,-15
1529292753335660,-2,-3,-1,-3,-2,-7,-26,-10
1529292753335660,-2,-2,0,-2,0,2,0,1
1529292753351617,0,0,-1,-1,-2,-4,2,1
1529292753351617,1,1,-2,1,-2,-3,2,11
1529292753361591,1,-1,-1,0,1,0,4,0
1529292753361591,-1,0,-1,0,1,0,2,-6
1529292753367576,-4,-1,-1,1,1,0,-13,-10
1529292753367576,4,2,1,-2,-2,-4,12,11
1529292753381538,-4,-2,-1,2,2,5,-4,-4
1529292753381538,1,1,2,-2,-4,-15,2,6
1529292753389516,-3,-3,-2,-2,-2,-4,-1,-2
1529292753389516,3,-1,1,-2,-2,8,6,8
1529292753429410,0,-1,-2,1,1,2,-4,-9
1529292753429410,-2,1,1,1,0,0,4,5
1529292753430408,-1,2,-1,-2,1,-2,-7,-5
1529292753430408,0,1,-1,-1,1,-4,0,2
1529292753431405,4,0,1,-1,-1,-1,0,4
1529292753431405,2,-1,0,0,1,2,6,-1
1529292753433399,-4,-3,0,-2,-2,-3,-15,-15
1529292753433399,2,-2,-1,0,2,5,13,8
1529292753450354,0,-2,-2,-2,-1,-6,-22,2
1529292753450354,-3,-3,-1,-2,0,2,0,-7
1529292753451351,-1,0,1,0,-1,-2,-2,-7
1529292753451351,-1,0,1,-1,0,-3,-4,-2
1529292753456337,-1,0,-2,1,0,8,17,5
1529292753456337,-3,-1,-1,0,-4,-1,-7,-4
1529292753471298,0,-1,0,-1,1,2,8,9
1529292753471298,1,-2,2,0,0,0,1,2
1529292753478280,-8,-3,-1,-2,-3,3,-14,-16
1529292753478280,2,-2,0,-1,-4,-5,1,5
1529292753487255,2,1,-1,0,-2,2,11,13
1529292753487255,1,-1,-2,-1,-3,-1,-7,-12
1529292753501218,-1,1,-1,-1,1,9,12,2
1529292753501218,1,0,-3,-2,-2,-13,-6,6
1529292753508199,1,0,1,-1,3,18,11,-5
1529292753508199,-1,1,-1,-2,-6,-23,-22,5
1529292753516178,3,1,0,0,0,1,6,6
1529292753516178,-7,-4,-1,0,-2,5,2,-9
1529292753531139,0,-2,-1,1,-2,-8,-6,7
1529292753531139,-1,-2,2,-2,0,10,8,-3
1529292753538119,6,-1,-1,-1,-1,-7,9,14
1529292753538119,-7,-1,1,0,1,1,-14,-20
1529292753548094,3,2,0,-1,-5,-16,-2,5
1529292753548094,-6,1,0,1,1,-2,-21,-19
1529292753562055,-4,-1,0,-3,-4,-10,-4,-4
1529292753562055,3,3,-1,-2,4,5,10,3
1529292753580007,-1,0,-1,-3,-2,1,-14,-4
1529292753580007,0,1,-1,2,5,25,21,8
1529292753580007,1,1,-1,-3,-5,-19,-5,6
1529292753580007,-3,-2,-4,1,-2,0,2,-4
1529292753590977,1,0,-1,2,1,0,-2,-4
1529292753590977,-3,-1,0,-1,0,9,13,3
1529292753597960,-2,-2,-1,0,3,2,1,-5
1529292753597960,4,0,0,-1,2,1,4,11
1529292753613916,-1,-2,-2,-1,1,-1,1,-9
1529292753613916,-3,-5,-4,-2,-4,-6,-13,-3
1529292753621896,2,2,3,1,2,6,5,-1
1529292753621896,-3,0,1,0,-2,-6,-11,-7
1529292753628877,2,0,1,1,4,8,10,10
1529292753628877,-2,-2,-1,-2,-5,-15,-3,-3
1529292753635858,2,0,-1,0,-1,1,6,3
1529292753635858,-1,-1,-3,1,0,10,1,-3
1529292753650818,-1,-2,-3,-2,-4,-15,-6,-1
1529292753650818,-4,-1,0,0,0,-1,-1,-9
1529292753658797,0,0,-1,0,3,6,2,5
1529292753658797,0,1,1,-3,-3,-2,1,-4
1529292753673757,-3,0,-1,0,-1,-3,-14,1
1529292753673757,-2,-3,-2,-1,-6,-11,-12,-9
1529292753681736,-3,-2,-2,-2,1,1,1,-6
1529292753681736,-1,-1,-2,2,1,-4,-14,0
1529292753688717,-1,-2,-1,1,1,12,20,12
1529292753688717,1,3,-1,0,-1,-8,-19,-15
1529292753695698,0,1,1,1,1,-2,-5,-4
1529292753695698,1,1,-1,-1,0,3,7,8
1529292753710658,-3,-2,-1,0,0,2,-2,-4
1529292753710658,3,0,0,-1,-3,-10,13,11
1529292753718636,-1,-2,0,0,-2,-1,-12,-2
1529292753718636,2,1,-2,-1,-1,-5,1,3
1529292753733596,1,0,2,-4,1,0,-2,-1
1529292753733596,2,2,1,0,5,6,8,6
1529292753741609,-4,-2,0,-2,-1,-1,1,-4
1529292753741609,1,0,1,-1,-1,-7,-1,4
1529292753748559,3,2,-1,2,-1,5,4,6
1529292753748559,2,1,0,-3,2,7,8,2
1529292753755573,-5,-3,-2,-1,-1,11,6,-10
1529292753755573,-1,0,-1,-2,-3,-15,-10,-1
1529292753770498,-6,-2,-2,1,-1,5,1,-12
1529292753770498,2,2,-1,0,-1,-5,-1,13
1529292753778513,3,2,0,3,2,3,9,3
1529292753778513,-3,-2,0,-1,0,2,-10,-10
1529292753793481,1,0,0,-2,2,6,1,1
1529292753793481,-1,0,-1,-2,-6,-13,0,0
1529292753801455,0,-2,1,-1,-3,-7,-19,-1
1529292753801455,1,-1,0,-1,1,5,3,2
1529292753808397,0,-2,-2,0,-3,-14,-5,-5
1529292753808397,1,0,-1,0,3,15,9,4
1529292753816376,-1,0,-2,-3,-2,-7,-9,-3
1529292753816376,-1,1,0,1,-1,-1,4,-7
1529292753831336,-3,0,-1,0,-4,-4,-9,-3
1529292753831336,-5,-4,-2,-1,-2,-3,-1,-5
1529292753838318,0,-2,-1,-1,0,6,10,8
1529292753838318,-4,-1,0,-1,-1,1,-2,-11
1529292753853278,4,3,1,0,3,1,4,4
1529292753853278,-5,-1,2,2,2,5,0,-4
1529292753861256,2,1,1,0,4,-1,3,6
1529292753861256,0,-3,1,-2,1,1,-8,5
1529292753868271,-1,-3,-1,-5,-1,1,5,-6
1529292753868271,-2,-4,-2,-3,0,2,-4,3
1529292753884194,-3,-1,-4,1,-3,-3,-1,-5
1529292753884194,0,-1,-4,1,-3,-3,2,-2
1529292753891210,2,4,1,1,0,1,4,5
1529292753891210,5,3,3,3,5,8,3,3
1529292753898157,0,0,1,-2,-4,1,8,-1
1529292753898157,-5,-4,-2,-1,-4,-7,-13,-8
1529292753913117,-3,-4,-3,0,-1,-4,-9,-3
1529292753913117,1,-1,-2,0,1,1,6,8
1529292753930072,-4,0,-2,1,3,3,-13,-14
1529292753930072,4,1,0,1,0,2,11,13
1529292753931069,-3,-4,0,-2,-6,-15,-5,-6
1529292753931069,2,3,4,2,5,5,-7,3
1529292753944069,3,2,0,1,-2,-9,-10,-5
1529292753944069,0,-1,-3,-2,0,6,9,1
1529292753951053,-2,2,-4,1,-1,4,2,-4
1529292753951053,-5,-9,-4,-1,-3,-3,2,0
1529292753958031,-2,-1,0,0,0,-5,5,4
1529292753958031,8,6,1,3,3,-2,-12,-1
1529292753973954,-1,0,-2,-2,-1,-5,-1,4
1529292753973954,-3,-4,-3,-4,-7,-9,-11,-11
1529292753980937,-2,-2,-4,-2,-2,-2,-5,-3
1529292753980937,2,0,1,-3,2,8,22,8
1529292753989912,-4,-3,-2,-3,-7,-9,-12,-6
1529292753989912,2,2,-1,-2,3,8,-3,-4
1529292754003875,-2,-1,-2,-3,-3,-13,-3,0
1529292754003875,-2,-5,-2,0,1,8,11,1
1529292754010858,-1,-1,0,1,1,1,5,-3
1529292754010858,-1,0,0,-1,-1,-2,4,0
1529292754018869,0,2,0,0,-1,-3,2,0
1529292754018869,4,4,3,1,0,-4,-12,-2
1529292754033833,4,-1,1,1,2,0,2,4
1529292754033833,2,-2,-2,1,-1,-1,-15,-6
1529292754041772,-4,-2,-2,1,1,1,2,-1
1529292754041772,-2,-3,-2,-1,-3,-6,-1,0
1529292754048756,-2,2,-1,0,0,3,2,-5
1529292754048756,2,-1,1,-1,-4,-9,-14,3
1529292754063714,4,4,3,1,4,6,6,6
1529292754063714,2,4,4,3,2,5,5,0
1529292754070729,-1,1,-1,0,5,15,10,6
1529292754070729,-3,-1,-6,-2,-8,-22,-9,-5
1529292754078674,-3,-4,-3,0,-3,-2,-10,-5
1529292754078674,-4,-7,-1,1,2,5,5,2
1529292754093634,2,-1,2,-1,-4,-4,13,0
1529292754093634,-1,0,0,0,-2,-1,-1,-8
1529292754101660,-1,-2,0,-1,-1,6,-15,6
1529292754101660,-1,2,0,-1,-2,-2,8,-7
1529292754108649,-2,-3,0,-1,2,-1,-2,0
1529292754108649,-4,-3,-1,-1,2,4,3,0
1529292754124552,3,1,-1,-3,-1,-7,1,0
1529292754124552,3,4,-1,0,3,4,6,7
1529292754130536,-2,-2,-1,-1,-3,-7,-18,-7
1529292754130536,-1,-4,0,1,1,6,7,-1
1529292754138550,2,-1,1,0,0,-3,3,3
1529292754138550,0,-4,0,-1,-3,-12,-9,-1
1529292754153619,5,3,3,0,2,5,4,0
1529292754153619,-2,2,-2,-4,-6,-14,-4,3
1529292754161483,-5,-6,-4,-2,-2,-3,-1,-8
1529292754161483,-2,0,-3,-3,-2,-3,2,-4
1529292754168471,1,-1,-3,-1,-3,3,-4,-1
1529292754168471,0,0,0,0,4,15,12,3
1529292754184537,-1,2,0,-2,0,9,23,2
1529292754184537,-2,-3,-1,-2,0,-6,-10,-2
1529292754191401,1,1,1,0,3,0,8,4
1529292754191401,2,4,2,0,0,7,1,0
1529292754198354,-1,-2,-1,1,1,11,-1,2
1529292754198354,-6,-8,-4,1,1,8,10,1
1529292754213315,-2,-4,-2,1,2,7,0,-2
1529292754213315,4,6,0,1,3,4,10,1
1529292754221646,4,2,0,-2,-7,-21,-10,-4
1529292754221646,-2,-6,-1,-2,-3,-5,-11,-2
1529292754228819,-7,-3,-1,-2,1,1,-4,-5
1529292754228819,-1,-3,-1,-2,-4,-6,1,-3
1529292754243783,6,7,5,1,4,1,-10,3
1529292754243783,-1,-1,-5,-3,-6,-10,-11,-5
1529292754250766,-7,-14,-8,-2,-4,4,3,-2
1529292754250766,-4,0,-1,1,3,1,1,0
1529292754259042,0,9,2,-1,0,-1,-1,-4
1529292754259042,5,3,4,1,4,5,5,4
1529292754273395,7,9,4,0,-1,-4,-5,3
1529292754273395,-4,-2,0,-1,1,1,0,1
1529292754281377,-8,-14,-5,-1,-3,-3,0,-4
1529292754281377,-2,-1,-3,-3,1,-3,-8,-1
1529292754288390,-10,-9,-4,-6,-3,6,5,-4
1529292754288390,13,11,4,-1,-1,-19,-14,4
1529292754304588,5,6,7,3,4,5,18,5
1529292754304588,1,9,1,-2,0,11,7,-2
1529292754311324,-3,-8,-5,-3,-5,-23,-12,-5
1529292754311324,-3,-6,-4,-3,0,4,1,-2
1529292754318306,-6,-7,-7,-3,-3,-2,0,-3
1529292754318306,-4,-13,-3,0,2,-2,2,4
1529292754333243,7,13,6,3,2,5,7,7
1529292754333243,-2,1,-1,1,0,6,-1,-5
1529292754342517,-1,-4,-3,-4,-1,-4,-5,-3
1529292754342517,1,10,1,-3,-2,-2,-2,-4
1529292754349202,0,6,3,1,0,-4,-6,-1
1529292754349202,-8,-22,-10,-7,-6,-5,-4,-3
1529292754364661,2,6,4,6,2,4,-2,-1
1529292754364661,6,9,4,4,0,4,1,1
1529292754371690,5,5,4,3,-3,-3,2,2
1529292754371690,-2,2,-2,3,3,-2,0,-2
1529292754378776,-7,-11,-8,-3,-7,0,-7,-6
1529292754378776,-3,-3,3,10,-5,-3,0,-3
1529292754393766,4,5,-2,-1,7,-3,-1,1
1529292754393766,-4,-4,2,-5,-10,1,-1,-2
1529292754401740,2,1,1,8,13,6,-1,1
1529292754401740,1,-3,-17,-19,10,-1,-1,1
1529292754416587,-4,-4,-3,-6,-8,-1,-2,-2
1529292754416587,-3,-1,2,-7,-1,0,-1,-1
1529292754424663,6,7,7,9,11,6,3,5
1529292754424663,-1,-3,-6,-18,-17,-5,-2,1
1529292754439742,-4,-11,-18,-22,-1,-5,-6,-6
1529292754439742,4,2,-6,-13,-8,-2,1,0
1529292754439742,4,6,10,-2,-5,1,2,3
1529292754439742,-7,-8,-2,5,-5,-3,-3,-6
1529292754454185,1,-1,4,6,1,2,0,1
1529292754454185,9,9,6,1,-2,1,3,4
1529292754462110,1,4,4,10,-2,-1,-3,-1
1529292754462110,0,4,8,6,0,2,3,2
1529292754475965,-5,-5,-13,-14,-2,-7,-6,-4
1529292754475965,0,3,1,-1,-9,-2,-1,1
1529292754491923,-4,-9,-17,-14,-8,-8,-7,-5
1529292754491923,-3,-5,-3,5,3,-1,-2,0
1529292754498723,-2,-3,1,12,4,0,1,-2
1529292754498723,0,3,18,31,1,3,2,0
1529292754499720,-6,-11,-17,-20,-3,2,-5,-5
1529292754499720,-2,-1,10,6,-7,-2,1,-1
1529292754513881,-1,-6,-19,-27,-4,-6,-7,-2
1529292754513881,3,0,1,0,-8,-2,3,0
1529292754521907,-1,-1,2,-1,-9,0,10,4
1529292754521907,2,0,-2,-10,-5,-4,-20,-5
1529292754535824,-2,-4,3,11,6,3,0,0
1529292754535824,-2,-3,-11,-3,5,2,1,-1
1529292754552778,0,-1,4,7,-4,-14,-3,-2
1529292754552778,1,-3,-5,-3,10,2,4,0
1529292754558799,-1,1,14,2,-19,-2,3,1
1529292754558799,-2,1,-6,-20,-11,-6,-5,-4
1529292754567737,8,12,22,24,18,11,6,5
1529292754567737,2,5,1,4,14,1,3,1
1529292754573771,-1,4,13,16,5,-1,0,1
1529292754573771,-8,-7,-3,-14,-7,-6,-3,-4
1529292754582697,-10,-9,-27,-29,2,-8,-7,-9
1529292754582697,1,4,9,10,0,-5,3,3
1529292754596661,3,4,-1,-9,3,2,4,2
1529292754596661,6,6,12,16,37,10,15,9
1529292754604673,3,1,7,16,30,-11,-17,-5
1529292754604673,-5,-9,-14,-37,15,-2,-4,-5
1529292754618603,6,10,14,35,7,16,13,7
1529292754618603,-5,-4,-9,1,-24,-27,-5,-4
1529292754627577,-1,-3,-15,4,-35,8,3,3
1529292754627577,-4,-1,0,-8,-16,-1,2,-2
1529292754633608,0,-1,6,-6,-2,-4,-3,-2
1529292754633608,0,-2,4,-11,5,9,-1,1
1529292754642537,-2,1,8,-2,-11,12,4,-1
1529292754642537,-2,3,8,17,-14,-7,14,3
1529292754655550,-2,0,0,-9,2,6,5,3
1529292754655550,-2,1,-2,8,-13,-4,-10,-4
1529292754665477,3,4,9,-2,-3,4,3,0
1529292754665477,7,2,-6,-7,-6,4,8,5
1529292754678488,1,-1,5,14,-15,-12,-8,-3
1529292754678488,2,4,21,35,42,-5,-1,0
1529292754687417,6,-1,-10,2,-8,-5,16,8
1529292754687417,1,5,17,27,6,13,11,2
1529292754693449,-8,-12,-44,-76,-19,-17,-20,-9
1529292754693449,-3,-3,-3,6,0,-10,-16,-1
1529292754702390,-6,0,-7,-8,0,-13,-28,-12
1529292754702390,-3,2,4,-4,6,4,6,-3
1529292754716342,-3,-4,1,25,7,13,8,-2
1529292754716342,2,0,-7,-11,-2,13,16,4
1529292754725368,-1,-4,-1,-1,-3,-5,4,-1
1529292754725368,2,-1,-13,-11,-3,7,1,4
1529292754738329,1,7,17,31,13,3,2,2
1529292754738329,1,2,-2,4,1,10,-2,-2
1529292754747257,-3,-2,6,12,4,-4,-1,1
1529292754747257,3,2,1,8,10,1,0,0
1529292754770197,-2,0,3,7,4,8,2,-1
1529292754770197,1,-2,-2,19,4,13,-1,0
1529292754771195,4,1,4,-9,3,9,5,4
1529292754771195,-5,-7,-17,-23,-20,-5,-3,-3
1529292754776181,-5,-2,7,11,-16,-25,-21,-6
1529292754776181,-4,-5,-15,-51,-9,-5,3,1
1529292754785157,-1,3,12,27,10,13,9,4
1529292754785157,-2,-5,-12,-13,1,-8,-19,-7
1529292754798123,2,1,-4,19,13,8,14,3
1529292754798123,1,-3,-8,-9,10,-1,-4,-1
1529292754807099,-6,-6,-10,-2,-12,0,-3,-10
1529292754807099,1,4,7,1,12,2,-8,-2
1529292754813084,6,9,13,1,-2,7,2,2
1529292754813084,-5,-6,-3,3,-8,-7,-2,-4
1529292754822059,13,12,7,-8,9,17,15,12
1529292754822059,-12,-16,-28,9,-37,-42,-45,-17
1529292754836022,-3,-3,0,-2,-5,-8,-4,-5
1529292754836022,-1,2,-1,-1,-2,5,2,0
1529292754844997,-1,3,11,21,-5,-8,-1,-2
1529292754844997,0,-3,-3,2,3,15,17,3
1529292754858961,-1,-5,-16,-23,-6,-9,1,0
1529292754858961,3,5,7,6,-6,-5,-5,0
1529292754875914,-5,-3,-14,-37,-7,4,5,-2
1529292754875914,-2,-1,5,6,6,-6,7,-1
1529292754876913,5,3,9,-5,14,9,7,4
1529292754876913,-4,-5,-8,3,-6,-3,-10,-7
1529292754882265,-7,-5,-7,-15,1,-3,1,-4
1529292754882265,-1,0,4,-3,-6,4,2,3
1529292754896065,-1,-1,-6,16,6,-5,-4,-1
1529292754896065,5,11,32,13,7,5,14,6
1529292754905041,-2,-1,-19,-18,12,1,-4,-2
1529292754905041,-7,-9,-8,-28,-3,8,2,-1
1529292754919060,-6,-6,-21,-37,-15,-11,0,0
1529292754919060,6,9,8,9,4,4,-28,-4
1529292754928177,-11,-12,-15,-11,-17,-17,0,-7
1529292754928177,5,7,20,18,20,12,4,5
1529292754933025,0,-2,-13,-18,-12,4,10,0
1529292754933025,-5,-4,-3,19,2,1,0,-4
1529292754943228,4,1,9,11,4,-4,-4,3
1529292754943228,-1,-5,-20,-28,-9,4,1,-3
1529292754956727,0,0,17,11,4,-7,-10,-3
1529292754956727,-4,-5,-12,5,-1,6,13,4
1529292754964905,3,4,17,15,1,-2,-6,1
1529292754964905,-4,-6,-30,-28,-10,-10,-5,-2
1529292754978873,2,4,13,24,1,8,-1,1
1529292754978873,6,9,8,-18,11,9,9,5
1529292754987847,-8,-12,-19,-12,-19,-9,-12,-4
1529292754987847,7,8,7,6,7,4,7,8
1529292755002386,-9,-5,-3,-6,0,13,-15,-11
1529292755002386,-2,-9,-9,1,1,18,37,5
1529292755004201,4,8,17,20,0,-45,-34,-1
1529292755004201,-2,-1,10,27,4,2,-10,-7
1529292755016348,-3,-1,3,18,9,9,6,3
1529292755016348,-6,-3,2,3,-2,4,3,-3
1529292755025144,1,-2,-4,-41,-9,-4,-3,0
1529292755025144,0,-2,-5,6,-3,-17,-13,-1
1529292755039293,2,4,0,7,7,-4,18,5
1529292755039293,-6,-5,-5,-10,-1,1,-12,-16
1529292755047292,6,2,9,23,13,17,22,9
1529292755047292,-12,-3,14,16,5,4,-24,-32
1529292755069893,12,4,-1,-9,6,15,34,11
1529292755069893,-2,-3,-11,-17,-12,-20,-20,-4
1529292755071692,13,11,22,26,16,29,23,15
1529292755071692,-16,-12,-13,-8,-20,-6,9,-17
1529292755076678,-2,-7,-18,-20,-10,-5,-4,2
1529292755076678,13,14,17,5,15,3,11,8
1529292755084851,-4,-10,-31,21,-18,-12,1,1
1529292755084851,5,8,21,5,4,6,18,17
1529292755099104,-5,-5,-6,-20,0,-8,-18,-11
1529292755099104,-1,-5,-8,-1,-3,-9,1,5
1529292755107793,-3,1,7,-9,4,7,-3,-4
1529292755107793,6,7,8,12,7,-2,1,7
1529292755122949,-3,-4,2,15,-7,-4,-8,-3
1529292755122949,0,-2,-3,-13,-12,-3,-3,4
1529292755123922,-5,-2,-3,-12,0,-3,-4,-9
1529292755123922,9,6,6,14,14,4,-3,7
1529292755135889,-3,-1,-1,-10,-5,9,6,-1
1529292755135889,-1,3,7,16,-1,0,6,5
1529292755144866,-5,0,0,-5,-4,0,1,-5
1529292755144866,4,0,-3,-14,-3,-2,11,8
1529292755175314,5,6,21,38,6,6,4,10
1529292755175314,-15,-15,-48,-58,-12,4,-18,-15
1529292755177153,-9,-12,-17,-15,-16,-11,-4,-5
1529292755177153,10,12,26,3,7,-1,4,6
1529292755182209,-1,-9,-11,22,-10,-11,-8,-2
1529292755182209,-11,-16,-29,-22,-20,-1,6,-11
1529292755184168,2,0,-10,2,3,-5,-10,1
1529292755184168,7,15,41,54,15,21,10,9
1529292755196136,7,-5,-29,-54,-5,32,61,23
1529292755196136,-16,-8,11,39,-21,-57,-59,-35
1529292755205111,-1,-1,-4,-17,-3,-1,1,0
1529292755205111,-4,-8,-21,-11,-9,-12,-13,-4
1529292755218649,4,10,25,26,16,8,12,8
1529292755218649,8,7,8,11,8,16,10,14
1529292755227448,-6,-9,-8,-22,-6,9,5,-8
1529292755227448,-1,-3,-5,5,25,-1,-11,0
1529292755258666,-1,0,-2,-20,-7,-34,-24,-8
1529292755258666,4,4,2,-11,7,21,10,9
1529292755259569,1,4,14,35,6,-4,-8,-3
1529292755259569,-3,-8,-18,-37,-13,-9,1,5
1529292755260567,-7,-3,-12,7,-7,-5,-18,-11
1529292755260567,4,2,9,11,-7,-8,25,13
1529292755264734,-3,1,-1,-5,-2,4,-26,-12
1529292755264734,9,6,2,-14,-1,-2,-2,7
1529292755278758,-9,2,33,46,-14,-9,-11,-16
1529292755278758,8,2,-15,-44,6,6,22,10
1529292755287766,2,-3,-18,-70,2,14,13,5
1529292755287766,-4,-6,-19,-4,2,-6,-1,-5
1529292755302861,1,-1,2,5,14,-14,-13,-1
1529292755302861,-6,-4,1,24,5,13,-1,-4
1529292755303845,0,4,20,31,15,10,44,10
1529292755303845,-1,3,-1,-21,-6,-4,-24,-11
1529292755316693,9,10,14,-11,8,12,6,7
1529292755316693,-1,-3,-6,12,-8,-9,-3,-1
1529292755325658,1,-1,2,-3,-8,-4,-2,0
1529292755325658,-3,-5,-2,5,-21,18,16,2
1529292755338840,-4,-3,-7,-6,-10,-17,-8,-5
1529292755338840,0,-1,-5,-16,-3,-19,-18,-2
1529292755347817,-8,-6,-6,-6,-9,6,-14,-12
1529292755347817,8,5,2,17,15,10,19,9
1529292755362779,-1,-2,-5,-6,-5,-11,-6,-3
1529292755362779,5,5,19,4,42,6,-13,3
1529292755363775,2,-1,-9,12,14,-2,12,6
1529292755363775,-2,0,13,23,3,18,33,6
1529292755376776,-12,-10,-18,-40,-15,-10,-41,-21
1529292755376776,2,-3,-2,19,-13,1,10,3
1529292755384869,3,10,42,77,13,18,16,0
1529292755384869,-6,-8,-35,-54,-35,-37,-23,-5
1529292755398859,-1,1,0,25,-3,10,13,3
1529292755398859,-3,3,12,3,-20,0,-32,-13
1529292755407655,-2,-2,-17,-6,-7,-2,-20,-3
1529292755407655,0,1,17,14,-4,7,14,1
1529292755422861,1,-1,-8,-14,1,3,5,2
1529292755422861,3,2,4,12,-8,-3,4,0
1529292755423839,1,0,2,-9,-12,-14,-8,0
1529292755423839,0,-2,-2,2,-12,-8,0,-3
1529292755436384,-5,-9,-14,-19,-9,-3,-1,1
1529292755436384,-5,-3,2,-3,1,3,-26,-13
1529292755445027,6,8,6,-6,-2,-19,0,6
1529292755445027,-3,-5,-5,2,1,-7,-15,-3
1529292755468060,-6,-6,-5,-9,3,5,-1,-6
1529292755468060,6,5,2,1,3,-5,22,13
1529292755468924,-8,-5,-3,-6,-2,-3,-8,-8
1529292755468924,-2,-5,-20,-30,-11,-4,-9,-6
1529292755483070,11,13,28,46,12,3,0,7
1529292755483070,0,-6,-34,-51,-6,2,34,10
1529292755483901,-7,2,15,24,-1,8,-23,-14
1529292755483901,0,-3,-7,-30,9,6,13,8
1529292755495851,-5,-6,3,1,-1,5,0,-4
1529292755495851,3,0,-7,1,-3,-13,-4,0
1529292755504950,8,3,6,1,0,2,9,8
1529292755504950,-5,-5,4,5,-11,-7,-10,-3
1529292755518972,1,4,2,1,18,7,-4,-2
1529292755518972,-8,-7,-2,8,0,24,27,-2
1529292755525951,3,0,-7,-14,-3,-15,-14,1
1529292755525951,-2,4,12,28,11,12,5,1
1529292755543061,0,-1,-6,-8,0,-3,0,2
1529292755543061,-1,4,15,10,8,4,-3,-3
1529292755543725,-2,-5,-12,-12,-5,-1,2,-2
1529292755543725,-3,-1,5,12,8,-6,-3,-3
1529292755555692,6,3,-3,-8,1,-2,2,1
1529292755555692,-1,2,4,1,8,4,2,0
1529292755572646,-1,-4,-4,-15,-5,0,16,2
1529292755572646,-3,0,1,15,2,-21,-20,-8
1529292755579628,-1,-2,1,-1,-2,-3,-5,0
1529292755579628,2,0,4,8,2,9,5,4
1529292755586062,-2,-2,-6,2,1,6,11,1
1529292755586062,-5,-6,-12,-6,0,8,3,-6
1529292755601990,2,4,0,1,-4,-6,7,3
1529292755601990,3,10,40,38,11,7,8,1
1529292755603983,-3,-7,-48,-29,-15,-26,-28,-1
1529292755603983,-3,2,13,7,5,8,5,1
1529292755615982,-2,0,-3,10,0,-8,-16,-3
1529292755615982,-4,-8,-5,-7,-4,1,0,-4
1529292755624926,2,3,11,3,12,6,-19,-7
1529292755624926,-6,-7,-3,-2,-14,-22,0,-4
1529292755639322,1,-1,-6,-7,0,8,10,4
1529292755639322,3,1,-1,-5,-2,-5,0,1
1529292755646114,-2,0,3,-2,-2,1,1,0
1529292755646114,3,2,-3,-3,-2,4,0,3
1529292755662533,-2,1,9,3,1,2,-1,-2
1529292755662533,-1,-1,-9,-5,-4,-17,-13,-4
1529292755663531,-1,-2,4,-3,6,11,16,3
1529292755663531,10,12,20,32,9,2,-8,5
1529292755676646,3,3,0,-12,-4,14,28,8
1529292755676646,-3,-2,-7,-11,-6,-11,-10,-5
1529292755685472,-4,-2,-2,-3,-1,2,7,0
1529292755685472,0,1,8,13,6,2,3,-1
1529292755699437,-9,-13,-20,-19,-8,-13,-11,-10
1529292755699437,-3,-4,-10,-10,0,-8,-9,-3
1529292755706596,3,5,10,16,4,-2,0,4
1529292755706596,-6,-1,2,8,5,17,12,-2
1529292755722532,6,4,-4,-8,-1,1,9,12
1529292755722532,5,5,8,7,-4,-4,-20,-3
1529292755724527,-3,-5,2,-3,-9,-27,-16,-4
1529292755724527,-4,-7,-11,-11,-2,-1,1,-7
1529292755736334,-1,3,3,18,1,7,-32,-7
1529292755736334,4,-2,-18,-59,-19,-23,-6,4
1529292755745311,-3,-3,12,22,-1,10,1,-3
1529292755745311,1,-5,-1,-8,-5,-6,4,8
1529292755758323,-30,-22,-15,-3,-2,-7,-8,-23
1529292755758323,10,8,7,6,3,5,6,7
1529292755767280,26,38,22,-5,8,14,10,16
1529292755767280,16,13,1,-4,-5,6,9,11
1529292755781215,-1,-10,-9,-11,11,3,9,5
1529292755781215,-28,-23,-7,15,-6,-3,-15,-23
1529292755788196,-19,-35,-39,-22,-3,-6,3,-9
1529292755788196,15,28,31,6,-4,-2,-8,7
1529292755796175,24,38,30,2,8,6,9,13
1529292755796175,-8,-2,-6,-14,10,6,10,5
1529292755805151,-5,-8,-6,-2,1,-9,-16,-18
1529292755805151,-4,-18,-16,-9,-9,-2,0,2
1529292755818117,-6,-14,-10,-8,-24,-13,-9,-5
1529292755818117,5,2,7,-6,-3,2,13,8
1529292755827092,-6,-1,-6,-8,2,17,-13,-11
1529292755827092,-7,-11,-14,-7,-2,-9,-5,-4
1529292755842052,1,-2,0,-1,-9,-8,0,-4
1529292755842052,3,6,5,19,1,6,3,4
1529292755848037,5,0,4,0,-2,-5,3,8
1529292755848037,-7,-9,-12,-6,-2,-1,-4,-12
1529292755856015,8,9,7,2,-16,12,1,7
1529292755856015,14,14,6,14,-2,-3,-3,4
1529292755870977,-1,-4,3,6,10,2,11,4
1529292755870977,-12,-2,6,-1,-27,-4,-6,-10
1529292755878954,-4,-12,-12,-9,2,-8,-2,-4
1529292755878954,-5,-5,1,-2,15,-5,-6,-4
1529292755904886,21,34,31,14,13,8,15,14
1529292755904886,-6,-12,-13,-8,-16,1,5,1
1529292755906067,-2,-6,-6,6,-12,-5,-4,1
1529292755906067,-17,-23,-33,0,-29,-5,-8,-12
1529292755909054,-10,-11,2,15,0,-1,3,0
1529292755909054,5,7,-1,-1,-5,0,0,1
1529292755925012,0,3,5,10,9,5,0,-3
1529292755925012,-1,0,3,4,6,9,-4,-5
1529292755926826,-1,-8,-13,-4,-7,-4,2,1
1529292755926826,8,11,8,13,22,4,-1,-4
1529292755939151,-3,1,4,-4,19,9,12,8
1529292755939151,9,7,9,17,-1,2,-1,4
1529292755947989,-9,3,-1,1,21,-6,-4,-10
1529292755947989,6,0,0,19,21,0,0,4
1529292755961951,0,-4,1,14,11,-4,-3,1
1529292755961951,-8,3,3,-2,6,4,2,-2
1529292755968933,3,0,3,10,-8,14,5,7
1529292755968933,-1,5,-7,-15,4,-9,-4,-8
1529292755984890,-6,-4,-4,13,-13,-9,-4,-6
1529292755984890,-3,-1,4,-10,16,3,2,2
1529292755986886,-8,-10,-10,-20,-32,-14,-7,-2
1529292755986886,2,3,13,19,-1,-1,2,6
1529292755999058,8,12,-6,-47,-19,0,-1,-1
1529292755999058,-8,-5,-1,7,-9,-1,-4,-2
1529292756008038,-6,-4,-3,-18,-13,0,0,4
1529292756008038,-2,-8,-16,-12,-1,7,-2,1
1529292756022047,6,-2,2,6,-4,-11,-9,-6
1529292756022047,16,11,17,-3,-4,0,3,1
1529292756028993,9,1,-9,-6,31,-13,6,1
1529292756028993,-1,-6,-5,-15,1,-6,-4,-4
1529292756045128,3,1,4,12,14,1,-4,-1
1529292756045128,0,-5,-9,-18,3,-1,0,-1
1529292756046970,9,8,11,6,-10,2,0,2
1529292756046970,0,6,9,13,-4,5,-1,-2
1529292756059206,-6,-5,-5,8,-4,-3,-1,-1
1529292756059206,-1,-6,-9,4,3,-3,-4,-1
1529292756067354,-9,-7,-13,-8,-7,13,-3,-4
1529292756067354,0,10,13,9,11,5,3,1
1529292756082434,1,6,18,-6,3,7,3,3
1529292756082434,-2,-1,-1,14,6,-2,-1,-1
1529292756089168,-4,-4,-5,-12,-8,-2,-2,1
1529292756089168,-8,-10,-7,-8,3,-4,-2,0
1529292756105633,-3,-4,5,16,9,3,0,-1
1529292756105633,6,3,0,-9,0,-1,1,4
1529292756107332,3,2,-4,-9,18,0,0,1
1529292756107332,-2,-2,-4,-7,-3,1,-1,0
1529292756118653,-1,2,0,-6,2,-6,-1,-1
1529292756118653,-4,-2,-4,-2,-14,-4,-2,-1
1529292756127246,-2,2,4,9,-4,2,1,-3
1529292756127246,-1,-2,-2,-3,-3,-1,1,-3
1529292756157714,-4,-7,-14,-10,-6,-4,-2,-4
1529292756157714,1,2,0,2,2,-3,1,0
1529292756159384,0,1,1,4,-4,-3,-1,-1
1529292756159384,-2,-2,-3,-3,-2,-4,0,0
1529292756165518,-1,2,-2,-2,-9,-5,-2,1
1529292756165518,0,2,0,-3,-10,0,1,0
1529292756166366,2,3,0,7,14,-5,0,0
1529292756166366,-1,1,-1,4,-17,-17,-4,-1
1529292756178530,2,6,4,4,20,16,4,0
1529292756178530,3,2,-1,-2,6,2,1,1
1529292756187310,-1,-1,-1,2,-14,3,-2,-1
1529292756187310,0,-2,-2,2,10,-3,0,2
1529292756201494,-3,-2,-4,-6,-4,-3,-2,-1
1529292756201494,-1,3,0,0,1,0,-1,-1
1529292756216745,2,1,1,0,-8,-2,-2,-1
1529292756216745,-2,-5,-3,-2,-2,5,1,0
1529292756225659,-1,-5,-4,-3,-5,-5,-2,0
1529292756225659,2,-7,0,-3,1,1,-2,-1
1529292756226656,0,-5,2,1,-2,-3,1,-2
1529292756226656,0,-3,-1,-5,-3,-1,0,-3
1529292756239153,-2,-3,-1,-1,-3,-5,-4,-1
1529292756239153,-3,-2,-2,3,-5,0,0,1
1529292756247997,-1,-1,-3,4,-3,2,-2,-1
1529292756247997,-1,1,-1,3,2,7,-2,-2
1529292756261963,-1,-3,-2,-5,-6,-1,0,0
1529292756261963,-1,0,-4,3,6,-1,1,-1
1529292756268980,0,-1,-1,-1,-1,-4,-1,-1
1529292756268980,-2,-2,0,1,-3,4,0,-2
1529292756285082,-3,-2,-5,-12,2,-6,2,-1
1529292756285082,-3,-1,-1,-5,1,-3,1,-2
1529292756286896,-3,-2,-2,-4,-11,-5,-2,-1
1529292756286896,1,1,-1,-3,-2,1,-2,0
1529292756298889,-1,3,3,6,0,3,-2,1
1529292756298889,-1,-1,1,-2,9,-6,-1,1
1529292756307887,-1,0,1,-2,9,-3,0,1
1529292756307887,1,2,1,1,27,9,3,0
1529292756321850,0,-2,0,-4,-9,-1,1,-1
1529292756321850,0,-2,0,0,-8,-1,-2,-2
1529292756328832,-1,0,3,0,1,3,0,0
1529292756328832,-1,0,2,1,0,-3,0,-1
1529292756344969,-1,3,1,-5,0,-2,0,0
1529292756344969,0,-2,-1,-2,2,3,-1,-1
1529292756346823,-1,-2,0,-5,-8,2,-2,0
1529292756346823,1,-1,-1,-4,-3,0,0,0
1529292756359091,1,-1,-4,3,-4,-3,-2,-1
1529292756359091,0,1,-2,-3,-12,-2,-3,0
1529292756367767,0,-1,0,4,1,-4,-1,-1
1529292756367767,-1,-3,-1,-2,-27,-18,-3,-1
1529292756382124,0,-1,-2,-1,0,-1,1,1
1529292756382124,2,1,-2,0,-1,1,2,0
1529292756388331,2,-1,1,-1,2,6,2,0
1529292756388331,-2,1,-1,-2,0,1,-2,0
1529292756405587,-1,-4,-3,1,-1,0,-2,-2
1529292756405587,0,-3,-1,-2,-5,1,-1,-1
1529292756407310,0,-2,-1,-2,-6,-2,1,-3
1529292756407310,0,-3,0,-1,-3,0,-3,-2
1529292756427412,-1,0,0,0,-3,0,-1,1
1529292756427412,-1,-2,1,-1,-1,0,-1,0
1529292756429224,0,-2,0,-4,-1,1,0,-1
1529292756429224,-1,1,0,-2,0,1,0,2
1529292756442467,-2,-1,-2,2,2,0,-2,0
1529292756442467,-3,1,-1,4,3,-4,-2,0
1529292756448820,-1,1,-4,1,-2,-3,-1,-1
1529292756448820,1,3,2,1,24,8,2,1
1529292756465077,-1,-2,-2,0,-1,-2,0,-2
1529292756465077,0,-1,0,-3,-3,0,-1,-1
1529292756466802,1,-1,-2,-2,0,1,0,1
1529292756466802,-3,-2,-1,0,-11,-3,-2,-3
1529292756478770,-2,0,-1,-1,0,1,0,1
1529292756478770,-1,0,0,1,-2,-2,-1,-2
1529292756487719,1,0,-3,0,-1,-2,0,0
1529292756487719,-2,-2,-2,-2,-9,0,-1,-1
1529292756501865,2,-1,1,-2,-2,-3,-2,0
1529292756501865,-2,-1,-1,-1,-6,-3,-1,-3
1529292756508663,0,1,2,1,-3,-5,-2,0
1529292756508663,-2,-2,-2,-1,-1,-1,-2,1
1529292756524620,-2,0,1,0,1,0,1,0
1529292756524620,0,-1,-1,-2,1,3,-1,1
1529292756526615,-2,-1,-1,0,-1,0,-2,0
1529292756526615,0,-1,-2,-3,-4,1,-1,-2
1529292756538584,1,0,-1,-1,-2,-1,0,-1
1529292756538584,1,-2,-1,-3,-4,-1,0,0
1529292756547561,-2,-2,0,-1,-3,-1,0,-1
1529292756547561,-2,-3,-1,1,-3,-1,0,0
1529292756561684,-2,-1,0,1,-1,1,-1,0
1529292756561684,0,0,3,-1,1,0,0,-1
1529292756568087,-1,-1,-3,-4,0,-2,-1,-3
1529292756568087,-1,0,1,-2,-4,-1,-1,0
1529292756585222,1,0,0,-3,1,0,0,-2
1529292756585222,-1,-1,0,1,0,0,0,1
1529292756587067,0,0,1,3,4,1,0,0
1529292756587067,-3,-2,0,2,0,-1,0,-2
1529292756599011,0,-1,-6,-15,-1,-2,0,-2
1529292756599011,-1,-2,-7,-2,-8,-1,-2,0
1529292756607988,2,-2,-2,7,0,-6,1,1
1529292756607988,2,0,-3,-4,1,0,0,3
1529292756621587,0,0,6,-1,-1,-1,0,2
1529292756621587,-1,0,-9,-11,5,-1,2,-1
1529292756628571,-3,1,2,4,0,2,-1,0
1529292756628571,-1,-3,-3,-3,-3,-3,-1,-2
1529292756644703,1,0,2,-3,-1,0,-1,0
1529292756644703,2,3,6,-5,-19,-5,-2,0
1529292756646524,-3,-7,-9,13,-4,-1,-2,-2
1529292756646524,3,2,2,-8,5,-1,1,0
1529292756659035,-1,-2,-3,3,-2,3,-1,-3
1529292756659035,-1,-1,2,2,0,3,0,-1
1529292756667706,-1,0,7,-6,1,3,-1,1
1529292756667706,-1,-1,-2,3,-1,-5,-1,0
1529292756681848,-1,-1,0,4,2,0,0,-1
1529292756681848,-1,0,0,3,7,2,0,-2
1529292756688650,2,1,3,0,0,0,-1,2
1529292756688650,-2,-2,2,8,-2,0,1,0
1529292756704788,0,0,-2,2,-6,-3,-1,0
1529292756704788,-1,-1,-8,-8,15,-4,1,0
1529292756711671,-1,1,4,10,-1,1,1,-2
1529292756711671,1,1,-4,-16,5,8,0,-1
1529292756718749,-1,0,-6,9,-1,-10,-3,-3
1529292756718749,-1,-1,12,3,-1,3,0,0
1529292756728188,1,1,-9,-22,-1,0,-1,-2
1529292756728188,-2,-3,-1,3,1,-3,-1,1
1529292756742272,-1,-2,-12,-4,4,5,0,-1
1529292756742272,2,5,23,32,12,3,-1,2
1529292756748946,-1,-6,-26,-34,1,1,1,-1
1529292756748946,-6,-7,1,20,-11,-2,-3,-5
1529292756764315,2,2,2,-8,1,4,2,3
1529292756764315,-3,-2,-2,-4,-9,-5,-3,-2
1529292756771297,2,6,16,12,2,-5,-3,-1
1529292756771297,2,1,0,-7,-1,-2,-3,-1
1529292756778089,0,0,3,-2,-8,5,-3,-3
1529292756778089,0,1,0,11,2,-3,0,0
1529292756788092,-2,-4,-9,-30,-11,0,-2,1
1529292756788092,1,3,-4,1,-1,-1,2,0
1529292756802066,0,-1,5,4,-1,0,0,1
1529292756802066,-2,-4,-14,-13,-13,2,0,-2
1529292756816035,0,2,6,11,-2,-7,0,0
1529292756816035,1,1,22,9,-3,1,0,0
1529292756824147,0,-2,-15,-16,2,-3,2,1
1529292756824147,-2,-5,-7,-22,2,1,0,-3
1529292756831187,-2,-3,-13,-6,-3,-2,-4,-2
1529292756831187,1,4,5,-5,-2,3,2,2
1529292756839169,-5,-9,-7,5,6,-1,-1,0
1529292756839169,-1,-3,1,16,3,-7,-6,0
1529292756847317,0,3,10,-2,2,0,1,0
1529292756847317,-1,-4,-16,-33,-4,-3,-3,-3
1529292756861629,4,3,20,10,8,4,1,0
1529292756861629,-2,-1,-4,-2,-5,-1,0,0
1529292756868494,-3,-2,-5,-4,1,2,-1,-1
1529292756868494,-2,0,6,17,0,0,-1,-2
1529292756884578,2,2,7,-3,2,-1,1,0
1529292756884578,0,-1,-3,1,-1,1,-1,-2
1529292756891433,3,6,11,6,4,5,2,2
1529292756891433,3,-2,-2,10,4,3,1,1
1529292756907428,-6,-7,-20,-11,-8,-8,-5,-4
1529292756907428,1,3,9,8,6,5,1,2
1529292756909612,-3,-4,-4,-4,3,0,0,0
1529292756909612,-3,-3,-2,17,0,-4,0,-2
1529292756921604,2,5,15,0,4,0,-1,0
1529292756921604,-2,-2,-16,-20,-8,-4,-2,-1
1529292756928983,-4,-6,-15,-5,-7,-5,-3,-2
1529292756928983,0,5,8,0,2,-2,0,1
1529292756944105,1,3,8,12,2,-1,-1,1
1529292756944105,-1,-5,-14,-10,-5,0,-2,-1
1529292756951084,-1,-3,6,6,-1,-1,-1,-3
1529292756951084,0,-2,-11,-4,0,0,-1,0
1529292756967933,-4,-2,2,4,-3,-2,-3,-2
1529292756967933,0,1,5,-3,2,3,2,2
1529292756968877,-1,-3,-6,-4,-5,-3,-1,-2
1529292756968877,-1,1,-1,-6,3,-4,-1,0
1529292756981842,1,3,3,6,3,-1,2,0
1529292756981842,1,1,-1,-4,2,0,-1,-1
1529292756989822,0,0,5,13,2,2,-2,-1
1529292756989822,0,-1,4,-1,-3,1,0,1
1529292757004073,-1,-4,-16,-12,-7,-3,-2,-2
1529292757004073,0,0,4,5,2,2,2,2
1529292757010924,-1,2,2,1,1,1,1,-1
1529292757010924,1,-1,0,-5,0,-1,0,-3
1529292757028033,0,-1,-1,3,-1,0,-2,0
1529292757028033,0,-1,3,2,-2,0,-1,0
1529292757028717,1,1,5,6,1,0,0,1
1529292757028717,-2,-1,-6,-7,0,-2,-1,-1
1529292757041443,-1,1,1,1,0,-1,-1,2
1529292757041443,-1,1,-5,-3,1,-4,-1,2
1529292757050469,-3,0,0,1,-1,-1,-4,-5
1529292757050469,-1,-2,-3,-2,1,1,-1,-1
1529292757065020,2,-1,-1,-2,-1,-1,-1,-4
1529292757065020,2,1,2,4,1,1,3,-1
1529292757071429,2,-3,2,5,0,1,0,5
1529292757071429,-2,-3,-2,-1,-4,-1,-1,-2
1529292757087545,1,-3,0,-2,-2,0,2,2
1529292757087545,-2,-2,-1,0,1,0,0,-1
1529292757089376,1,1,2,1,1,1,4,0
1529292757089376,3,0,-2,-1,1,9,1,18
