timestamp,emg1,emg2,emg3,emg4,emg5,emg6,emg7,emg8
1528882882733085,-1,-1,1,0,0,-1,-1,-1
1528882882733085,-1,-1,-2,-1,0,0,0,-1
1528882882734083,0,0,-2,-1,-2,-3,-1,0
1528882882734083,-2,-1,-3,-1,0,-1,-1,-2
1528882882737074,0,-1,0,-1,1,-1,2,1
1528882882737074,-4,-2,-3,-3,-2,-3,-4,-6
1528882882740067,0,1,0,-2,-2,-1,0,2
1528882882740067,-3,-1,0,-1,-2,-1,-3,-7
1528882882745055,-2,-2,-1,-1,-1,-3,-3,-8
1528882882745055,1,1,1,0,0,-1,-3,-2
1528882882760018,-1,-2,-1,-1,0,-1,-1,-2
1528882882760018,-1,-1,0,-1,-1,-2,-1,-2
1528882882766996,0,-2,-2,-2,-4,-1,-3,-1
1528882882766996,-1,-4,-4,-2,-1,-2,-2,-3
1528882882772984,1,2,0,1,1,-2,0,-1
1528882882772984,6,1,4,-1,-1,-2,-1,6
1528882882795917,-11,-4,-3,-2,-1,0,-2,1
1528882882795917,5,1,0,0,0,0,2,1
1528882882804893,-1,-1,-3,-2,0,-1,0,0
1528882882804893,0,-2,-2,-3,-1,1,-1,-2
1528882882806888,-1,4,3,1,0,0,2,3
1528882882806888,-2,-1,-1,-3,0,-1,0,-4
1528882882851769,0,4,2,1,-2,-1,-1,-1
1528882882851769,-1,-3,-2,-3,-1,0,0,0
1528882882852794,-9,-3,-4,-2,-2,-2,-3,-1
1528882882852794,5,-1,-1,-2,1,0,-2,0
1528882882853764,-2,-1,-1,0,0,0,-1,-1
1528882882853764,2,0,0,-2,-3,-2,-6,-7
1528882882857751,1,2,2,-1,-1,-1,0,3
1528882882857751,0,-1,0,0,-2,0,-1,-4
1528882882864733,-2,-1,-4,-2,0,-1,-2,-5
1528882882864733,2,0,-1,-1,-2,-1,1,5
1528882882870719,2,0,-1,0,0,1,-2,-2
1528882882870719,-3,-2,-3,-2,0,0,-1,1
1528882882887674,-1,-4,-2,-2,-3,-2,-3,0
1528882882887674,-3,-1,-1,2,1,0,-1,-5
1528882882893655,-1,-1,-3,-3,-1,0,-1,0
1528882882893655,-4,-2,0,-2,-2,-1,-1,2
1528882882902633,4,0,0,-1,0,-2,-1,-5
1528882882902633,-3,-5,-1,-1,-1,-2,-1,2
1528882882924575,-3,-3,0,-1,-1,-2,0,-3
1528882882924575,0,-2,-3,0,0,-3,0,-2
1528882882926568,4,-3,0,0,0,2,0,4
1528882882926568,-1,2,0,-1,2,2,1,4
1528882882938535,5,1,-1,0,0,0,2,2
1528882882938535,-5,-2,-1,-1,-2,-3,-3,1
1528882882945517,1,1,-1,-1,0,0,0,-2
1528882882945517,-3,0,6,1,-1,-2,-2,0
1528882882962478,-2,0,-4,-3,0,-2,-3,-3
1528882882962478,-2,-2,2,0,-1,-1,0,-3
1528882882963488,-3,-2,-10,-2,-2,-3,-4,8
1528882882963488,0,1,4,2,-2,-1,-1,-2
1528882882984412,-2,-6,-10,-9,-3,-1,-2,0
1528882882984412,4,6,21,17,1,0,-1,-4
1528882882986407,-3,-5,-7,-5,-2,-3,-2,-2
1528882882986407,-2,1,1,-6,-13,-6,-4,-4
1528882883000369,1,2,7,-3,-9,1,3,2
1528882883000369,-4,-7,-30,-8,8,-1,-2,2
1528882883005356,-1,-1,16,21,14,1,2,-1
1528882883005356,3,9,0,-5,-5,3,1,1
1528882883022339,-3,-8,-5,-13,-10,-4,-2,-3
1528882883022339,-4,0,6,9,15,9,1,-6
1528882883023332,-5,-14,-8,3,5,-4,-2,-3
1528882883023332,3,3,-7,4,-8,-2,-3,-1
1528882883044255,-7,-7,25,-18,-18,-7,-2,-4
1528882883044255,3,11,-3,-14,-11,2,0,1
1528882883046250,-3,-14,-14,7,25,11,4,2
1528882883046250,-1,6,20,13,16,1,2,-2
1528882883058216,4,6,-17,34,35,-1,-3,0
1528882883058216,-8,-16,-21,-27,-26,-10,-8,-5
1528882883067193,0,7,34,-19,-59,-35,-16,-8
1528882883067193,1,1,-20,-5,-18,10,11,-1
1528882883082154,1,1,17,33,79,21,7,4
1528882883082154,-1,-4,-6,11,33,42,7,2
1528882883084164,6,5,-27,-20,1,1,3,6
1528882883084164,-3,-3,35,9,10,-9,-7,-6
1528882883104094,-6,-8,-31,-24,-77,-38,-15,-9
1528882883104094,2,3,11,10,3,-22,-5,-2
1528882883106088,-4,-2,-9,-16,-35,4,-2,-5
1528882883106088,1,9,15,-1,-19,-2,1,2
1528882883118056,3,4,4,21,59,23,8,4
1528882883118056,-2,-4,-4,6,7,-4,-3,1
1528882883127043,0,1,-25,-30,-9,-7,-2,1
1528882883127043,-5,-9,13,6,-26,-12,-6,-6
1528882883142028,2,12,15,4,6,4,-2,-3
1528882883142028,-3,-7,8,-6,-11,-2,-2,0
1528882883143987,2,5,12,27,21,11,10,2
1528882883143987,0,-11,-51,-28,2,1,0,2
1528882883164930,-5,-3,3,-5,-1,-3,-2,-4
1528882883164930,4,6,6,-4,-13,-17,-3,1
1528882883165930,-5,-1,7,23,7,7,2,-4
1528882883165930,-3,-9,-15,-8,8,5,-5,-6
1528882883177896,-1,-1,-10,-5,-8,2,0,-2
1528882883177896,1,2,10,1,-22,-7,1,1
1528882883186871,-2,1,4,5,6,-4,-3,-3
1528882883186871,-2,-6,-4,1,-2,-11,-5,-3
1528882883201866,-1,-4,3,-3,-14,-1,0,0
1528882883201866,-4,2,-18,-8,31,16,0,-7
1528882883203827,-5,-9,-32,-20,-29,3,-3,-2
1528882883203827,1,5,-4,11,40,9,5,2
1528882883224804,2,6,20,9,-9,-7,-2,2
1528882883224804,3,-4,3,-2,-9,-15,-1,6
1528882883225823,-2,12,31,13,-9,3,-3,-7
1528882883225823,-4,-8,-40,-25,4,-2,-3,-9
1528882883237764,-3,-3,-3,1,-22,-9,-2,-6
1528882883237764,2,2,44,28,-8,-6,0,1
1528882883246724,3,4,-4,-27,16,3,-2,0
1528882883246724,-3,-5,-2,-10,-32,-14,-5,2
1528882883261691,4,2,-2,-9,1,3,2,3
1528882883261691,-2,-8,-21,-5,10,18,5,0
1528882883263684,-2,-2,-1,11,22,0,-4,-1
1528882883263684,-2,-5,-1,5,3,-3,-5,0
1528882883284612,0,-3,-14,-12,-26,-6,-2,0
1528882883284612,-1,-9,-4,-8,24,12,4,-2
1528882883286608,0,2,12,3,4,5,1,-1
1528882883286608,0,1,14,16,1,-1,0,2
1528882883298575,-7,0,15,-5,-13,-16,-10,-6
1528882883298575,-1,-6,-54,-15,-31,-9,-3,-2
1528882883307590,3,9,41,9,5,0,3,3
1528882883307590,7,1,-22,-14,20,11,5,5
1528882883322519,-2,4,20,11,-10,2,0,2
1528882883322519,-2,2,-3,0,-6,-7,-7,-5
1528882883323509,-6,-13,-27,-28,-13,-14,-4,-2
1528882883323509,8,3,36,40,0,5,1,1
1528882883344452,-4,-11,-54,-18,7,13,6,2
1528882883344452,0,10,31,3,2,-7,-1,0
1528882883346446,-3,-5,-13,5,6,-4,-2,-3
1528882883346446,-2,-5,12,-5,-4,-1,0,-2
1528882883358414,5,12,-6,-15,-6,-1,-3,-2
1528882883358414,-3,-3,2,5,2,-3,-2,-4
1528882883367417,0,-5,0,-4,-15,-6,-2,0
1528882883367417,-8,-9,-41,-20,2,-2,-1,0
1528882883382394,-2,-8,25,14,10,4,0,0
1528882883382394,2,6,6,6,-9,-5,2,1
1528882883383375,1,4,6,9,12,9,2,2
1528882883383375,-5,-2,-18,-14,-13,-15,-9,-8
1528882883404336,1,-3,-24,4,-2,5,1,1
1528882883404336,-5,-3,-4,-8,13,5,2,4
1528882883406288,-3,0,2,22,18,8,1,-7
1528882883406288,1,5,2,-20,-9,-6,-5,1
1528882883418253,-6,-6,2,-7,-11,-13,-5,-6
1528882883418253,1,2,14,4,-13,0,-2,-7
1528882883434211,2,-3,-14,-1,3,-3,1,3
1528882883434211,-1,2,18,11,6,4,1,1
1528882883441239,-1,-1,6,3,5,-1,-1,-2
1528882883441239,0,0,-11,-7,-7,-4,-7,-5
1528882883448176,-1,0,3,-11,-16,-14,-5,-3
1528882883448176,-1,3,9,7,-1,1,1,-1
1528882883464132,0,-3,-4,-4,2,6,2,2
1528882883464132,-2,-2,19,19,25,8,2,1
1528882883466127,1,-5,-54,-21,-13,-2,-2,4
1528882883466127,-8,-7,-13,1,3,2,-1,-6
1528882883478098,-3,1,15,3,1,-6,-3,-5
1528882883478098,-3,-19,-50,-16,-16,-7,-7,-3
1528882883487069,-3,8,41,12,0,0,-3,-8
1528882883487069,5,4,-16,-11,-6,-7,-6,3
1528882883501032,-2,-6,1,-1,1,8,8,0
1528882883501032,0,2,6,3,1,1,1,-1
1528882883508014,8,-6,4,-2,11,4,3,10
1528882883508014,-10,-5,0,-3,-3,-4,-4,-7
1528882883525004,-5,-9,-14,-19,-22,-14,-11,-5
1528882883525004,3,8,11,17,6,2,7,3
1528882883525966,-7,-3,1,11,15,6,-3,-2
1528882883525966,7,6,47,5,10,-4,1,3
1528882883537978,-4,-7,-27,-11,-5,5,6,-1
1528882883537978,-5,-8,-23,-25,-30,-13,-5,-5
1528882883546909,-2,1,16,0,-19,6,7,6
1528882883546909,-3,-4,8,25,30,1,-9,-10
1528882883560873,3,4,3,8,21,6,4,2
1528882883560873,-1,-1,-6,-7,-5,-1,-1,3
1528882883567872,0,0,3,-1,-22,-20,-9,-3
1528882883567872,-2,-4,-16,-17,-21,-1,5,7
1528882883584808,0,1,0,2,8,-3,-8,-6
1528882883584808,1,14,22,19,8,-5,-7,-1
1528882883585805,-1,-7,-14,-11,-1,-13,-4,-3
1528882883585805,-5,-8,-27,-9,-13,-2,-6,-4
1528882883597774,-5,15,1,-13,-2,12,17,1
1528882883597774,-2,-8,-6,-22,-36,-16,-9,-2
1528882883606749,-1,2,33,16,19,15,5,-4
1528882883606749,3,9,6,18,46,19,7,-1
1528882883621762,5,-3,-6,7,-7,-8,-7,4
1528882883621762,0,-2,2,-6,5,0,-3,1
1528882883635672,-4,1,5,0,-11,-19,-10,-4
1528882883635672,1,-5,-5,-9,-15,-4,0,-5
1528882883644649,-2,-9,27,15,1,10,5,2
1528882883644649,-1,3,-24,1,4,1,3,-2
1528882883645645,-3,2,-20,-26,-7,1,-2,-2
1528882883645645,-2,-3,16,2,-3,-1,-4,-3
1528882883666589,3,9,8,12,2,-9,-10,0
1528882883666589,-4,-5,21,-4,-8,-14,-9,4
1528882883668584,1,-16,-75,-21,9,13,10,-3
1528882883668584,-6,5,2,8,-1,13,12,6
1528882883681549,-1,-4,-16,-23,-8,-7,-3,5
1528882883681549,1,7,55,40,9,6,1,-9
1528882883688531,3,2,-25,0,2,-9,-6,0
1528882883688531,-4,-9,7,-25,-18,-12,-4,-1
1528882883704489,4,2,-18,23,7,5,-4,2
1528882883704489,-2,-4,-15,-30,9,1,0,1
1528882883706484,0,-3,-10,18,3,6,3,-4
1528882883706484,3,5,-14,-21,-12,1,4,0
1528882883727428,-7,-10,-18,0,-8,-5,-8,-7
1528882883727428,0,-3,20,-2,-1,1,6,1
1528882883728427,5,15,32,12,5,-3,-3,5
1528882883728427,4,-7,-16,10,-3,3,10,1
1528882883749369,-5,-2,14,-15,0,-7,-9,-1
1528882883749369,2,9,22,12,-3,7,7,4
1528882883751364,-6,-18,-34,-4,-2,0,-3,-3
1528882883751364,0,13,5,3,10,1,-2,1
1528882883764329,-3,-8,32,33,1,-4,0,-2
1528882883764329,1,14,-4,-38,-6,-1,-3,-3
1528882883766324,3,-11,6,-10,-7,-2,0,0
1528882883766324,-3,-27,-12,-13,-9,-9,-6,-5
1528882883787268,7,9,-15,-8,1,0,5,6
1528882883787268,-3,-13,-64,-21,2,9,2,3
1528882883788265,-3,-2,37,8,-3,-2,0,6
1528882883788265,0,4,-13,10,3,2,-2,-9
1528882883800234,-6,2,23,-9,-4,-2,1,-8
1528882883800234,2,-8,3,16,8,-1,-4,2
1528882883809210,6,16,28,2,6,1,0,6
1528882883809210,-10,0,31,14,-17,-12,-4,-3
1528882883823171,-3,-8,-30,-20,-5,5,9,-4
1528882883823171,5,10,-3,17,7,-2,-3,0
1528882883832148,-6,6,8,15,-7,-3,-1,-8
1528882883832148,1,0,5,-4,17,13,1,3
1528882883847272,5,-3,-10,-2,9,-11,-9,4
1528882883847272,8,-17,-24,-21,-9,9,9,2
1528882883849245,-6,-12,-29,-28,-2,0,0,-2
1528882883849245,0,6,26,10,-16,-17,-10,-3
1528882883870111,-7,-2,-25,-11,-5,-4,-3,-7
1528882883870111,2,-5,5,12,5,8,13,-1
1528882883871054,-4,6,26,23,-7,-9,-3,-1
1528882883871054,15,14,9,-21,1,37,24,17
1528882883883371,-5,-10,35,47,16,-8,-6,-7
1528882883883371,-11,-5,-23,-21,-2,-4,-7,-10
1528882883892196,5,-4,-10,-8,-1,-8,-2,-1
1528882883892196,-5,1,-22,8,-4,-15,-5,1
1528882883907313,7,-3,-24,-30,-3,9,6,9
1528882883907313,-11,3,42,54,5,-8,-11,-7
1528882883908369,-2,-1,13,-7,3,1,-3,-6
1528882883908369,-3,-8,17,22,2,2,-2,1
1528882883929456,-1,6,8,-19,-25,-28,-12,-5
1528882883929456,-8,-14,-36,-10,-4,1,-10,-5
1528882883931310,11,-4,-7,10,15,12,13,8
1528882883931310,-7,2,6,-10,-3,-1,-2,-13
1528882883943451,0,-1,28,42,8,24,9,-3
1528882883943451,-2,0,7,-34,-17,-16,-4,-1
1528882883952748,-2,2,8,2,-4,-23,-18,-1
1528882883952748,-3,-1,-18,2,0,17,11,-2
1528882883966573,13,-8,19,4,-2,1,-2,6
1528882883966573,-13,-2,-25,-23,-9,-37,-27,-8
1528882883973710,4,0,-10,-1,-9,-73,-35,3
1528882883973710,-8,-11,-33,-37,-37,2,9,-6
1528882883990769,2,4,-10,-2,31,58,26,5
1528882883990769,11,4,-34,6,21,39,24,1
1528882883991708,-15,-8,-40,-27,-10,-15,-10,-21
1528882883991708,-2,-2,7,11,0,-28,-41,3
1528882884003765,-16,3,4,-18,-65,-57,-18,-14
1528882884003765,-2,-13,-52,-37,10,-4,-2,1
1528882884012783,0,0,51,72,40,71,39,8
1528882884012783,15,12,13,20,34,-28,-1,7
1528882884026774,-3,-4,-36,-18,-12,-36,-26,-8
1528882884026774,-8,3,15,-15,-31,2,-28,-14
1528882884033765,8,3,-15,-7,-2,-19,-6,17
1528882884033765,11,7,17,17,23,119,101,3
1528882884049711,15,30,15,3,9,-21,6,17
1528882884049711,-28,-28,-36,-18,-20,7,6,-14
1528882884051711,-11,-13,28,-1,-6,-17,-20,-3
1528882884051711,-3,-5,22,12,-1,-43,-35,-7
1528882884063673,-1,-10,-20,-13,5,-21,-24,-10
1528882884063673,24,26,39,26,10,42,44,23
1528882884072698,-4,1,-12,-19,-12,25,4,-5
1528882884072698,-9,-13,-6,-10,-8,-33,-26,-5
1528882884086654,-5,-8,-40,-23,-5,3,3,2
1528882884086654,5,8,59,39,5,-49,-37,-11
1528882884093555,-2,-2,-31,-13,4,76,66,-4
1528882884093555,-3,1,-24,-29,-22,-22,-22,3
1528882884109803,-4,-1,34,35,22,30,10,-6
1528882884109803,-8,-7,-10,13,8,-21,-14,0
1528882884111636,6,4,11,-25,-11,-14,-2,9
1528882884111636,5,6,-14,4,4,4,2,-10
1528882884123605,-1,2,3,-2,-5,8,6,1
1528882884123605,6,5,8,-6,-2,32,52,9
1528882884132721,-12,-6,-7,-2,-4,-22,-46,-12
1528882884132721,-3,-6,-15,-10,-1,-4,-6,-1
1528882884146683,1,-6,2,0,2,-5,-8,0
1528882884146683,-6,-1,14,10,-1,-11,3,-4
1528882884153758,-3,2,-12,-5,-3,-12,-10,-7
1528882884153758,1,4,39,16,-2,2,-5,6
1528882884169986,11,-1,-56,-24,2,3,8,-2
1528882884169986,8,28,19,17,7,5,11,13
1528882884170992,-21,-12,-25,-15,-7,2,-1,-6
1528882884170992,-21,-12,36,16,-1,-11,-11,-25
1528882884192307,8,5,28,13,-10,-41,-39,7
1528882884192307,17,1,-6,-9,19,73,48,2
1528882884193141,10,12,16,6,-10,-21,-2,12
1528882884193141,6,1,-20,-17,-3,-25,-17,6
1528882884207264,-5,0,19,26,12,34,19,2
1528882884207264,-12,-15,3,-19,-14,-32,-20,-12
1528882884209266,0,-6,-51,-32,3,14,7,-8
1528882884209266,2,-1,5,17,-3,-12,-15,6
1528882884229413,-8,-2,0,-1,-6,-12,-9,-6
1528882884229413,3,-2,2,1,-5,-7,0,3
1528882884231246,4,-4,9,4,2,14,14,0
1528882884231246,-14,-8,-23,-10,-1,-10,-14,-8
1528882884252346,-1,-2,-4,-7,4,10,9,1
1528882884252346,-4,-2,-2,19,-10,-16,-21,-7
1528882884253344,6,2,20,-9,-4,-20,-15,3
1528882884253344,5,6,-5,6,10,19,16,4
1528882884267305,0,0,6,1,9,22,22,6
1528882884267305,-1,-5,-4,0,2,-6,-12,0
1528882884269219,7,-4,-15,-4,-8,-11,-6,-1
1528882884269219,3,-2,-13,-10,-7,-21,4,17
1528882884289091,-19,-1,11,-3,-1,26,4,-26
1528882884289091,2,1,-10,2,4,-4,-4,7
1528882884290786,-2,2,0,-3,-2,4,-2,-2
1528882884290786,-1,-1,0,1,3,8,9,-1
1528882884311756,2,-6,-14,-12,-8,-24,-12,-1
1528882884311756,-1,-1,0,-11,-4,-12,-8,-1
1528882884313727,5,3,12,7,3,13,1,-4
1528882884313727,-11,-7,-1,-2,-1,-1,7,-5
1528882884326720,-2,1,-3,-1,-4,-3,-4,1
1528882884326720,-2,0,13,8,2,-3,-10,0
1528882884333715,-5,-3,4,5,-2,-4,1,-9
1528882884333715,4,-2,-13,-3,-5,-2,-4,-5
1528882884349776,-2,8,8,-8,-1,8,3,-1
1528882884349776,-7,12,13,0,4,2,3,9
1528882884351696,0,1,14,13,-3,-4,2,-7
1528882884351696,-2,-4,-38,-34,-6,-5,-10,1
1528882884372633,-2,-2,2,17,3,5,4,-1
1528882884372633,6,-2,-23,-11,-9,-14,-9,-3
1528882884373567,-2,2,5,7,2,0,2,5
1528882884373567,1,6,1,0,1,9,3,1
1528882884385538,1,-3,-9,-8,-2,-3,-1,2
1528882884385538,2,-4,-21,-6,-1,-4,-3,-1
1528882884394521,-7,-6,9,21,0,0,-2,-3
1528882884394521,5,7,12,-4,-1,4,3,-2
1528882884409612,1,-7,-7,-12,-4,-5,-4,2
1528882884409612,-2,-9,11,7,-1,-5,-4,-4
1528882884411466,-4,1,-14,-9,0,4,2,-1
1528882884411466,0,1,22,11,2,1,-1,-4
1528882884432430,0,2,-6,-11,-8,-5,-2,1
1528882884432430,-7,-11,14,29,0,-1,-4,-4
1528882884433407,-1,7,-2,-15,2,1,2,2
1528882884433407,0,-3,-17,-13,0,3,1,0
1528882884445531,-3,-3,-3,2,4,-2,-1,1
1528882884445531,0,4,-11,-17,-5,-2,0,-2
1528882884454468,0,1,19,16,-5,-4,-2,0
1528882884454468,-2,-8,-28,-11,-9,-1,-1,-2
1528882884469473,-3,1,13,17,8,5,3,0
1528882884469473,-2,-7,-9,-11,7,3,-3,-4
1528882884471306,0,5,16,11,2,-1,-2,-2
1528882884471306,-1,-3,4,0,-2,0,1,3
1528882884492594,2,4,-4,-11,-7,-5,-2,-1
1528882884492594,-1,-6,8,16,-7,-6,-2,3
1528882884493623,-3,2,1,-4,9,3,0,-7
1528882884493623,8,5,-3,5,-1,3,-1,7
1528882884505718,-8,-8,-1,-16,-1,-1,-4,-3
1528882884505718,0,16,27,9,1,-1,-1,-1
1528882884514753,-4,-15,-19,-2,-8,-1,-2,-3
1528882884514753,-3,-6,0,1,-3,-1,0,-2
1528882884529123,3,4,1,-1,6,-1,-2,2
1528882884529123,-2,-13,-11,-11,-5,-1,-3,2
1528882884531115,-4,-2,-4,-10,4,1,-3,-9
1528882884531115,-2,4,13,7,2,0,-1,0
1528882884552199,-3,-14,-24,-10,-7,-8,-4,-2
1528882884552199,0,5,5,0,-7,-9,-2,-3
1528882884554196,4,2,3,2,-4,0,1,5
1528882884554196,4,1,7,6,4,8,5,2
1528882884566262,-1,-1,3,12,20,9,3,-6
1528882884566262,1,0,-11,-8,5,0,1,2
1528882884581233,-1,-3,6,-5,-5,-2,-1,-1
1528882884581233,0,2,-6,-8,-8,-5,0,6
1528882884589318,-3,-1,4,-10,-17,-6,-1,0
1528882884589318,-1,7,8,-1,-1,1,-1,-2
1528882884591156,6,1,-3,5,4,1,-1,4
1528882884591156,-4,2,1,-6,0,0,0,1
1528882884612666,-8,-6,0,1,-1,0,-2,-8
1528882884612666,1,1,-11,-7,-1,1,-2,-1
1528882884613666,-2,-5,-7,-5,-6,-1,0,3
1528882884613666,-2,2,11,11,1,-2,-3,-5
1528882884625790,3,-3,-8,3,-2,-3,-2,1
1528882884625790,0,-1,-2,-13,-6,-5,-2,-3
1528882884634625,-4,-1,1,-2,-10,-3,0,1
1528882884634625,0,2,1,6,1,-1,1,-5
1528882884649710,-1,1,-4,0,7,3,1,1
1528882884649710,-1,-3,-2,4,16,8,1,-2
1528882884651716,-4,-2,-3,-6,-2,-2,-1,-3
1528882884651716,-5,-7,-2,-2,-6,-4,-3,-7
1528882884672640,-2,1,0,1,-6,1,2,3
1528882884672640,1,-12,-9,-5,-7,-4,-4,-5
1528882884673504,-3,1,-2,-3,-4,-5,-4,-2
1528882884673504,0,-6,-4,-1,-2,-1,-3,-8
1528882884685609,2,-3,0,6,1,-1,-2,-2
1528882884685609,-1,1,-5,-12,-6,-2,-1,-2
1528882884694450,-1,-1,-4,1,2,0,-2,0
1528882884694450,-6,-3,1,-3,-1,-2,-1,0
1528882884709566,0,-1,5,2,-2,-4,-4,-2
1528882884709566,-3,-7,-10,-1,0,2,-1,1
1528882884711404,1,-1,2,0,-1,-1,0,0
1528882884711404,0,2,-1,2,3,1,-1,-1
1528882884732486,1,-2,-1,-1,-2,-1,-2,0
1528882884732486,0,0,5,0,-6,-2,0,-1
1528882884733431,4,2,2,1,1,0,0,1
1528882884733431,-12,-7,-4,-2,-2,-2,-6,-9
1528882884745313,-2,2,-2,-2,-2,-1,1,-1
1528882884745313,-2,0,1,3,-1,-1,0,0
1528882884755299,-3,0,-3,2,0,0,0,0
1528882884755299,1,0,0,2,6,0,-1,1
1528882884769638,1,1,2,0,-1,-2,-2,-1
1528882884769638,-2,2,3,3,0,0,1,1
1528882884771471,1,-5,-5,-2,0,1,-1,-3
1528882884771471,-2,-3,-3,-4,-4,-1,0,1
1528882884792576,-1,1,1,-2,-1,-2,0,1
1528882884792576,0,0,0,1,-1,-2,-2,-1
1528882884793461,-1,-4,-3,-2,1,0,-1,-1
1528882884793461,2,-1,1,2,1,-3,1,-1
1528882884805539,1,-2,-1,0,0,0,-1,-1
1528882884805539,-1,-5,-5,-3,-2,0,-1,-2
1528882884814555,-2,-4,-2,0,-2,-2,-1,0
1528882884814555,-2,0,1,0,-2,-2,-1,-2
1528882884829514,-1,3,1,-1,1,-1,-1,0
1528882884829514,-1,0,1,1,-1,-2,-1,-4
1528882884831536,-1,2,-1,-1,-1,0,0,-1
1528882884831536,2,0,-1,-3,-2,0,0,0
1528882884852482,0,-1,-3,-2,-3,-1,-1,-1
1528882884852482,-10,-4,6,3,0,-2,-2,-3
1528882884853451,-3,7,6,1,3,0,1,0
1528882884853451,-1,-5,-1,1,0,0,-1,2
1528882884865464,-3,-4,-2,-3,-2,-2,-3,-4
1528882884865464,1,1,-1,-1,-1,0,1,-1
1528882884874400,-1,-3,0,-1,-2,-2,-2,0
1528882884874400,-1,-2,-1,-3,-2,-1,-2,1
1528882884888411,2,0,-3,-3,-2,-1,0,-1
1528882884888411,1,1,-2,-3,-2,-2,-1,-1
1528882884895398,-1,-4,-1,-1,-1,-2,-2,-3
1528882884895398,-1,1,-2,1,-1,-1,-2,-2
1528882884912348,0,-1,-3,-1,-2,-1,-1,0
1528882884912348,0,-1,-3,-1,-1,-1,-1,0
1528882884913324,-1,-2,-2,-1,-1,1,-1,-1
1528882884913324,6,4,-2,-3,-2,1,-1,0
1528882884925311,-1,3,-1,-1,-2,-1,0,1
1528882884925311,-1,-3,-2,1,-1,1,-1,-1
1528882884934236,-2,-2,-1,-1,0,2,-1,0
1528882884934236,1,-5,-2,-1,-1,-1,-2,-4
1528882884948199,-3,-2,-1,-2,-2,-1,0,-1
1528882884948199,2,-2,-3,-4,-1,-2,-2,0
1528882884957184,2,-1,-5,-1,-1,-1,0,1
1528882884957184,-1,2,2,0,1,-4,0,-3
1528882884972188,1,-1,-1,1,0,-4,-3,-2
1528882884972188,-2,0,0,-2,-1,0,0,-1
1528882884974127,-3,-2,0,-1,0,0,0,-2
1528882884974127,-2,-2,-1,0,-1,2,-2,-1
1528882884986104,-3,-1,-1,-1,-1,1,-2,-2
1528882884986104,0,-1,-1,-1,-1,0,0,0
1528882884995074,-1,-1,-1,-2,-1,1,-1,-3
1528882884995074,5,-1,-5,-3,-3,-1,-1,2
1528882885009071,-1,-2,-1,1,0,-1,-3,-2
1528882885009071,-1,-2,-2,-1,-2,-1,-2,-2
1528882885016071,-2,-2,-1,0,-2,-2,-1,-1
1528882885016071,-2,0,-1,1,-2,-2,0,-2
1528882885032028,-1,0,-2,-2,-2,0,-1,-1
1528882885032028,-6,-2,-1,-1,-1,-3,-3,-1
1528882885033969,-2,-3,2,-1,0,-1,0,-10
1528882885033969,4,-2,3,1,1,-2,0,-2
1528882885045989,-6,-2,-3,-3,-2,1,2,0
1528882885045989,0,-1,3,1,-2,-2,-2,-2
1528882885054913,-1,1,-6,-3,-1,-3,-2,-1
1528882885054913,-6,0,2,0,-1,1,-1,0
1528882885068930,1,-1,2,-2,-2,0,0,0
1528882885068930,-2,-2,-1,-2,-1,-1,0,1
1528882885075917,1,-1,-2,0,0,-2,0,0
1528882885075917,-2,-2,-1,-1,0,0,-2,-4
1528882885091869,0,-2,-1,0,0,0,-3,-1
1528882885091869,-1,2,-1,-1,-1,-1,-3,1
1528882885093809,3,16,7,1,0,-1,-1,1
1528882885093809,-2,0,-3,0,-1,-1,0,0
1528882885114811,-2,1,-2,-1,-1,-2,0,-1
1528882885114811,0,0,-1,0,-1,-1,-1,-1
1528882885115805,-2,-5,3,0,-1,-2,0,0
1528882885115805,-2,-4,-16,-6,-3,-3,-2,0
1528882885128770,-1,0,-2,0,1,-1,-1,-3
1528882885128770,-1,-2,-1,-1,0,1,1,3
1528882885135725,3,-2,-1,0,-1,-1,0,2
1528882885135725,-6,1,4,1,-1,-2,-1,-3
1528882885151655,-1,-5,-1,0,-1,-2,0,-1
1528882885151655,3,-2,-7,-3,-2,0,-1,-6
1528882885153650,-3,-4,-5,-5,-2,-1,-4,-3
1528882885153650,5,2,2,1,2,0,1,-2
1528882885174627,-4,-11,-6,-1,-4,0,0,-4
1528882885174627,1,-1,0,0,-3,-1,0,0
1528882885176633,1,-4,-3,-1,-3,-2,-1,1
1528882885176633,-7,0,1,-3,-3,-1,-1,-2
1528882885188896,2,-1,-1,-1,0,0,-2,1
1528882885188896,0,-1,-3,-1,-1,1,0,-3
1528882885195876,-4,-5,-3,-1,-2,2,0,-4
1528882885195876,1,-2,0,-1,-2,-2,-2,2
1528882885212013,0,5,3,1,1,2,0,2
1528882885212013,-5,-1,0,1,-2,-3,0,-5
1528882885213871,2,3,-4,-2,-1,0,0,0
1528882885213871,1,-1,0,-1,-2,-2,-2,0
1528882885234972,1,1,0,-2,-2,-3,0,-3
1528882885234972,0,-1,-1,-1,1,-3,-2,0
1528882885235938,3,-2,2,1,-2,-1,-1,3
1528882885235938,-11,-5,-12,-5,-2,0,-2,-3
1528882885247811,-1,-4,-2,-3,-2,-1,-1,-6
1528882885247811,2,0,-1,0,1,0,1,5
1528882885257781,-6,-5,-5,-4,0,-1,-4,-9
1528882885257781,0,0,5,1,-2,0,-4,-3
1528882885271921,-2,1,2,2,-1,-2,0,1
1528882885271921,-3,-3,-4,-3,-2,-2,-3,-1
1528882885273918,-1,-2,1,1,-2,0,0,3
1528882885273918,1,0,-1,3,0,-1,-1,-1
1528882885294862,0,1,-2,-2,-1,-1,-2,-1
1528882885294862,0,3,9,0,0,0,-2,-1
1528882885295938,-3,0,4,0,1,-2,0,0
1528882885295938,2,-2,-13,-7,-2,0,-1,4
1528882885316960,1,-2,1,1,-2,0,0,0
1528882885316960,0,-1,-2,0,-1,-1,-3,-1
1528882885317800,-3,-1,2,1,1,-2,-2,-3
1528882885317800,5,1,3,-1,1,-2,-1,2
1528882885331795,-10,-5,-6,-5,-4,-4,-4,-7
1528882885331795,0,1,2,1,-1,0,2,1
1528882885331795,0,1,0,4,-1,0,2,9
1528882885331795,0,-1,0,1,1,0,-2,-9
1528882885353705,3,1,2,-4,-1,-2,-3,3
1528882885353705,-1,-4,-4,-4,-2,-2,-2,-5
1528882885354702,2,-4,-12,-6,-1,-1,0,5
1528882885354702,-5,-2,0,2,0,-1,1,-1
1528882885376648,1,0,4,3,-1,-1,-1,0
1528882885376648,-4,-1,-3,-2,-1,-2,-1,1
1528882885377654,-1,0,3,1,0,-2,-1,-3
1528882885377654,1,-1,0,-4,-2,0,-1,1
1528882885391604,0,-3,-5,-2,-1,-2,-2,-3
1528882885391604,0,0,1,0,0,-2,0,1
1528882885391604,2,-1,-2,0,0,-1,-2,-1
1528882885391604,-5,-1,6,-1,-2,-1,1,-1
1528882885413545,0,0,-3,1,0,0,1,2
1528882885413545,-1,-2,-3,0,-1,-2,0,-1
1528882885414543,-3,-5,-2,-3,-3,-2,-4,-6
1528882885414543,0,-1,-1,-1,0,0,-1,-1
1528882885437508,-1,-1,-3,-2,0,-1,-1,0
1528882885437508,1,1,-2,-1,0,-2,-1,-1
1528882885437508,-7,0,1,-2,-3,-2,-2,-7
1528882885437508,-1,-4,-3,3,-2,-2,-2,-5
1528882885451457,4,0,0,-4,-1,0,-1,-1
1528882885451457,-1,-1,-1,-1,0,0,-1,-2
1528882885452441,1,0,-1,0,0,0,-1,-1
1528882885452441,-1,0,4,0,-2,-2,-1,2
1528882885474414,-3,0,2,0,1,-1,1,0
1528882885474414,-1,-4,-8,-4,-2,-1,-3,-2
1528882885474414,-1,0,2,0,-1,-1,-1,0
1528882885474414,0,0,-2,-4,-2,-2,-2,-7
1528882885488466,0,1,1,1,0,-1,1,3
1528882885488466,-3,-2,-1,0,-2,-1,-2,-4
1528882885496654,0,-2,-4,-2,-2,-2,0,-3
1528882885496654,0,-1,-1,1,-2,-1,0,1
1528882885511533,-2,-1,0,0,-1,0,-2,-1
1528882885511533,-1,0,-2,-3,-2,-1,-2,0
1528882885512696,-1,0,1,-1,-1,-2,0,0
1528882885512696,-1,-2,-1,-4,-1,-1,0,-1
1528882885533834,1,-1,0,-2,-3,-1,-1,0
1528882885533834,-3,-2,-1,1,1,1,0,2
1528882885534688,1,0,-3,-1,-1,0,0,-2
1528882885534688,-3,-1,-3,-1,-1,-2,-3,-3
1528882885548763,-1,0,1,3,0,0,-2,-1
1528882885548763,0,-2,-6,-7,-2,-3,-1,6
