timestamp,emg1,emg2,emg3,emg4,emg5,emg6,emg7,emg8
1529299470607062,5,4,9,10,-1,6,16,6
1529299470607062,1,0,-1,4,3,5,4,2
1529299470609057,3,5,7,3,-28,-8,1,4
1529299470609057,-4,-6,-8,-9,2,1,-3,-1
1529299470610056,-8,-6,-6,2,5,-6,-5,-7
1529299470610056,5,2,4,5,-9,-2,0,3
1529299470614051,-6,-8,-15,-14,-1,-2,-2,-4
1529299470614051,0,2,4,-13,-9,2,7,1
1529299470619030,3,3,5,1,2,1,-2,0
1529299470619030,-2,-2,-8,-11,-4,-2,-1,-2
1529299470631004,4,8,9,26,13,1,-2,0
1529299470631004,0,-3,-1,5,-3,-5,-1,0
1529299470633991,-2,-7,-11,-11,1,1,-3,-2
1529299470633991,-2,-1,6,2,5,-1,0,-2
1529299470648950,1,-3,-6,-5,5,4,4,1
1529299470648950,1,0,-3,0,15,4,-1,-1
1529299470660928,-1,-1,-2,-24,-33,-9,-6,-1
1529299470660928,3,8,7,14,5,4,2,-1
1529299470665905,2,2,8,14,8,7,10,1
1529299470665905,2,-2,-11,-42,-8,-7,-16,3
1529299470679896,-3,1,6,30,-1,0,0,-4
1529299470679896,-5,-10,-14,-18,-3,-5,-4,-4
1529299470689840,-3,-1,-4,-22,-3,-7,-3,-3
1529299470689840,1,3,9,17,7,9,7,3
1529299470728751,-4,-4,3,7,-2,-1,-1,-2
1529299470728751,-1,2,6,1,-2,0,-2,-1
1529299470729734,4,5,11,13,25,14,5,3
1529299470729734,1,4,23,7,-51,-13,-4,1
1529299470732727,-8,-8,-20,-12,6,-3,-8,-6
1529299470732727,-3,-12,-25,-30,-18,-12,-5,-4
1529299470733723,5,13,8,15,29,14,7,4
1529299470733723,2,2,-12,-20,-10,3,2,2
1529299470739707,1,1,21,17,-4,-1,3,2
1529299470739707,-5,-9,-3,13,26,-1,-2,-3
1529299470748699,-1,-1,1,5,-4,-2,-2,-1
1529299470748699,0,0,10,10,5,9,4,0
1529299470754668,11,14,8,-7,-11,8,7,8
1529299470754668,5,9,6,10,12,5,1,4
1529299470769648,-7,-12,-14,0,-21,-8,-3,-6
1529299470769648,-4,-4,-8,-10,12,-3,-6,-4
1529299470785585,2,3,4,16,8,-2,1,0
1529299470785585,-1,-8,-25,-70,-26,-7,-3,-1
1529299470787579,5,9,27,39,8,0,-1,2
1529299470787579,-11,-20,-59,-106,-62,-19,6,-6
1529299470799547,6,7,16,19,41,9,-7,4
1529299470799547,-2,6,10,39,-13,5,8,-4
1529299470808523,-2,-7,-3,28,3,-4,-7,-4
1529299470808523,3,5,15,58,42,17,6,4
1529299470815504,-13,-19,-38,-53,-41,-25,-12,-11
1529299470815504,3,7,16,-9,-18,1,5,6
1529299470829467,4,4,-2,-35,12,9,4,5
1529299470829467,-4,-5,4,50,-12,-16,-10,-4
1529299470836454,1,3,4,21,34,12,3,1
1529299470836454,-6,-5,11,1,8,1,-4,-3
1529299470845424,-1,-2,-27,-43,-29,-16,-2,-3
1529299470845424,3,6,9,-13,-1,-5,-9,0
1529299470859387,-4,0,-1,38,39,14,5,-3
1529299470859387,4,7,18,25,8,3,4,4
1529299470868364,3,-3,-11,-14,0,-3,-6,-1
1529299470868364,-6,-16,-18,-37,10,-4,-1,-3
1529299470874347,-1,0,-6,-9,-5,4,0,0
1529299470874347,2,4,3,37,3,-6,0,1
1529299470890304,-4,-2,8,3,-6,3,-9,-2
1529299470890304,0,3,1,18,29,11,10,0
1529299470896336,-12,-16,-16,-24,-24,-17,-8,-8
1529299470896336,4,5,1,-26,2,4,1,1
1529299470905266,0,-1,-6,40,-11,-5,10,3
1529299470905266,6,12,17,37,20,3,-6,1
1529299470919229,2,1,4,-51,-17,-5,7,3
1529299470919229,-1,1,-1,14,4,-5,-2,0
1529299470928204,-7,-10,-18,-43,3,2,3,-2
1529299470928204,-2,-4,-2,10,-45,-22,-9,-3
1529299470934215,1,-2,-8,-3,9,-3,-1,-2
1529299470934215,-7,-11,-13,-45,-24,-5,-7,-4
1529299470949196,3,9,11,10,21,6,4,1
1529299470949196,-3,1,3,11,6,6,0,0
1529299470957125,6,2,7,16,-15,-3,1,0
1529299470957125,-5,-7,-9,-1,8,4,0,-3
1529299470972086,-1,4,-5,3,-8,-3,-6,-3
1529299470972086,7,7,0,-57,6,9,2,6
1529299470979067,-4,-3,4,23,-28,-9,1,0
1529299470979067,2,2,5,25,19,3,-15,-4
1529299470988042,-11,-11,3,10,7,-1,-6,-5
1529299470988042,7,10,0,-2,-11,-7,0,0
1529299470994054,-2,-4,-6,-29,-3,6,10,11
1529299470994054,8,10,-5,17,-4,3,-3,-14
1529299471008988,-1,-7,18,22,-3,-9,-3,1
1529299471008988,3,9,-7,-24,2,6,3,2
1529299471016967,-6,-2,12,34,4,-4,-4,-5
1529299471016967,-3,-5,-8,-4,-9,-7,2,1
1529299471031928,-2,0,3,-10,21,4,1,-2
1529299471031928,-2,-2,7,50,7,10,3,-1
1529299471038908,1,3,1,-2,10,4,-6,1
1529299471038908,4,0,1,1,3,-1,15,3
1529299471047901,-3,-4,-6,0,-14,-9,-14,-4
1529299471047901,0,0,11,-3,0,2,-5,1
1529299471053895,0,-2,-18,-37,-13,-7,-8,-6
1529299471053895,-5,-6,4,23,8,-1,0,6
1529299471068827,6,7,-11,-28,-28,-7,0,3
1529299471068827,-10,-16,-11,16,17,1,-1,-7
1529299471076805,2,5,19,9,-11,0,-3,0
1529299471076805,4,10,2,-1,4,3,1,4
1529299471099747,-2,-4,-1,3,-3,0,6,1
1529299471099747,-4,-4,-17,-19,-7,0,-4,-1
1529299471100744,0,-3,-7,2,-6,-4,-2,-4
1529299471100744,-3,-9,3,-1,-7,-3,0,3
1529299471108722,-1,8,15,4,-1,3,2,0
1529299471108722,5,4,5,-5,5,2,0,2
1529299471114704,2,2,3,15,10,6,4,-1
1529299471114704,-4,-5,-7,-9,-11,0,0,0
1529299471129664,-2,-5,-6,1,11,-1,-15,-7
1529299471129664,-5,-3,3,-30,-14,0,3,0
1529299471136646,5,9,1,-2,-6,-6,2,-3
1529299471136646,-2,-4,-3,-6,13,0,1,2
1529299471151608,-4,-7,-9,-17,-8,-4,-10,-9
1529299471151608,2,7,11,24,4,2,0,-4
1529299471159626,-5,-11,-6,-2,4,7,5,4
1529299471159626,5,6,4,-12,3,-1,-1,2
1529299471168599,2,3,7,43,18,10,20,8
1529299471168599,-2,-5,-5,-33,-30,-16,-11,-3
1529299471174582,-2,0,-5,-8,-6,-2,-2,-3
1529299471174582,4,5,2,-14,-7,-2,-4,-2
1529299471189506,-11,-8,-5,0,6,9,11,-1
1529299471189506,11,6,4,18,13,-2,-3,8
1529299471196486,-1,2,5,25,4,5,5,-3
1529299471196486,-5,-7,-15,-56,-12,-1,-2,-3
1529299471211474,-3,1,0,-10,-14,-8,1,-2
1529299471211474,-1,-3,3,24,3,0,2,-2
1529299471219452,3,5,-2,-49,-6,1,0,1
1529299471219452,0,1,1,33,11,5,5,3
1529299471228400,9,4,0,-13,-9,-2,-7,2
1529299471228400,-9,-7,-8,0,10,-3,-1,-5
1529299471242392,1,-1,2,16,2,2,1,2
1529299471242392,-4,-5,-5,4,2,1,3,2
1529299471249346,4,3,1,-12,-12,-5,0,-1
1529299471249346,-1,-11,-6,6,5,-2,4,6
1529299471256328,-8,1,6,17,9,0,-8,-13
1529299471256328,1,1,1,5,-6,3,0,1
1529299471272290,-6,-9,-13,-37,-13,-8,-4,-3
1529299471272290,2,4,8,10,18,11,2,1
1529299471279311,0,0,-3,-5,-2,-3,3,1
1529299471279311,0,0,5,13,-1,5,-2,-3
1529299471288241,-1,1,-2,-10,-12,-3,-2,-2
1529299471288241,-7,-7,-4,-6,-5,-5,-2,-7
1529299471302230,2,1,-1,4,14,1,-3,0
1529299471302230,0,-2,3,1,-3,-4,-5,2
1529299471309213,-1,2,-4,-2,-9,-3,1,0
1529299471309213,-4,-1,2,3,6,-4,-25,-6
1529299471317195,3,-1,-2,7,-10,-5,7,1
1529299471317195,-1,1,3,11,5,-3,-2,5
1529299471332123,-1,-4,-6,-1,-4,1,5,3
1529299471332123,-6,1,-4,-25,-10,-1,4,-2
1529299471339105,-5,-4,-3,12,-13,-4,-5,-1
1529299471339105,-2,-6,-5,-21,5,1,-4,-7
1529299471348095,0,1,3,-5,3,-1,0,1
1529299471348095,2,1,0,37,6,3,9,2
1529299471362183,1,-3,0,-20,-9,-8,-9,2
1529299471362183,4,4,5,-11,-3,-1,5,2
1529299471369164,-10,-3,-3,31,7,2,-5,-13
1529299471369164,1,-3,-2,-24,5,8,2,6
1529299471377306,-9,-5,-3,36,15,1,0,-6
1529299471377306,9,5,2,-8,-27,-3,-5,-1
1529299471392174,4,4,0,-10,0,-8,-4,2
1529299471392174,0,0,1,17,12,5,8,0
1529299471400271,0,-3,-6,-30,-6,1,-5,1
1529299471400271,-3,-1,0,10,-3,-5,0,5
1529299471407113,-4,0,4,7,9,6,2,-11
1529299471407113,-1,-5,-11,-21,-20,-11,-6,-2
1529299471422073,-1,-2,-1,-1,-10,-9,-9,-3
1529299471422073,0,5,3,10,3,-1,-1,-5
1529299471429107,3,-2,0,-12,-4,0,2,5
1529299471429107,-1,-1,0,10,-7,-7,-2,-6
1529299471437084,6,6,6,-19,-10,0,-1,3
1529299471437084,-9,-14,-14,-22,2,-2,-3,-6
1529299471451991,2,5,1,11,0,-9,-3,2
1529299471451991,-1,0,9,16,6,-1,2,-1
1529299471459970,4,0,-9,-20,-3,29,6,1
1529299471459970,1,6,5,-3,-2,-11,5,0
1529299471466952,5,1,7,14,15,9,11,12
1529299471466952,4,3,-1,-17,8,-1,6,-4
1529299471482910,-2,-5,1,9,-2,0,-2,2
1529299471482910,-6,-5,-10,-25,-24,-16,-9,-7
1529299471488895,-2,-7,-6,-9,-15,-2,0,0
1529299471488895,5,4,10,25,9,10,1,5
1529299471496875,0,3,-2,-1,-5,-3,3,-1
1529299471496875,-3,-1,1,13,10,1,-5,-5
1529299471511975,3,3,0,-9,-5,-7,-3,5
1529299471511975,4,1,-2,-7,-18,-4,0,3
1529299471520114,-3,-1,2,-5,16,4,3,1
1529299471520114,-3,-5,-4,18,5,-4,-7,-6
1529299471527094,4,4,5,10,17,14,3,5
1529299471527094,1,6,0,-7,-29,-9,6,14
1529299471542897,0,-6,-8,-18,9,-5,-9,-16
1529299471542897,-5,-1,4,29,2,-2,-11,-3
1529299471549035,-3,2,-3,-45,-8,2,-4,-9
1529299471549035,0,-5,1,9,-1,4,4,3
1529299471556855,-2,0,3,12,-2,-7,-3,0
1529299471556855,1,1,-2,2,6,-2,2,-1
1529299471572211,-1,-1,-2,6,-9,-3,-3,0
1529299471572211,-7,-4,-11,-29,-9,-7,-8,-12
1529299471580395,-1,0,-1,8,8,2,9,5
1529299471580395,7,3,7,-2,1,6,2,2
1529299471586544,-1,-2,1,18,-1,4,1,2
1529299471586544,3,6,1,-5,-3,0,2,2
1529299471602496,-6,-7,-3,4,-2,-1,-1,-1
1529299471602496,0,1,1,6,2,6,2,3
1529299471609320,1,-2,-2,-12,-4,-10,-2,-5
1529299471609320,-4,-4,-2,24,15,1,-2,-4
1529299471616301,2,1,3,-9,-14,-5,7,3
1529299471616301,-3,-2,0,12,0,-5,-11,-3
1529299471631647,-2,-6,1,-3,0,0,1,-1
1529299471631647,-2,-3,-1,11,9,4,-1,-3
1529299471639793,4,8,-2,-9,-14,-8,-2,1
1529299471639793,-4,-5,-4,-7,-4,5,4,0
1529299471646767,1,2,8,12,1,0,-1,2
1529299471646767,-1,-1,1,8,12,7,-2,-3
1529299471662724,-4,-5,-2,15,-15,-17,-6,-2
1529299471662724,4,5,-3,-46,-10,6,4,2
1529299471669581,-2,0,-2,17,-2,-3,-6,-2
1529299471669581,0,6,6,-7,-1,1,1,-1
1529299471676529,-1,-2,0,-1,4,4,2,2
1529299471676529,-4,-3,-2,5,0,-2,3,-1
1529299471691489,-2,-3,-4,-2,-7,-2,0,-1
1529299471691489,-2,-3,-7,-20,-5,-3,-1,-2
1529299471699467,-5,-4,1,2,-3,3,0,1
1529299471699467,6,4,0,8,-4,-2,0,0
1529299471714427,1,0,2,-4,-10,0,1,0
1529299471714427,-2,-4,-2,-6,-1,-1,-2,-3
1529299471722435,3,3,2,5,3,0,1,2
1529299471722435,-5,-4,-1,0,3,0,-11,-6
1529299471737607,-5,-3,-7,1,3,0,6,-1
1529299471737607,0,-2,-1,-3,-6,-11,-8,-1
1529299471738570,0,0,1,10,15,5,-3,-11
1529299471738570,-2,-2,-4,-19,-1,-6,17,6
1529299471751570,4,2,-3,6,-2,22,-6,3
1529299471751570,-4,-1,0,6,3,-25,-12,-5
1529299471759536,2,-3,-3,-4,6,-7,14,14
1529299471759536,0,-1,3,12,2,7,9,-9
1529299471774508,5,15,13,29,19,-1,3,2
1529299471774508,2,2,-3,-39,0,-5,-2,1
1529299471782494,0,0,0,12,4,11,-1,1
1529299471782494,-6,-6,-5,0,6,-8,-9,-5
1529299471797409,-5,-10,-8,-13,-14,4,2,0
1529299471797409,6,5,14,31,-14,6,4,4
1529299471798406,0,0,-11,-29,2,-4,-5,-4
1529299471798406,1,0,1,-9,-13,4,0,3
1529299471811374,-4,-3,-5,-7,-5,-7,-3,-4
1529299471811374,-3,-6,-5,-3,1,5,-1,-2
1529299471819351,-5,-6,-1,1,-5,6,0,-2
1529299471819351,4,13,13,14,0,0,1,2
1529299471834315,-3,-1,-2,-12,-1,-8,-3,-2
1529299471834315,3,1,-1,0,-2,2,2,2
1529299471842453,-1,-1,-6,-16,-8,-5,-7,-3
1529299471842453,-4,-6,-4,4,6,3,-5,5
1529299471857415,0,-1,2,-2,2,-5,0,-5
1529299471857415,-1,1,0,23,7,7,4,2
1529299471858246,-1,-2,-4,-43,-18,-5,-7,-3
1529299471858246,-1,-2,-2,6,2,-1,-1,0
1529299471872208,-1,-5,2,-6,-1,-2,-3,0
1529299471872208,-3,-2,-5,-1,3,2,0,-3
1529299471879349,4,5,11,29,3,0,0,3
1529299471879349,0,-3,-8,-21,-12,-5,0,-1
1529299471894604,-3,-3,-4,-2,-2,-4,0,1
1529299471894604,-3,-2,1,-5,5,6,4,-2
1529299471902804,1,3,3,21,1,-1,0,1
1529299471902804,6,4,7,8,-2,-1,0,0
1529299471917736,-1,-1,2,3,3,-2,-4,-1
1529299471917736,0,-1,-5,-6,-4,2,-2,0
1529299471918735,-2,0,0,1,-1,2,2,-1
1529299471918735,-2,-5,-4,-1,3,1,-1,-2
1529299471931562,2,2,-2,-7,-7,2,5,2
1529299471931562,-3,-3,-1,-4,-1,0,0,-2
1529299471939702,2,2,0,1,-1,0,0,-2
1529299471939702,0,-1,-3,4,0,-1,0,-1
1529299471954561,2,1,2,5,7,2,-1,0
1529299471954561,-4,-4,-3,-5,-7,-1,-3,0
1529299471962635,-1,-2,2,1,3,2,1,-1
1529299471962635,1,4,3,8,3,1,-1,1
1529299471977595,-1,-2,-2,-1,-6,-1,1,0
1529299471977595,0,-1,-2,-5,-3,-6,-20,-5
1529299471978434,-2,-3,-1,2,2,-1,-1,-1
1529299471978434,1,1,3,1,3,3,1,0
1529299471991762,-1,-3,-3,0,-2,1,-2,0
1529299471991762,-1,0,-1,-4,4,-6,2,0
1529299471999722,2,3,1,4,-3,-1,-1,1
1529299471999722,-3,-3,-6,-3,-2,-2,-2,-2
1529299472014679,0,2,0,-1,-4,1,3,0
1529299472014679,-2,-2,-1,-4,-12,-1,-4,-5
1529299472022976,-3,-2,-1,2,-7,-3,-3,-2
1529299472022976,-1,-2,-2,-4,1,-7,2,0
1529299472037175,-2,-2,-5,-4,-3,-7,-1,-1
1529299472037175,0,-1,1,0,-8,15,4,-1
1529299472038010,-1,-3,-2,0,-8,-2,0,0
1529299472038010,-7,-6,-6,-4,-6,4,1,-2
1529299472052345,2,4,4,0,-5,-6,-4,-4
1529299472052345,4,7,5,3,2,-5,0,3
1529299472059315,-1,-5,-1,0,1,1,1,0
1529299472059315,1,-1,-8,-6,-1,0,-2,3
1529299472074118,-1,-4,0,0,2,-3,-3,-2
1529299472074118,-1,0,-2,-1,2,4,5,2
1529299472082221,0,-1,-2,1,7,-12,-2,0
1529299472082221,5,10,14,10,2,-9,-1,3
1529299472097052,-2,-3,-6,-7,0,4,-2,0
1529299472097052,-1,-2,-2,1,0,2,-2,-3
1529299472098053,0,1,0,-2,0,-5,0,0
1529299472098053,-4,-5,-3,3,11,1,-1,-1
1529299472112174,0,2,-3,-1,1,-18,-8,-1
1529299472112174,-1,1,4,0,0,1,3,2
1529299472119153,2,4,1,1,-3,-3,-2,2
1529299472119153,-1,-4,-2,0,-7,0,0,-2
1529299472133953,-4,-7,-2,1,0,6,2,-3
1529299472133953,0,4,2,-1,3,-6,-1,-3
1529299472143018,1,1,1,-2,-7,7,-1,1
1529299472143018,2,-1,2,1,-3,4,-1,0
1529299472157888,-1,-3,-2,-2,-1,1,0,-1
1529299472157888,-4,-5,-7,-2,2,4,1,-2
1529299472157888,-2,-1,2,-2,-1,1,0,-2
1529299472157888,-1,0,-6,-6,-5,-4,-1,-4
1529299472171852,0,0,2,9,12,-16,-4,0
1529299472171852,8,7,8,2,-1,-4,3,5
1529299472178834,1,4,2,2,-1,-2,-1,2
1529299472178834,0,-1,2,2,11,4,1,2
1529299472193793,0,-5,-8,-9,-7,2,-2,-3
1529299472193793,-4,-4,-3,-1,-1,-1,-2,-2
1529299472202824,1,-1,1,2,7,1,-1,0
1529299472202824,-5,-2,0,-2,-4,3,-1,-3
1529299472216788,1,2,3,-2,-13,15,5,0
1529299472216788,-2,-2,-2,0,0,-8,-1,2
1529299472224764,-6,-6,-9,-6,-2,2,-2,-4
1529299472224764,3,5,1,-2,-4,1,-1,3
1529299472231746,1,-3,2,1,-3,2,-1,-1
1529299472231746,4,0,1,0,2,2,4,4
1529299472239724,-1,3,0,3,2,-1,-5,-3
1529299472239724,0,6,0,-2,-8,-2,-1,0
1529299472254675,-4,-8,-4,2,9,-10,-4,-1
1529299472254675,-1,4,3,0,-4,2,-3,-2
1529299472262663,8,5,5,5,1,4,5,4
1529299472262663,-4,-6,-4,-5,-4,-4,-3,-6
1529299472276593,0,2,2,1,0,2,2,1
1529299472276593,-4,-8,-6,-5,0,-2,4,0
1529299472285565,0,1,-2,-4,3,8,11,1
1529299472285565,-1,-3,-1,1,-1,2,-13,0
1529299472291532,1,1,2,-4,-21,-16,-6,-2
1529299472291532,-2,-3,-3,-3,-7,19,4,-2
1529299472308486,-3,-3,-2,-1,4,-10,3,-1
1529299472308486,-1,-1,-1,-3,-4,-2,-4,-3
1529299472314504,7,9,6,2,5,4,8,5
1529299472314504,-2,0,-3,-4,-6,-1,0,1
1529299472323456,-2,-1,0,-3,-7,0,-7,-2
1529299472323456,-3,-5,-2,0,-6,3,1,-1
1529299472336446,0,1,0,2,7,3,-3,0
1529299472336446,-2,-3,-4,-3,-4,-6,0,0
1529299472345416,-1,-2,-1,-1,-4,-2,-4,-4
1529299472345416,1,1,0,1,6,-2,4,2
1529299472351405,0,1,2,1,11,6,1,1
1529299472351405,0,-3,-1,0,0,-2,-2,-2
1529299472368379,-2,-1,-2,-3,-9,-3,-6,-1
1529299472368379,1,1,0,0,-6,2,4,1
1529299472374364,-3,-3,-5,-2,-7,0,-3,3
1529299472374364,1,2,-2,2,3,2,15,-1
1529299472383286,-2,-6,-2,0,16,-1,-8,0
1529299472383286,1,0,-1,1,2,-1,2,1
1529299472397249,1,0,2,-1,-9,3,1,-1
1529299472397249,-1,3,-1,1,-5,-5,-2,-1
1529299472405247,0,2,0,-3,-17,2,0,-1
1529299472405247,-2,-6,-2,2,3,-3,3,3
1529299472419242,-1,1,-3,-2,2,-3,0,-4
1529299472419242,-1,2,0,1,0,-2,-5,-1
1529299472428177,2,-1,-3,1,2,-1,-2,-1
1529299472428177,0,-5,-2,-1,2,1,-3,5
1529299472434205,-1,0,0,0,1,-1,-3,-7
1529299472434205,1,0,-2,-1,0,-3,-3,-1
1529299472443127,-2,-1,-2,-1,3,1,0,-4
1529299472443127,0,0,0,-1,-1,0,4,2
1529299472457146,-2,-1,-1,0,-1,-1,-1,2
1529299472457146,-2,-1,1,-2,-2,-2,-5,-3
1529299472466119,0,0,0,-2,-3,-2,0,2
1529299472466119,1,1,0,-1,-1,0,0,-4
1529299472479031,-2,-1,-1,-2,10,1,0,0
1529299472479031,-2,-2,0,0,8,-3,-5,-2
1529299472488006,-2,-2,-3,-1,-5,0,-1,0
1529299472488006,0,2,1,0,-9,0,-1,-2
1529299472493991,-1,-1,0,1,-7,-1,0,-2
1529299472493991,0,-2,-4,-3,-2,-1,-1,3
1529299472503136,0,-1,-2,0,0,-1,0,-1
1529299472503136,-1,0,0,-3,-2,-3,0,-3
1529299472517245,0,-2,-1,0,-1,0,0,1
1529299472517245,0,-2,0,1,-2,-3,-3,0
1529299472526101,0,1,0,2,5,2,0,1
1529299472526101,0,1,-1,-1,3,0,-1,-3
1529299472539405,1,-3,0,-1,-1,1,1,1
1529299472539405,-3,-2,-3,1,-1,-2,-3,-2
1529299472548216,-1,1,1,-1,-4,1,-1,-1
1529299472548216,1,0,-1,1,1,0,-2,2
1529299472554345,0,2,-2,3,9,-6,0,1
1529299472554345,0,0,2,0,2,2,1,-2
1529299472563177,-2,-3,-1,-2,-9,-5,1,-1
1529299472563177,0,0,1,1,1,-2,-1,-1
1529299472577298,-1,0,-1,-3,-2,2,-1,0
1529299472577298,0,-2,0,0,3,0,-3,-1
1529299472586274,0,0,-1,0,1,-1,0,-2
1529299472586274,1,-1,2,-1,-2,0,-1,-1
1529299472599138,-1,-1,-1,0,-2,1,-1,1
1529299472599138,-2,-2,-1,0,0,-2,0,1
1529299472608058,1,0,-2,-4,-5,1,2,-1
1529299472608058,-2,1,-1,1,2,-1,1,-3
1529299472614041,1,1,0,-1,-1,-2,-1,0
1529299472614041,-2,0,0,0,-1,1,-1,-1
1529299472623016,-1,-1,1,0,-1,0,-2,0
1529299472623016,-1,-1,-1,0,-2,-1,0,-1
1529299472637103,1,-2,-1,-2,-4,-1,1,-1
1529299472637103,0,-1,-1,0,-2,-1,-2,-1
1529299472646324,0,-1,-1,1,2,1,1,0
1529299472646324,-2,-1,-2,-3,-1,1,-1,-2
1529299472659287,-2,-1,0,0,-1,0,0,-1
1529299472659287,-1,0,0,-1,-3,0,-1,-1
1529299472668324,1,-1,-1,0,0,0,-1,1
1529299472668324,-1,0,0,0,-2,-1,-1,1
1529299472674658,0,0,-2,-1,-3,1,-2,-2
1529299472674658,0,0,0,-1,1,0,-1,0
1529299472683474,-2,-1,0,-1,1,0,-1,-2
1529299472683474,0,-1,-2,0,0,0,1,0
1529299472696577,-1,-1,-1,-2,1,-2,-1,-1
1529299472696577,0,-1,-2,-1,0,-1,-1,-2
1529299472705413,1,1,1,0,-3,0,1,1
1529299472705413,0,-1,-1,0,2,-1,-1,-2
1529299472719424,0,-2,0,-1,-2,-1,0,0
1529299472719424,0,-1,-1,-1,-1,0,1,0
1529299472728352,-1,0,-1,0,2,-1,-1,-1
1529299472728352,-1,-2,1,-2,-7,-1,-1,-1
1529299472734479,0,-1,-1,-1,-2,-1,-1,-1
1529299472734479,0,-3,-2,-2,-1,-2,-2,0
1529299472743318,-1,0,0,1,1,-1,0,0
1529299472743318,0,0,-1,1,-3,-1,0,0
1529299472757307,-1,-1,-1,-1,-2,0,-1,-1
1529299472757307,0,-2,0,1,-3,0,0,-1
1529299472766342,0,-2,0,-1,-2,0,1,0
1529299472766342,-1,0,-3,-2,1,-2,0,0
1529299472779216,-1,-2,-1,-2,0,-1,-1,-2
1529299472779216,-2,0,0,0,-1,-1,-2,0
1529299472788212,-2,-1,0,-1,0,-1,-2,0
1529299472788212,-1,1,0,-1,0,0,-1,1
1529299472794336,-1,-1,-1,0,-3,-1,1,0
1529299472794336,0,0,-2,-1,-2,-2,0,-2
1529299472803501,1,-2,-3,-1,0,-1,-2,-2
1529299472803501,-1,1,0,-1,1,-1,-1,-1
1529299472816612,0,2,0,-1,1,-2,0,-1
1529299472816612,-2,0,1,0,0,0,0,0
1529299472833891,0,1,2,0,0,0,-2,-2
1529299472833891,-1,-2,-2,-2,-2,-1,-1,-1
1529299472840813,0,-4,-1,1,0,-1,0,0
1529299472840813,0,-1,0,-2,-1,-1,0,2
1529299472841810,-1,0,0,-1,0,2,0,0
1529299472841810,0,0,-1,1,-1,-1,0,1
1529299472853916,0,0,0,-1,0,-1,0,-1
1529299472853916,-2,-2,-2,0,0,-1,-2,-2
1529299472863896,2,0,-1,-2,-3,0,1,1
1529299472863896,-1,-1,0,-2,-3,0,-1,1
1529299472876849,-3,-4,-3,0,-1,-1,-1,-2
1529299472876849,3,3,2,1,1,-1,1,2
1529299472885885,-2,-1,0,-3,-1,-3,-1,-2
1529299472885885,2,-1,0,0,1,1,2,-1
1529299472900892,-2,1,0,-2,-2,2,-3,1
1529299472900892,0,-1,0,-1,1,1,-2,-2
1529299472901889,-3,-1,-4,-1,-1,-3,-1,-1
1529299472901889,0,1,-1,0,0,-1,-2,1
1529299472914045,-1,-1,3,0,-1,0,-1,0
1529299472914045,0,-2,-2,0,-1,1,2,1
1529299472923024,-1,2,0,1,0,2,2,1
1529299472923024,0,-2,-1,-1,-1,0,0,-5
1529299472937126,-1,0,-1,0,1,-2,-1,1
1529299472937126,-3,0,-1,-1,0,-1,-4,-2
1529299472945993,0,-1,1,0,-1,0,-1,-1
1529299472945993,-1,-1,-2,-2,-1,-2,-1,-1
1529299472960485,0,1,0,0,-1,1,-1,0
1529299472960485,1,0,-1,0,-1,-2,-1,-1
1529299472967336,-1,-1,0,-2,1,0,0,0
1529299472967336,-1,0,-2,1,0,1,0,-1
1529299472974449,0,-2,0,-1,-5,-1,2,-1
1529299472974449,0,0,0,-1,-3,-1,-1,0
1529299472983262,-1,-1,-1,-1,1,0,-2,-1
1529299472983262,0,0,0,-3,-1,-1,1,0
1529299472997242,-1,-1,-1,0,0,-1,0,-1
1529299472997242,0,-1,-2,-2,-1,1,1,0
1529299473006316,1,-1,-1,-2,0,-1,-1,-2
1529299473006316,-1,-2,-1,0,2,1,-2,1
1529299473020321,-3,0,0,0,0,-1,-1,-1
1529299473020321,0,1,0,-1,-2,-1,-1,0
1529299473022158,0,-1,-1,0,0,-1,0,-1
1529299473022158,-2,-2,0,0,1,0,0,-1
1529299473034283,1,0,0,-3,-6,0,0,-3
1529299473034283,-2,-1,0,-1,0,0,1,-1
1529299473043104,-2,0,-1,-1,-3,0,-1,1
1529299473043104,-1,-1,1,2,0,-1,-1,1
1529299473057222,-1,0,-2,-1,-3,-1,1,0
1529299473057222,-1,-1,1,-2,3,0,-1,0
1529299473066200,-1,-1,0,1,-3,-1,-1,-2
1529299473066200,-1,0,0,0,0,0,-3,-1
1529299473081147,-1,1,-1,0,-2,0,-2,0
1529299473081147,-1,-1,-1,0,-4,-1,1,-2
1529299473082025,1,-1,-2,-1,1,-1,2,1
1529299473082025,-1,1,0,0,-3,-1,0,1
1529299473094124,-1,-2,-1,0,-1,-1,-1,2
1529299473094124,0,1,-1,-1,0,1,-1,-1
1529299473103939,-1,0,-1,0,-1,-2,-2,-1
1529299473103939,-1,-2,-2,2,-2,-2,-1,-1
1529299473117065,1,0,0,4,3,0,0,-1
1529299473117065,-2,-2,-1,-13,-3,-3,0,0
1529299473132168,-1,1,0,1,0,-2,0,0
1529299473132168,-1,0,-1,-2,0,-1,-1,-1
1529299473140306,-1,-3,0,3,1,-1,0,-2
1529299473140306,0,-3,-1,2,-2,-2,-1,-1
1529299473147327,1,2,0,-3,-1,0,-1,0
1529299473147327,0,-1,2,-1,-1,-1,0,0
1529299473154336,-2,0,-2,-2,-1,-2,-1,-1
1529299473154336,-2,-3,-2,1,-1,1,-1,0
1529299473163284,0,-2,-1,-1,1,1,0,0
1529299473163284,0,0,-1,1,-2,0,0,-1
1529299473176617,-1,-1,-1,-3,-4,-1,-2,-1
1529299473176617,-2,-1,-1,0,1,-1,-1,-1
1529299473185527,-1,-1,-1,1,-2,-1,0,0
1529299473185527,1,0,-3,-2,-1,0,0,1
1529299473199765,0,0,0,-2,0,1,1,-1
1529299473199765,0,0,-2,3,0,-2,-1,-1
1529299473206746,-2,0,1,1,-1,-1,-1,-2
1529299473206746,0,-1,0,-2,-5,-3,0,-1
