timestamp,emg1,emg2,emg3,emg4,emg5,emg6,emg7,emg8
1529303217823115,-2,0,-1,-1,0,0,-1,-2
1529303217823115,0,-2,-1,1,-1,-1,0,-1
1529303217824084,-1,1,0,0,0,-1,0,0
1529303217824084,-1,0,0,0,0,-1,-1,-1
1529303217824084,-1,0,0,0,0,0,0,1
1529303217824084,-1,-1,0,-2,-2,-1,0,-1
1529303217826080,0,0,0,0,-1,1,-1,0
1529303217826080,-1,-2,-1,-1,-2,-1,-1,0
1529303217836051,-1,-1,-2,-1,0,-2,-1,1
1529303217836051,0,0,-1,-1,0,0,-1,-1
1529303217845028,0,0,0,-1,1,0,0,0
1529303217845028,0,0,0,-1,0,0,1,1
1529303217851012,0,-2,0,1,-1,-1,-1,0
1529303217851012,-1,-1,-2,1,0,1,0,-1
1529303217866971,0,-2,-1,-1,0,0,0,0
1529303217866971,0,-1,-2,1,-2,-1,-2,0
1529303217876944,0,0,-1,-2,-2,-1,0,-3
1529303217876944,0,0,-1,1,-1,-1,-1,-1
1529303217880931,-1,0,-1,-1,-3,-2,-3,-2
1529303217880931,0,1,0,-2,0,0,0,-1
1529303217895893,0,-2,-3,-2,0,-1,-1,0
1529303217895893,0,0,-1,-1,0,-1,-1,0
1529303217904898,-1,-1,0,-1,0,1,1,0
1529303217904898,0,-1,0,0,1,-1,-3,-1
1529303217943767,0,0,-1,-2,-1,0,0,-1
1529303217943767,0,0,-1,-1,-1,0,0,-1
1529303217945759,-1,0,0,0,-1,-1,1,-2
1529303217945759,0,-1,0,-1,0,0,0,0
1529303217946756,-1,-1,-1,0,-1,-1,-2,0
1529303217946756,0,-1,-1,-1,1,-1,-3,2
1529303217948751,-2,-3,-2,-1,-2,-1,-2,0
1529303217948751,-1,-2,1,1,-1,-2,1,-1
1529303217955780,-2,-2,0,0,0,-1,0,-1
1529303217955780,-2,-2,1,0,-1,-3,0,-2
1529303217964708,0,0,0,-2,0,-1,1,0
1529303217964708,-1,0,1,-1,-3,-2,-2,-3
1529303217970692,-1,0,-1,0,0,0,-1,-1
1529303217970692,1,0,0,0,0,1,0,1
1529303217986650,-1,0,-1,0,1,0,-2,-1
1529303217986650,-1,0,0,-2,-1,-2,0,-1
1529303217993631,-1,0,-1,0,1,0,0,-3
1529303217993631,-2,-2,0,-2,0,-1,0,1
1529303218000613,-1,-1,0,-1,-1,-1,-2,1
1529303218000613,0,-1,-2,1,1,1,-1,0
1529303218015572,0,0,1,-2,-2,-1,0,-1
1529303218015572,0,-1,-3,0,-1,-1,-1,0
1529303218023551,-1,0,0,-1,0,0,-1,-1
1529303218023551,-3,-1,-1,-2,0,1,-1,-1
1529303218032528,-2,-4,-4,-1,0,-3,-1,0
1529303218032528,-1,-1,2,-1,-1,0,1,-1
1529303218046491,3,2,1,-1,1,0,-1,2
1529303218046491,0,-1,1,1,-1,-1,-1,0
1529303218053470,-2,5,-1,-2,-2,-1,-1,-2
1529303218053470,-1,-9,-8,1,0,0,-2,-3
1529303218062447,-2,-1,-2,-2,-1,4,0,1
1529303218062447,-4,-6,2,-2,-2,-1,-2,-4
1529303218075412,5,13,20,5,-1,1,1,0
1529303218075412,5,0,-7,-3,-2,-2,-1,0
1529303218084388,0,-6,-2,6,1,1,2,-2
1529303218084388,3,12,9,0,1,1,1,2
1529303218090373,-7,-14,-26,-18,-3,-3,-4,-2
1529303218090373,-5,-3,28,6,0,-1,-1,-3
1529303218106330,-1,-3,-13,-9,-2,-2,0,1
1529303218106330,1,11,12,9,0,0,0,1
1529303218113339,-7,-7,8,9,0,-3,-2,-1
1529303218113339,3,-11,-18,-5,2,-1,0,2
1529303218120321,-3,-15,3,-12,-17,-6,-5,-3
1529303218120321,7,12,9,23,0,-2,-1,-1
1529303218135305,3,8,-17,3,4,2,2,3
1529303218135305,1,8,6,2,-1,-1,-1,-1
1529303218143233,-4,-7,-4,-9,-1,1,1,0
1529303218143233,0,-7,8,-13,-6,-3,-3,-3
1529303218152207,5,16,21,11,2,1,1,1
1529303218152207,-6,-8,-6,10,-1,0,2,-1
1529303218166169,9,21,-9,-9,4,-2,-1,1
1529303218166169,-13,-42,-42,-14,-4,0,-2,-2
1529303218173188,-1,-8,15,2,0,-3,-3,-2
1529303218173188,5,11,-19,-1,2,1,2,1
1529303218181129,4,17,20,4,0,0,0,0
1529303218181129,2,7,4,5,4,2,2,2
1529303218196089,1,-7,-8,-3,-3,-1,-1,0
1529303218196089,-10,-6,0,-10,-5,-2,-4,-4
1529303218203124,-9,-23,-22,8,-1,-3,-3,-7
1529303218203124,5,19,14,-11,-3,-2,-1,-2
1529303218212046,6,15,4,3,2,3,2,4
1529303218212046,-2,-3,-8,-2,3,2,2,2
1529303218226013,9,0,-4,6,0,-3,-2,4
1529303218226013,-11,-29,-25,-14,-1,1,1,-2
1529303218232991,-9,-10,-13,-5,-4,-4,-3,-5
1529303218232991,8,23,36,8,-2,-2,-2,4
1529303218241002,0,1,-2,8,3,1,2,-2
1529303218241002,3,7,16,-6,-6,-3,1,1
1529303218255930,0,-17,-29,-6,1,2,2,1
1529303218255930,-5,0,-1,-10,-7,-5,-4,-4
1529303218262911,-3,22,33,7,2,2,0,0
1529303218262911,6,6,-8,12,7,1,-1,2
1529303218271889,-8,-24,-20,-19,-5,-1,-1,-5
1529303218271889,-1,-6,3,1,0,-2,-1,-3
1529303218286847,0,-13,-11,-5,3,3,0,1
1529303218286847,3,21,14,15,3,1,0,-1
1529303218292833,-1,6,24,9,1,1,-1,-1
1529303218292833,-1,2,-16,-8,-5,0,1,0
1529303218308790,5,0,0,-5,-2,-2,0,1
1529303218308790,0,-3,-1,-10,5,5,4,6
1529303218315770,-3,-6,-6,-1,0,-1,-7,-9
1529303218315770,-9,-7,-7,-6,-3,-1,-1,-4
1529303218322750,-1,-5,-2,-2,-1,-1,-1,-2
1529303218322750,5,-2,0,4,-2,-3,1,3
1529303218332738,1,25,24,8,0,1,1,0
1529303218332738,7,0,-6,1,-2,-5,-2,4
1529303218346688,-6,-6,-5,4,0,-6,-4,-5
1529303218346688,-5,2,-5,-5,-10,-7,-5,-4
1529303218354666,4,-3,-1,-13,-8,-3,1,5
1529303218354666,-1,8,19,14,20,13,3,-1
1529303218369662,3,-3,1,11,8,8,3,2
1529303218369662,-5,-7,-13,-17,-6,-7,-5,0
1529303218375611,-2,-12,-11,11,9,0,-1,-4
1529303218375611,-2,-3,-7,-6,-6,-2,1,1
1529303218383589,5,4,6,-1,5,3,2,2
1529303218383589,-2,-4,-7,1,3,2,2,0
1529303218392566,-9,1,-4,-11,-6,-6,-8,-4
1529303218392566,17,0,-3,2,-12,-7,0,1
1529303218406527,-10,12,0,-10,-4,-1,2,-5
1529303218406527,14,6,8,12,4,4,0,3
1529303218413508,-1,-8,6,6,5,0,3,5
1529303218413508,-5,-1,-5,-10,-7,-5,-1,-4
1529303218428496,-5,-5,-1,-4,3,8,5,0
1529303218428496,-5,7,-5,-9,0,-3,-12,-2
1529303218435452,0,-8,-3,1,2,9,5,-4
1529303218435452,-3,-2,-2,-4,7,5,-3,-2
1529303218443429,5,8,4,4,-2,-1,1,1
1529303218443429,-7,-11,-11,-3,9,4,4,2
1529303218452405,5,12,-3,-10,-18,-9,-11,-10
1529303218452405,-2,-3,2,-5,-2,-2,-2,-2
1529303218466367,3,1,3,7,5,0,-5,2
1529303218466367,-3,-8,4,6,1,0,4,-2
1529303218473349,1,2,-7,-3,-2,-1,4,4
1529303218473349,2,-2,0,3,7,0,4,1
1529303218489305,-2,3,7,-6,-8,-3,4,-1
1529303218489305,-6,-8,-9,-14,-11,-9,-11,-6
1529303218495293,6,5,12,21,18,2,0,5
1529303218495293,-3,-3,1,-1,-17,-5,-5,-2
1529303218503269,-4,-3,-5,6,11,-6,-2,-3
1529303218503269,-3,-3,-2,26,14,1,5,-2
1529303218512246,2,5,6,-22,-9,2,6,8
1529303218512246,1,2,-4,4,8,4,-1,0
1529303218526208,-6,-14,-9,-41,-17,-14,-8,-2
1529303218526208,-1,-6,-9,-11,-31,2,3,-3
1529303218533189,2,8,6,20,0,-6,-3,-3
1529303218533189,-5,5,10,39,-3,-6,-7,-7
1529303218549146,-1,-21,-31,-35,9,4,2,2
1529303218549146,1,8,25,29,13,4,6,1
1529303218556127,0,5,2,-23,2,3,2,4
1529303218556127,-12,-15,-18,1,3,7,0,-5
1529303218563109,9,18,6,0,10,1,-3,1
1529303218563109,-1,-19,-39,-1,-26,-5,-1,0
1529303218572084,-3,-1,1,-35,-19,-19,-17,-14
1529303218572084,12,0,0,1,13,8,11,17
1529303218586047,-1,5,25,47,11,0,-10,-7
1529303218586047,11,14,-9,-36,7,16,7,7
1529303218593028,-10,-8,-5,28,16,2,5,3
1529303218593028,-7,-2,-2,-19,11,16,0,-9
1529303218608986,12,-10,-2,-4,-11,-19,-11,-3
1529303218608986,-6,11,14,-3,-14,4,2,6
1529303218616019,15,15,16,13,-7,11,6,9
1529303218616019,-14,-11,-15,-3,7,0,-6,-11
1529303218622996,-8,-4,-9,-14,-24,0,5,1
1529303218622996,2,2,-1,-5,-2,-12,-1,-1
1529303218637961,-6,-12,1,12,13,3,2,-1
1529303218637961,0,2,-6,-8,-15,-9,0,0
1529303218645930,-1,9,21,28,10,8,3,2
1529303218645930,1,-4,4,20,33,11,0,-1
1529303218652868,0,-2,-14,-25,-10,1,7,5
1529303218652868,2,2,11,12,4,-9,-9,-6
1529303218668850,-3,1,6,10,-9,4,5,2
1529303218668850,-5,-2,0,-15,-6,-9,0,-5
1529303218675806,0,-4,-4,10,8,6,2,2
1529303218675806,10,13,14,1,-15,-9,1,8
1529303218682788,-8,-3,3,30,26,17,6,-3
1529303218682788,-3,-7,-10,-2,-8,-18,-8,-1
1529303218697801,0,-3,-14,-22,-23,-21,-11,-3
1529303218697801,2,-1,0,-2,1,-4,2,3
1529303218706777,3,6,-10,-28,-35,-18,-6,1
1529303218706777,5,1,8,4,0,0,1,-1
1529303218712709,-6,-2,6,13,13,5,1,-6
1529303218712709,3,4,4,-12,0,8,3,2
1529303218728721,-3,-9,-16,-12,-24,-25,-8,-3
1529303218728721,-3,1,7,-5,11,4,-5,-4
1529303218735674,-4,-8,-3,5,9,13,2,-1
1529303218735674,-1,-2,-2,13,1,1,-3,-4
1529303218743626,2,2,2,6,13,5,2,0
1529303218743626,2,4,4,-17,-11,1,-4,-1
1529303218758744,-3,-4,-4,3,8,7,2,-2
1529303218758744,-1,-1,-1,11,7,-1,0,3
1529303218766720,-2,0,1,-2,4,-2,-2,-2
1529303218766720,0,3,4,10,4,5,1,-2
1529303218773707,6,3,4,18,4,-4,-1,2
1529303218773707,2,0,0,-28,-2,2,5,5
1529303218789560,-4,-1,-1,9,14,3,-2,-6
1529303218789560,-1,-1,4,22,4,-1,0,-1
1529303218795685,0,-1,-6,-17,-9,-4,1,0
1529303218795685,5,5,6,17,9,-10,0,4
1529303218803793,-2,-1,1,8,-15,15,7,6
1529303218803793,2,2,1,4,8,-17,-14,-7
1529303218818784,-4,-9,-11,14,-5,-3,4,4
1529303218818784,0,-3,-6,-42,9,8,10,9
1529303218826605,-1,6,11,-3,-22,-1,-1,-6
1529303218826605,0,-7,-17,-25,-30,-5,1,1
1529303218833745,1,4,8,17,7,-2,-4,-3
1529303218833745,0,1,-6,-12,-31,-1,-1,-2
1529303218849578,-4,-6,-1,3,8,-4,-6,-7
1529303218849578,-5,-2,3,13,17,10,5,1
1529303218855683,-1,0,-7,-12,-20,-9,-7,-6
1529303218855683,4,2,11,-5,9,11,4,2
1529303218872489,-4,-8,-12,-9,-5,-7,-1,1
1529303218872489,-4,-4,-12,-10,0,0,-3,-6
1529303218877818,0,-3,7,18,1,2,0,3
1529303218877818,-2,5,1,2,-3,1,-3,-5
1529303218886792,3,-3,-10,-25,5,8,4,5
1529303218886792,3,3,17,30,12,-2,1,2
1529303218892808,0,-3,-10,-19,-1,2,2,-2
1529303218892808,0,3,-5,5,-15,-18,-10,-3
1529303218909733,-2,-5,-11,-2,-4,0,-2,0
1529303218909733,-1,-4,5,-7,2,-2,2,1
1529303218923788,3,6,9,21,-1,2,0,0
1529303218923788,0,2,-4,-3,8,0,-4,-4
1529303218932669,-2,-4,0,-2,-4,-13,-2,-1
1529303218932669,1,1,0,-8,5,10,6,1
1529303218946676,-4,-6,-16,-24,-15,-16,-5,-3
1529303218946676,-1,-1,14,14,13,16,5,2
1529303218953613,-15,-4,0,11,15,-1,-2,-5
1529303218953613,8,-5,-18,-24,-31,-27,-10,-5
1529303218954628,3,0,0,-14,2,5,3,4
1529303218954628,1,-3,2,14,9,7,3,-2
1529303218969581,5,7,3,0,-1,-6,0,2
1529303218969581,-9,-6,2,9,13,17,6,-2
1529303218975684,0,3,0,-10,-10,-11,-4,0
1529303218975684,-10,-8,-2,-4,-10,-5,-3,-8
1529303218990673,-1,-1,-4,0,8,4,1,0
1529303218990673,1,2,-2,-6,-7,0,2,4
1529303218998649,5,7,8,-5,4,-3,0,1
1529303218998649,-7,-9,-4,26,12,1,-3,-2
1529303219013788,1,0,-3,-24,-9,8,3,1
1529303219013788,0,0,0,6,6,2,0,0
1529303219014650,3,5,4,0,5,7,1,1
1529303219014650,-3,-5,-7,-7,-16,-21,-6,-4
1529303219029610,9,3,1,-3,-5,-5,1,3
1529303219029610,-1,1,-3,-6,-6,-7,-3,1
1529303219035597,-2,-2,4,10,9,1,0,-1
1529303219035597,0,-1,-10,-17,-8,-5,-2,-3
1529303219050553,-1,-1,4,25,16,3,0,0
1529303219050553,2,-3,-10,-2,2,3,2,3
1529303219058661,-4,2,13,-3,-7,1,1,0
1529303219058661,3,1,-2,-4,2,1,2,2
1529303219073501,-3,-3,1,31,21,-1,-3,-5
1529303219073501,-1,-4,-5,-12,-17,-2,-2,-2
1529303219074491,-3,-3,-2,4,7,2,-1,-5
1529303219074491,-1,0,-1,-8,9,-1,-1,6
1529303219089479,-1,1,-5,-9,-16,0,-6,-11
1529303219089479,-6,-10,-10,21,25,-2,-2,0
1529303219095434,-1,5,6,-4,21,11,0,-1
1529303219095434,2,0,-3,-20,-11,8,-1,-1
1529303219112392,0,-6,-13,-5,-11,-4,1,1
1529303219112392,-13,-9,-2,-5,8,6,5,2
1529303219118509,5,-7,-16,10,-15,-8,-9,-4
1529303219118509,8,27,56,9,6,2,6,5
1529303219133692,6,3,2,-3,-4,-1,-2,5
1529303219133692,0,1,0,-23,-10,-1,0,-3
1529303219134524,-7,-8,-3,15,17,5,0,-1
1529303219134524,-1,-8,-17,-3,-5,3,0,-3
1529303219156831,-2,0,3,-8,-16,3,1,0
1529303219156831,-1,2,-2,-4,-9,-1,-4,-4
1529303219157773,-2,2,11,5,15,2,1,0
1529303219157773,-2,-2,-14,-21,-30,1,1,0
1529303219172627,1,4,15,2,10,-2,-2,-1
1529303219172627,3,-4,-14,9,12,1,-3,-2
1529303219178625,0,-2,5,-1,-4,4,3,2
1529303219178625,-6,-7,-16,-3,-31,-43,-13,-4
1529303219193571,2,-2,-7,-2,5,-3,2,4
1529303219193571,2,5,14,3,12,15,2,-1
1529303219194568,5,5,-4,7,0,0,3,4
1529303219194568,-4,1,7,8,26,15,3,-2
1529303219209527,0,-4,-9,-9,-11,-17,-5,-2
1529303219209527,-8,0,18,18,21,18,1,-3
1529303219215515,2,0,-6,-14,-13,-2,-2,0
1529303219215515,-8,-13,-8,18,34,20,2,-6
1529303219232467,-2,3,-8,-22,-13,-12,-3,4
1529303219232467,3,-2,2,3,1,4,-7,-10
1529303219238608,1,-1,-3,-3,-11,-3,-2,-3
1529303219238608,0,-1,-2,-1,3,-5,0,1
1529303219254448,-3,-3,2,8,-1,-2,-2,-4
1529303219254448,0,5,6,-1,-7,-16,-1,1
1529303219254448,-6,-3,-6,-4,0,3,0,-1
1529303219254448,6,2,0,4,-5,-9,-3,0
1529303219270365,-4,-7,-2,-7,5,15,6,-3
1529303219270365,4,3,-1,-8,-11,-10,-2,3
1529303219275352,2,2,3,16,12,-5,-2,2
1529303219275352,-2,0,2,-10,-4,6,8,3
1529303219292307,-1,-2,0,1,-2,2,-1,1
1529303219292307,1,2,2,-7,-5,-9,-4,-3
1529303219298447,-2,-1,-1,2,-6,-5,-2,-1
1529303219298447,-1,-3,-4,-3,-5,-5,-4,-1
1529303219314451,2,2,-1,-4,2,3,0,1
1529303219314451,0,1,-2,4,-9,-5,-1,0
1529303219314451,-2,-3,-1,-8,-3,5,3,-1
1529303219314451,1,-2,-6,5,0,-1,-4,-3
1529303219329508,-1,-1,-4,-3,3,4,0,-1
1529303219329508,2,5,8,3,-4,1,1,0
1529303219335648,-2,-1,-8,-11,-1,-1,-1,-1
1529303219335648,0,-3,-1,6,-3,-2,-1,0
1529303219352542,4,1,1,4,1,5,2,1
1529303219352542,-2,-2,-5,-1,-2,0,0,-1
1529303219358525,-4,-1,4,-7,-5,-3,-2,-3
1529303219358525,2,0,-13,-6,-7,-5,-3,-4
1529303219374484,1,9,21,20,9,6,2,5
1529303219374484,0,-1,0,-2,1,5,2,2
1529303219374484,-3,-5,-7,-8,-4,3,1,-1
1529303219374484,0,0,3,7,6,11,-1,0
1529303219389455,0,-1,-6,-2,2,2,1,-1
1529303219389455,0,3,11,3,-3,-2,0,2
1529303219395584,-3,-2,-4,-1,-4,-3,-1,-1
1529303219395584,1,2,-1,-3,-1,-5,-2,0
1529303219412382,-2,-2,-6,0,0,-5,-1,-2
1529303219412382,-1,-1,6,-2,-3,-7,-1,0
1529303219418524,1,5,13,2,-2,-7,-1,0
1529303219418524,-1,-5,-1,-1,-2,-4,-2,-2
1529303219434431,0,0,0,-3,0,-3,-1,0
1529303219434431,-3,-4,-9,-1,-2,-1,1,1
1529303219434431,1,-2,-4,-2,-1,-3,-1,-2
1529303219434431,2,0,0,3,0,2,1,1
1529303219449445,-1,-1,3,1,3,3,3,0
1529303219449445,-2,-3,-8,-4,0,1,-1,0
1529303219456275,1,2,0,0,-7,-16,-5,-2
1529303219456275,2,1,2,0,-3,-5,-2,3
1529303219472423,-4,-6,-7,-2,-1,-6,-3,-2
1529303219472423,1,6,9,-1,-1,3,-2,-2
1529303219478621,0,-2,-6,-6,1,6,3,0
1529303219478621,1,-4,-2,-1,1,2,1,1
1529303219493581,-1,7,5,4,2,3,-1,-2
1529303219493581,0,0,-4,-2,1,-3,0,0
1529303219494578,-1,1,-1,-3,-1,2,-2,-2
1529303219494578,-1,-1,1,0,-3,-3,1,0
1529303219509537,-1,-3,-2,0,-3,-1,-2,0
1529303219509537,-7,-6,-6,-1,-3,-5,-2,-5
1529303219515681,5,5,2,1,1,0,0,-4
1529303219515681,2,0,1,2,2,1,2,2
1529303219532477,-3,-1,0,-6,-1,-3,-1,-2
1529303219532477,-1,-1,-6,-3,-4,-3,-2,-2
1529303219538617,-10,-5,-3,0,0,3,1,-2
1529303219538617,2,0,-2,-1,-2,-3,-3,-1
1529303219553784,3,-1,0,-2,-1,-1,-1,0
1529303219553784,-8,-2,-5,-3,-2,-3,0,-4
1529303219560600,-2,-2,-8,0,-1,1,0,2
1529303219560600,6,3,18,7,0,0,1,1
1529303219569576,1,-4,-8,-2,-2,-1,1,-1
1529303219569576,3,-6,-10,-1,1,0,-1,2
1529303219575560,-2,6,15,3,-1,0,1,1
1529303219575560,-3,1,-11,-5,-1,0,-2,0
1529303219592514,-1,-1,0,-7,1,2,-2,-3
1529303219592514,-3,-4,-6,-1,-2,-1,-4,-3
1529303219598640,4,-3,-8,-4,-1,0,-3,1
1529303219598640,-7,-3,4,3,0,-1,-2,-4
1529303219613614,0,-2,-2,0,0,0,1,1
1529303219613614,5,3,0,1,1,2,-1,2
1529303219620598,-1,5,9,1,3,3,1,1
1529303219620598,-1,-1,-7,-3,-6,-8,-3,-1
1529303219630217,-2,2,9,4,0,0,0,-1
1529303219630217,1,-3,-4,-5,-2,-3,3,2
1529303219636307,0,-3,-3,0,0,3,0,0
1529303219636307,-4,-3,-6,-2,1,2,0,-2
1529303219652489,1,1,0,2,-1,-1,-1,1
1529303219652489,-1,2,8,3,0,-1,0,0
1529303219659470,-1,-4,-6,-5,-3,-1,0,0
1529303219659470,-1,1,1,-1,-2,-1,0,-2
1529303219681378,-1,-1,-3,0,2,-2,0,-2
1529303219681378,2,1,11,3,-1,-1,-1,0
1529303219682321,-1,-1,3,-1,0,-3,-1,-1
1529303219682321,-1,-1,-4,-2,0,-1,-1,-1
1529303219690396,1,4,6,2,-1,1,-1,0
1529303219690396,-1,-2,-10,-5,0,-1,1,0
1529303219696354,2,0,-1,-1,-1,-1,-1,0
1529303219696354,-4,-3,-4,0,1,1,-1,-1
1529303219710319,-1,0,2,0,0,-1,-1,1
1529303219710319,-1,0,-1,-1,-1,0,0,-1
1529303219718327,-2,-3,-3,-1,1,-2,-2,0
1529303219718327,-2,-1,-1,-2,1,1,-1,-2
1529303219733414,1,0,-3,-2,-2,-1,0,-1
1529303219733414,3,1,3,3,-1,0,0,-1
1529303219741319,1,-2,-6,-4,-2,0,0,-2
1529303219741319,-1,-1,4,-1,0,-1,-1,-1
1529303219756209,0,-1,-4,-3,-1,-1,-1,-1
1529303219756209,1,3,3,3,-1,0,0,0
1529303219757196,1,-1,-4,-1,2,0,1,-2
1529303219757196,-2,-1,-1,-1,-2,0,-2,-3
1529303219771157,-2,-2,1,-1,-1,-1,-1,-1
1529303219771157,0,1,0,-2,2,-2,0,0
1529303219778184,-2,-1,0,2,-1,-1,0,0
1529303219778184,0,1,0,-1,-1,-1,0,-2
1529303219793144,0,0,0,0,-1,-1,0,0
1529303219793144,0,1,1,0,-2,-2,-1,0
1529303219801124,0,-1,-1,-1,-1,-1,-1,-1
1529303219801124,1,0,1,-1,0,0,-1,0
1529303219816093,-2,-2,-1,-1,0,0,-1,0
1529303219816093,0,-2,-2,0,-1,0,0,-1
1529303219817034,0,0,-2,-1,-2,0,-2,-1
1529303219817034,-1,0,-2,1,0,0,0,-1
1529303219830997,1,-3,-2,-1,0,-2,0,-2
1529303219830997,0,0,1,-3,-2,0,-1,1
1529303219838005,-2,0,0,1,-1,-2,-1,0
1529303219838005,1,-1,-1,-1,-2,-2,-1,-2
1529303219852955,-1,-1,-1,0,0,-2,0,-1
1529303219852955,0,1,0,1,-1,0,0,0
1529303219860918,0,-1,-1,-2,-1,1,0,-1
1529303219860918,-1,-1,0,-1,0,0,0,1
1529303219875938,-1,0,0,-1,-2,1,-1,0
1529303219875938,-3,-2,0,0,1,-2,-1,-1
1529303219876875,-1,-1,0,0,0,1,-2,1
1529303219876875,-1,0,-1,-1,-1,-1,0,0
1529303219890837,-1,-1,-1,0,-1,-1,-1,0
1529303219890837,0,0,-1,-1,-1,-1,-1,0
1529303219897871,-1,-1,-2,0,0,1,1,0
1529303219897871,0,0,-2,-1,1,1,0,1
1529303219912830,-3,0,0,-1,-1,-1,-1,-1
1529303219912830,1,2,-1,-1,-1,0,-1,0
1529303219920809,0,-1,0,-1,-3,-3,-1,-1
1529303219920809,-1,0,-3,-1,-1,-2,0,-1
1529303219936766,-1,0,-2,0,-2,-1,0,0
1529303219936766,-1,-2,0,0,-2,0,-2,0
1529303219936766,-1,-3,-2,1,-3,-1,-1,-1
1529303219936766,-2,-2,0,-2,-2,-2,0,-1
1529303219950730,1,-1,0,0,0,-1,-3,-2
1529303219950730,-1,0,0,-2,-1,-1,-2,-2
1529303219958682,0,-1,-1,0,-1,1,-1,-1
1529303219958682,-1,-2,0,-2,-2,-1,0,-1
1529303219973669,-1,0,0,-1,0,0,-1,-1
1529303219973669,-1,-1,0,-2,2,1,1,2
1529303219980654,-1,0,-1,-1,2,0,-1,-1
1529303219980654,-1,0,0,0,-2,-1,-1,0
1529303219996608,-1,-1,-1,-1,-1,0,-1,0
1529303219996608,0,-2,0,-1,0,0,1,0
1529303219997606,-2,-2,-2,0,0,-1,0,1
1529303219997606,0,0,-2,0,0,0,1,1
1529303220010517,-1,-2,-1,-1,-1,-2,0,-2
1529303220010517,-2,-1,0,-1,0,0,-1,-1
1529303220026502,0,1,-1,-1,0,-2,-1,-2
1529303220026502,1,-1,-2,0,0,1,-2,0
1529303220033509,-1,-1,-2,0,-2,-1,-1,0
1529303220033509,0,-2,-1,-1,-1,-1,-2,0
1529303220040489,-1,-1,-1,-2,0,-2,0,0
1529303220040489,0,0,1,0,-1,-2,-1,-2
1529303220056449,0,-1,0,-2,1,0,0,2
1529303220056449,0,1,0,0,1,-1,-1,0
1529303220057392,0,-2,-1,-2,0,1,0,0
1529303220057392,1,-2,1,0,-1,-1,-1,0
1529303220070412,0,0,0,-2,-1,-1,-1,0
1529303220070412,-1,-1,-1,0,0,-3,-2,-2
1529303220078389,-1,-1,1,0,-1,-1,-1,0
1529303220078389,-1,-1,-1,-1,0,0,-1,-2
1529303220093297,-2,-2,-2,0,0,0,-1,-1
1529303220093297,0,1,-2,0,0,0,0,0
1529303220100351,2,0,-1,-1,-1,0,-1,0
1529303220100351,-1,-2,-1,-1,-1,-1,-1,0
1529303220116568,1,1,1,-1,-1,-2,1,-1
1529303220116568,0,0,-1,0,0,-1,0,-1
1529303220117423,0,1,-1,0,-2,-1,0,-1
1529303220117423,-2,1,0,-2,0,-1,-1,-1
1529303220130547,0,0,1,-2,0,0,-2,0
1529303220130547,-2,-2,0,1,-2,-1,1,0
1529303220138369,0,0,0,-2,-1,-1,0,-1
1529303220138369,-1,-3,-2,0,-2,-2,0,-2
1529303220153716,2,0,-1,0,0,-1,0,0
1529303220153716,0,-3,0,0,-1,-1,-2,-1
1529303220160534,-2,-1,-1,-1,-1,0,0,-1
1529303220160534,-1,1,0,-1,-1,0,1,0
1529303220176519,1,-1,-2,-2,-1,0,-1,0
1529303220176519,0,0,0,-1,1,1,0,1
1529303220177488,0,0,0,-1,-1,-1,-1,0
1529303220177488,-2,-1,-1,-1,0,-2,-1,-1
1529303220190609,-1,-1,-1,0,-2,1,0,-1
1529303220190609,-1,1,0,0,-1,-1,-1,0
1529303220198432,0,-3,-1,-1,-2,-3,-1,0
1529303220198432,-1,-2,-1,0,-2,-1,0,-1
1529303220213549,0,-2,-1,-1,-1,0,0,-1
1529303220213549,0,1,-1,-2,-2,0,0,-2
1529303220229496,-2,0,-1,0,0,0,-1,0
1529303220229496,0,-1,0,-1,0,-1,-1,0
1529303220236488,0,-1,1,-1,0,-1,0,0
1529303220236488,-1,-2,-2,-1,0,-1,0,-1
1529303220237328,-1,-2,0,0,0,-2,-2,0
1529303220237328,-1,-1,-2,-1,-1,-2,-1,0
1529303220252288,-2,-1,-2,1,0,-1,-1,-1
1529303220252288,-1,0,-3,-1,-1,0,0,0
1529303220258428,0,0,0,0,-1,0,2,-2
1529303220258428,1,0,-1,-1,0,-1,0,0
1529303220273774,-1,-2,-1,0,1,0,1,0
1529303220273774,0,0,-2,0,-1,-2,0,0
1529303220280754,-1,0,0,-1,-1,-1,-1,0
1529303220280754,1,1,0,-2,0,0,-2,-2
1529303220296517,-1,0,0,-1,-2,0,-3,0
1529303220296517,2,0,-1,-1,0,0,-1,0
1529303220297515,0,-3,-3,-1,-1,-1,-1,-1
1529303220297515,0,0,0,0,-1,0,-1,2
1529303220318458,-2,0,0,2,-1,-1,-2,-2
1529303220318458,-2,-2,-1,0,-1,0,-1,-2
1529303220319470,0,1,1,-2,-1,0,-1,-3
1529303220319470,-1,-1,-2,-1,1,-2,0,0
1529303220333562,-1,-1,-3,-1,-1,-2,0,0
1529303220333562,-2,0,-1,-1,0,1,-1,-1
1529303220340537,-2,0,-1,-1,0,-1,0,-1
1529303220340537,-1,-2,-1,1,0,0,1,0
1529303220356405,-1,1,0,-1,-1,-1,-1,-1
1529303220356405,-1,-2,1,-1,-1,-2,-1,0
1529303220357354,2,0,-1,0,-3,0,-1,0
1529303220357354,0,-1,0,0,-1,-1,0,0
1529303220371322,0,-1,-2,0,0,1,0,-1
1529303220371322,0,0,-1,0,0,-1,-1,-1
