timestamp,emg1,emg2,emg3,emg4,emg5,emg6,emg7,emg8
1528447850636391,0,-2,-2,-2,1,1,1,0
1528447850636391,-1,-1,-1,2,1,0,1,-2
1528447850644368,-2,-1,-1,0,-1,-2,-2,-3
1528447850644368,-1,1,-1,3,0,0,-1,-2
1528447850651349,0,3,3,0,-1,0,-1,-2
1528447850651349,-1,-2,-4,-4,-2,0,-2,-3
1528447850667308,0,-2,-2,-1,1,-2,0,1
1528447850667308,-1,-2,-3,-2,-2,0,0,-2
1528447850674288,0,-1,0,1,2,0,0,0
1528447850674288,-1,0,0,-1,-2,-1,-1,-1
1528447850689249,-1,0,-1,1,2,3,1,-3
1528447850689249,-2,-5,-4,0,3,0,-2,-2
1528447850696229,-3,-2,1,-2,-8,-7,-2,-4
1528447850696229,2,3,2,1,2,0,1,2
1528447850714181,0,-1,-1,-2,1,1,0,1
1528447850714181,-1,-2,0,-1,-1,-1,1,1
1528447850727147,-2,-1,-1,-1,-2,-3,-4,-3
1528447850727147,0,0,0,-1,-1,1,0,-2
1528447850734128,0,-1,-2,0,1,2,0,-2
1528447850734128,0,0,-1,-1,-1,-2,-1,-2
1528447850749088,-1,0,-3,-1,0,1,-1,1
1528447850749088,-1,-3,-1,-2,-1,-3,-2,-1
1528447850757067,0,0,-1,0,0,0,-2,-1
1528447850757067,0,-1,1,1,0,0,0,0
1528447850772027,-1,-3,-2,-2,-1,-3,0,-2
1528447850772027,-1,-1,-1,-1,1,-2,-3,-1
1528447850786987,-1,-1,-1,-4,-1,-2,0,0
1528447850786987,0,0,1,1,-1,0,-2,-1
1528447850793967,0,-2,-2,-1,0,-1,0,-1
1528447850793967,0,-1,-3,-1,-2,1,0,2
1528447850808928,0,0,2,-1,-1,0,0,-1
1528447850808928,1,0,-1,0,-1,-1,1,2
1528447850819898,0,-1,1,1,0,0,-1,-1
1528447850819898,0,-1,-1,0,0,0,0,0
1528447850838848,0,0,-1,0,0,-1,0,0
1528447850838848,0,-2,-1,1,2,0,0,-1
1528447850853842,0,2,3,0,2,0,0,2
1528447850853842,-1,-2,-1,-2,-1,-3,-2,-3
1528447850861813,0,0,-2,-1,0,-1,-2,0
1528447850861813,-1,0,0,-1,-2,-1,-2,-2
1528447850877802,0,-1,1,1,-1,0,1,0
1528447850877802,-1,1,-2,0,-3,0,-1,-1
1528447850891707,0,-1,-1,-1,-1,0,-1,0
1528447850891707,-1,-1,-1,-1,-2,-2,-1,-1
1528447850906668,-1,-2,-1,-1,-1,0,0,0
1528447850906668,-1,0,-1,1,-1,1,-2,0
1528447850914646,0,-1,-1,-2,0,1,-1,-1
1528447850914646,0,-2,-1,0,0,1,0,-4
1528447850930603,2,0,0,-1,-1,-1,-1,1
1528447850930603,-1,-1,-2,0,-2,1,-1,-1
1528447850944566,0,-2,-1,0,-2,0,0,-2
1528447850944566,-2,0,0,-2,-1,-1,-1,-1
1528447850959563,0,0,0,0,1,-2,-1,0
1528447850959563,-1,0,0,0,1,0,0,-1
1528447850966509,0,0,-1,-3,0,-2,0,0
1528447850966509,-1,0,-2,-4,-2,-1,-1,-1
1528447850974514,-2,1,0,0,-1,-2,0,0
1528447850974514,0,-2,-3,-1,1,-1,0,0
1528447850996441,-2,-1,-2,-2,0,-1,0,-1
1528447850996441,0,-1,1,-1,-2,0,0,0
1528447851004442,-2,-1,1,-1,-1,0,-3,-1
1528447851004442,1,-1,0,1,0,0,-1,0
1528447851026349,-3,-1,0,2,-2,1,-1,-1
1528447851026349,-1,1,-1,-1,0,-1,-2,0
1528447851034326,-2,0,-2,0,-2,-1,1,-1
1528447851034326,-1,0,0,-1,-1,0,-1,0
1528447851049327,1,-1,0,0,1,0,-2,0
1528447851049327,0,0,0,1,0,-1,0,-1
1528447851056308,1,0,1,-1,-1,-1,1,0
1528447851056308,-1,-2,-3,-1,1,1,-1,0
1528447851071227,-1,-1,0,-1,-2,-1,-2,-2
1528447851071227,1,-3,1,-1,-1,-1,-2,-1
1528447851079206,-1,-1,-2,-1,0,-1,1,0
1528447851079206,-1,-2,-1,1,1,-1,1,-1
1528447851094165,0,-1,-2,0,-1,0,1,-1
1528447851094165,-2,-1,1,0,0,0,0,-1
1528447851117157,-1,-2,-2,0,-2,-1,-1,-1
1528447851117157,-1,-1,1,0,0,-1,-1,-1
1528447851124124,0,-1,1,-1,-2,0,-1,-1
1528447851124124,-1,-3,1,-2,0,-1,0,0
1528447851139088,0,0,-2,-1,1,0,-2,0
1528447851139088,-1,0,-2,1,-1,-2,0,0
1528447851147025,0,-1,0,-1,1,0,-2,0
1528447851147025,-1,0,0,0,0,-1,0,-1
1528447851161985,-2,1,0,0,0,-2,-1,0
1528447851161985,1,-2,0,-1,-1,-1,1,0
1528447851176953,1,0,-1,0,0,1,0,-1
1528447851176953,-1,-1,-2,-2,-3,-1,-1,-2
1528447851191904,0,1,-1,-1,-1,1,0,-1
1528447851191904,0,-2,1,-1,-2,0,-2,-1
1528447851198912,0,-2,-1,-1,0,-2,-1,-1
1528447851198912,0,0,-1,-1,-1,-2,0,0
1528447851213848,0,0,-2,0,0,-1,0,-1
1528447851213848,-2,1,-1,1,-1,0,-1,0
1528447851228858,0,-2,-1,-1,-2,0,1,0
1528447851228858,0,1,0,-1,-1,-1,0,0
1528447851236784,-2,1,0,0,0,0,0,-1
1528447851236784,0,0,1,-1,0,0,0,-1
1528447851251745,-1,-2,0,1,1,-2,-1,-1
1528447851251745,-1,0,-2,0,1,0,0,-1
1528447851258727,-1,-2,-1,-1,0,0,-1,-1
1528447851258727,0,0,0,-1,0,0,-2,-2
1528447851289660,-2,-2,0,-2,-1,-1,-2,1
1528447851289660,0,-2,1,-1,1,0,0,0
1528447851296629,0,0,-3,-3,-1,0,0,-1
1528447851296629,-1,-2,-1,0,-2,-1,-1,0
1528447851319563,0,0,-2,0,0,1,-3,0
1528447851319563,-1,-1,0,-1,-1,-2,-1,0
1528447851326546,-1,-1,0,2,1,0,0,0
1528447851326546,1,-1,-1,-1,-1,-2,-1,-1
1528447851341505,0,-2,0,-2,-2,0,-1,0
1528447851341505,1,-1,-1,-1,0,-1,-2,-1
1528447851364444,-1,1,-2,-1,0,0,-1,0
1528447851364444,0,-1,-1,0,-2,-1,0,-1
1528447851379404,-1,1,-1,1,0,-1,0,1
1528447851379404,-1,1,-1,-1,-2,1,0,0
1528447851394364,0,-2,-1,-2,-2,1,0,-2
1528447851394364,-1,-1,-1,0,0,0,0,-1
1528447851401371,-1,-1,0,1,0,0,0,-1
1528447851401371,0,-1,-2,-1,2,1,-3,0
1528447851416344,0,0,-3,-2,0,0,-1,-1
1528447851416344,-1,-1,-1,0,-1,0,0,0
1528447851424322,-2,-1,0,-2,-1,-2,-1,0
1528447851424322,-1,-1,0,-2,0,1,-1,-1
1528447851431269,0,1,-1,-1,-2,-1,-1,0
1528447851431269,0,0,0,0,0,0,1,-2
1528447851439243,-1,0,-1,0,1,-3,-1,-1
1528447851439243,0,0,-2,1,0,-1,-1,-2
1528447851454204,-1,-1,0,0,-1,-2,-2,0
1528447851454204,-1,-1,-1,-1,1,-2,-1,-1
1528447851461185,0,-1,0,-3,-2,1,1,-1
1528447851461185,1,-1,-1,-3,0,-1,0,-1
1528447851469164,-1,0,0,0,1,-1,-1,1
1528447851469164,-2,0,-1,-2,-2,0,0,1
1528447851476171,-1,0,-1,1,0,0,0,0
1528447851476171,-2,0,0,0,-1,-1,1,1
1528447851492104,-1,-1,-1,-1,-1,3,1,0
1528447851492104,0,-2,-1,-3,0,-1,-1,-1
1528447851499088,2,-1,-1,0,0,0,0,-1
1528447851499088,-1,1,0,0,0,-3,-2,0
1528447851514045,0,0,-2,-1,1,0,-3,-1
1528447851514045,0,1,0,0,0,-1,0,0
1528447851522023,-1,-2,0,-1,-1,0,-1,-1
1528447851522023,0,0,0,0,-2,-1,0,0
1528447851529004,0,-1,0,0,0,0,2,0
1528447851529004,-1,-1,-2,-1,-2,-2,-2,0
1528447851536983,0,-1,-2,0,-1,0,-2,1
1528447851536983,-2,0,0,0,-2,1,1,-1
1528447851551943,-1,-1,-1,-3,-3,-1,1,0
1528447851551943,-1,0,-1,2,1,-1,-1,-1
1528447851558924,-1,0,0,-1,-1,-1,0,-2
1528447851558924,-1,-1,-2,1,2,0,-3,-2
1528447851573884,-1,0,2,0,-1,-2,-2,-1
1528447851573884,-1,-1,0,-1,-2,0,-1,0
1528447851588844,0,-1,-3,-1,1,-1,0,-1
1528447851588844,-1,-1,-2,-2,-1,0,0,-1
1528447851596823,-1,-1,-2,-1,0,0,1,-1
1528447851596823,0,1,1,2,0,-3,-2,0
1528447851611782,-2,0,0,0,1,0,-1,-1
1528447851611782,0,-2,0,-2,0,-1,-2,-1
1528447851633724,-1,-1,-1,1,2,-2,-1,-1
1528447851633724,-1,-3,1,-2,0,0,-1,-2
1528447851641936,-1,-1,-2,-1,0,0,1,-1
1528447851641936,0,-2,0,-1,0,0,0,1
1528447851679878,-1,1,1,1,1,-2,-1,0
1528447851679878,-3,1,-1,-2,-2,0,-2,0
1528447851686963,1,1,1,2,1,-1,0,-1
1528447851686963,-2,-2,-1,-2,0,-2,0,-2
1528447851694836,-1,-2,0,-1,-2,0,0,-1
1528447851694836,-1,1,0,-1,0,0,-1,1
1528447851701603,1,1,-1,1,-1,1,-2,-1
1528447851701603,1,-1,-1,0,-1,1,-1,-1
1528447851717003,0,1,0,0,-1,-3,-2,-2
1528447851717003,-2,-1,-3,0,-1,0,0,-1
1528447851724883,-1,-2,0,-2,0,2,0,-1
1528447851724883,0,-1,-1,0,0,-1,-2,0
1528447851731408,-1,0,-3,-2,0,0,1,-1
1528447851731408,-2,-1,-3,0,0,0,-1,0
1528447851739653,0,1,0,-1,0,1,-1,0
1528447851739653,0,-1,0,-2,-1,-1,0,-2
1528447851754345,-2,-1,1,-2,-1,-2,-1,0
1528447851754345,0,-1,-1,-1,-1,-1,0,-2
1528447851762381,0,2,0,1,0,-2,0,0
1528447851762381,-1,0,-1,-1,-3,-1,0,-1
1528447851769567,0,-1,0,0,-1,0,1,1
1528447851769567,-1,0,0,-1,0,-2,-2,-2
1528447851776843,-1,-1,-1,1,1,0,0,0
1528447851776843,1,0,0,-2,-1,-2,-1,-2
1528447851791868,0,-1,-1,-2,-2,0,0,-1
1528447851791868,-1,-1,0,-2,1,0,0,0
1528447851798823,-1,-1,-2,-3,-2,-2,1,-1
1528447851798823,0,-1,-1,1,0,-1,-1,-2
1528447851813988,-3,-3,0,1,-1,-1,0,-2
1528447851813988,0,0,-1,0,0,0,0,2
1528447851822389,1,-2,0,-1,-1,0,1,0
1528447851822389,-1,-1,-1,1,0,1,0,-1
1528447851829413,-1,0,0,1,-1,-1,-1,-1
1528447851829413,0,0,-1,-1,-2,0,0,0
1528447851837390,-1,-1,-1,-1,-2,-1,-1,-1
1528447851837390,0,-1,-2,-3,0,-2,0,-1
1528447851852455,1,-1,-2,0,1,-1,-2,0
1528447851852455,-1,0,-1,-1,-1,-1,1,0
1528447851860063,-1,-1,0,-2,-1,0,-1,0
1528447851860063,1,-1,0,-1,0,-1,0,0
1528447851881784,-1,-1,-2,-2,-1,0,-1,1
1528447851881784,1,-1,-1,0,-1,-2,-2,-1
1528447851889925,1,-1,-1,-1,-1,-1,0,-2
1528447851889925,-1,-2,0,-1,0,-1,0,-1
1528447851904930,0,1,-1,1,-1,-2,-1,-2
1528447851904930,-1,-1,0,1,-1,0,1,0
1528447851911969,0,-1,0,0,-1,0,0,-2
1528447851911969,2,0,-1,0,-1,1,-1,1
1528447851927244,-2,-1,-1,0,-1,-3,1,-1
1528447851927244,-1,0,-2,-2,-1,0,-1,0
1528447851934969,-1,-1,-1,1,-1,0,0,0
1528447851934969,1,0,1,1,-2,-1,0,1
1528447851942196,-1,-1,-1,-1,0,1,-1,-1
1528447851942196,1,-1,-1,0,-2,0,-1,-1
1528447851948946,1,-1,-3,-2,0,0,0,0
1528447851948946,-2,0,-1,0,-2,1,0,-2
1528447851956894,-1,0,0,-2,-3,1,-1,-2
1528447851956894,-1,-1,-1,-1,0,-1,0,-1
1528447851963875,-1,0,-2,0,0,-1,-2,0
1528447851963875,-2,-1,0,-1,-3,-1,-2,0
1528447851971888,0,0,1,-1,-2,-1,-1,-1
1528447851971888,-1,1,-2,-2,0,0,-1,-2
1528447851979914,-1,-1,0,1,1,2,-2,-1
1528447851979914,0,2,-1,0,0,0,-1,-1
1528447852002071,0,-1,-2,0,1,-1,0,-1
1528447852002071,0,-1,-1,0,0,-1,-2,-1
1528447852009509,0,-2,0,-1,-1,0,1,0
1528447852009509,-1,-1,0,-1,0,-1,-1,-1
1528447852025052,0,-2,0,-1,1,0,-2,-1
1528447852025052,-1,0,-1,-1,-1,-1,0,-1
1528447852031360,-1,-1,0,-3,-1,-2,-1,0
1528447852031360,0,-1,0,0,0,-2,0,-2
1528447852047457,0,0,-3,0,-2,-2,0,1
1528447852047457,0,-2,-2,0,-1,-1,-2,-1
1528447852061670,-1,1,1,1,1,-1,-1,1
1528447852061670,-1,0,0,0,0,1,-1,0
1528447852069973,1,0,0,-2,-1,0,-1,-1
1528447852069973,1,0,0,-1,-1,1,0,-1
1528447852077445,0,0,-2,-1,-1,-1,-1,-2
1528447852077445,-1,-1,-1,-1,0,-1,0,-2
1528447852092411,0,-1,-1,0,0,-1,-1,-1
1528447852092411,0,-1,0,1,-1,-1,-1,-1
1528447852099052,0,0,0,-1,-1,-1,-1,1
1528447852099052,0,-2,0,1,0,-1,0,1
1528447852121989,0,0,-1,0,0,-1,-1,-1
1528447852121989,-1,0,0,1,-1,0,0,-1
1528447852130009,-1,-1,-2,-1,1,-2,-1,0
1528447852130009,-1,0,-1,0,0,-1,0,-1
1528447852144993,-1,-2,0,0,-1,-1,-1,-1
1528447852144993,-1,-1,-2,-1,-1,0,-2,0
1528447852152229,-1,0,0,-1,0,0,-2,-1
1528447852152229,0,-2,-1,0,0,0,-2,-1
1528447852167392,-1,0,-1,-2,-1,0,2,1
1528447852167392,-1,-1,-2,-1,-2,-1,-1,-2
1528447852181208,-3,0,-1,-1,-1,1,0,0
1528447852181208,-1,-1,1,0,0,0,0,-1
1528447852189536,1,-1,-1,-1,-1,-1,0,0
1528447852189536,0,0,-1,0,-1,-2,-1,-1
1528447852197363,-1,-1,1,1,-1,-1,-1,-2
1528447852197363,-1,0,-1,-1,-1,0,0,-2
1528447852219837,0,0,-1,-1,0,-1,-1,0
1528447852219837,-1,-1,-1,-1,-2,-2,-1,-1
1528447852227389,-1,-1,-3,-1,-1,0,-1,0
1528447852227389,-1,-1,0,-1,0,-1,1,0
1528447852242365,-1,-1,0,-1,0,0,0,0
1528447852242365,-1,-2,1,0,0,-1,-1,-1
1528447852249373,0,-1,-1,-1,-1,0,1,-1
1528447852249373,0,0,0,0,0,-1,-2,0
1528447852257041,-1,0,0,-1,0,0,-2,-1
1528447852257041,2,-2,-2,-1,-2,0,0,1
1528447852264093,0,-1,1,-1,-1,-1,-1,-1
1528447852264093,2,-1,-2,-3,-2,0,-1,-1
1528447852271933,0,1,-2,0,-2,-3,-1,-1
1528447852271933,-2,1,-2,-1,-1,2,1,0
1528447852279929,-1,-1,0,-1,0,1,0,1
1528447852279929,-2,-1,-2,-1,-1,0,-1,-1
1528447852294921,-1,0,-1,-1,0,-1,-1,-2
1528447852294921,0,-1,1,-2,0,-1,0,-3
1528447852302081,-1,-1,-2,-1,0,-1,-1,-2
1528447852302081,0,2,1,-1,-1,0,0,0
1528447852309853,0,-1,0,-1,-1,-2,-2,-2
1528447852309853,-1,0,-1,1,-1,-2,-1,0
1528447852316781,-1,0,1,0,-1,-2,-1,-1
1528447852316781,-1,-2,-2,1,-2,-1,-2,1
1528447852339943,-2,-1,-1,-2,-1,-1,1,-1
1528447852339943,1,-2,-1,0,-1,0,-1,-1
1528447852353910,-2,-2,0,-1,-2,-1,0,1
1528447852353910,2,-1,-2,-1,-3,-1,0,0
1528447852377129,0,1,1,-1,0,1,1,0
1528447852377129,-1,-1,-1,-2,0,-1,-1,0
1528447852384994,-1,-1,-1,2,1,-1,0,-1
1528447852384994,-1,-1,1,-1,0,-1,0,0
1528447852399837,-1,-2,-2,-1,-1,-3,1,1
1528447852399837,-1,0,0,0,1,-1,2,-1
1528447852407030,1,0,-1,0,-1,0,-1,-1
1528447852407030,-2,-2,0,-2,-1,-1,-1,-2
1528447852413949,0,-1,0,-1,0,0,-2,1
1528447852413949,-1,-1,-2,0,1,0,-1,-1
1528447852429815,1,2,-2,-1,0,1,-3,-1
1528447852429815,-2,-1,0,-3,0,0,-1,0
1528447852436687,-1,1,-1,1,-1,1,-1,-1
1528447852436687,-1,1,0,-1,-3,0,1,1
1528447852444669,-1,-2,-1,-2,0,-1,-1,-1
1528447852444669,1,0,1,0,1,-2,-2,-1
1528447852451650,-1,-1,-2,-1,-1,-1,-1,1
1528447852451650,-1,-2,1,0,-1,-2,1,-1
1528447852459879,0,2,0,0,0,-1,0,-1
1528447852459879,-2,-1,-1,-1,0,-1,1,-1
1528447852475041,0,-2,-2,-1,-1,1,-2,-1
1528447852475041,0,0,-1,0,-1,-2,-1,-1
1528447852489225,-1,-2,-1,-1,-3,-2,-1,-1
1528447852489225,-1,1,-1,-1,0,0,-1,-1
1528447852497269,0,0,-1,-1,-1,-2,-1,-1
1528447852497269,-1,1,-1,-1,-1,0,-2,0
1528447852511949,-2,-1,0,-1,-2,-1,0,1
1528447852511949,1,1,-2,0,-2,-2,-1,-1
1528447852519892,-1,0,-2,0,-1,-1,0,0
1528447852519892,0,0,-1,-1,1,-2,0,-2
1528447852533966,-2,0,0,-1,-1,-3,0,0
1528447852533966,1,-1,-1,-1,-1,0,0,0
1528447852549493,1,-1,0,1,-1,-2,-1,-1
1528447852549493,0,-2,-2,-2,-2,-1,0,-2
1528447852557430,0,0,0,-1,-1,0,0,-1
1528447852557430,-2,0,1,-2,-1,0,-1,-1
1528447852572546,-1,-1,0,-1,-1,-1,-1,-1
1528447852572546,-1,-1,0,0,-1,-2,-2,-2
1528447852587052,-2,-1,0,-3,-2,-1,-2,1
1528447852587052,-3,-2,-1,-1,1,1,-2,1
1528447852594950,1,0,-1,1,-1,-2,1,0
1528447852594950,0,-2,-2,-1,0,-1,0,-2
1528447852610020,0,1,1,0,-1,-2,-1,-1
1528447852610020,1,1,0,-1,-1,0,-1,1
1528447852617000,-1,-1,0,-2,-1,0,-1,-2
1528447852617000,0,-1,-1,0,-1,0,-1,0
1528447852638941,1,-2,-2,0,0,1,-1,-2
1528447852638941,-2,-1,0,0,-2,0,-2,1
1528447852653901,1,-1,-2,-1,1,0,0,0
1528447852653901,-1,1,-1,1,0,-2,1,-1
1528447852661881,-1,-2,0,0,0,1,1,-1
1528447852661881,-2,-1,-1,0,2,-1,0,-2
1528447852676852,-2,-1,1,0,-1,-1,-2,-2
1528447852676852,-2,-1,-1,-1,-2,0,1,0
1528447852691836,0,0,0,-1,0,0,0,0
1528447852691836,-1,-1,0,-2,2,0,1,0
1528447852706821,-1,0,-2,0,-2,-1,-1,0
1528447852706821,-1,0,-1,-1,0,-1,-1,0
1528447852713753,-1,0,-2,-1,-1,-1,-1,0
1528447852713753,-1,-2,-1,-2,-1,-1,-1,-1
1528447852728757,0,0,-1,0,-1,0,-2,0
1528447852728757,1,0,-1,0,-2,0,1,1
1528447852744666,0,-1,-1,-2,0,0,1,-1
1528447852744666,-1,-1,-2,1,-2,0,1,0
1528447852751688,-1,-2,-2,-1,0,1,0,0
1528447852751688,-1,0,1,0,-1,-1,-2,1
1528447852766655,-1,-1,-3,-2,1,0,0,0
1528447852766655,2,0,-1,0,1,-3,-2,-1
1528447852774619,-2,-1,0,-1,0,-1,-1,-2
1528447852774619,-1,-1,-2,-1,-2,-3,-2,-1
1528447852789565,0,1,0,-1,0,-1,-1,-3
1528447852789565,2,-1,0,0,-1,-1,0,0
1528447852804553,0,1,1,-1,0,-2,-2,1
1528447852804553,1,-1,0,-1,-3,0,-2,0
1528447852811535,-1,0,-1,1,0,-2,0,-2
1528447852811535,-1,-2,-1,-1,1,2,1,0
1528447852826495,-1,0,1,-2,-1,0,-1,0
1528447852826495,-2,0,0,-1,-1,-2,0,1
1528447852834476,0,0,-1,0,-2,0,-2,0
1528447852834476,-2,0,-1,0,0,1,-1,-2
1528447852849431,-1,-1,0,-2,-1,-1,0,-1
1528447852849431,-2,2,-1,-3,-2,1,0,-1
1528447852864339,-1,-1,-1,0,-1,-2,0,-1
1528447852864339,-2,-1,-1,1,0,1,-1,0
1528447852871371,-2,0,-2,-1,-1,0,0,-1
1528447852871371,0,0,-1,-3,0,-1,-1,0
1528447852886327,-1,1,1,-1,-1,-1,-1,1
1528447852886327,1,0,1,0,0,-2,-1,-2
1528447852894313,0,-3,-1,-1,0,-1,1,0
1528447852894313,0,-1,-2,-1,-1,-1,-2,-1
1528447852909271,-1,0,-1,0,-1,-1,0,0
1528447852909271,1,-1,1,0,-2,-2,1,-1
1528447852924233,0,-1,-1,-2,-1,0,0,-1
1528447852924233,-1,1,0,-1,-1,1,0,1
1528447852932167,-1,-1,0,0,-1,0,1,0
1528447852932167,-2,-1,-1,0,1,-1,0,-1
1528447852954100,-1,-1,0,0,-2,-1,-1,-1
1528447852954100,2,-1,-3,-1,-1,-1,-1,0
1528447852962116,-2,-2,0,-1,-1,-2,0,1
1528447852962116,-2,-1,0,0,0,-1,-1,0
1528447852977283,0,0,0,-2,0,-2,-2,-2
1528447852977283,0,-1,0,-1,-1,-1,-1,0
1528447852992262,-2,-1,-2,0,0,0,-2,-2
1528447852992262,0,-2,-1,-1,-1,1,1,0
1528447852999991,-1,0,-1,-1,-1,-1,-1,0
1528447852999991,0,0,0,1,-1,-1,1,1
1528447853022203,1,-1,-1,0,0,-1,-1,0
1528447853022203,-2,0,0,-1,1,-1,1,-2
1528447853037158,-1,-2,-1,0,1,1,0,-2
1528447853037158,-1,2,-2,-2,-3,-1,0,-1
1528447853058881,-1,-1,-1,-1,-2,-2,0,-2
1528447853058881,-2,-2,-1,0,1,1,0,-1
1528447853066905,-2,-1,-1,-2,-2,-1,-1,-2
1528447853066905,1,-1,0,0,1,-1,-1,-1
1528447853081820,-1,0,1,0,-1,-1,-1,-1
1528447853081820,-1,-3,-1,0,-1,0,-2,-2
1528447853097281,0,-1,-1,-1,0,0,0,0
1528447853097281,0,0,-1,-1,-1,0,-2,0
1528447853111791,-2,0,1,-2,0,1,0,-2
1528447853111791,-1,-1,-1,-1,-2,0,1,0
1528447853126803,1,-2,-1,-1,-1,0,-2,-2
1528447853126803,0,0,-2,-1,0,0,-2,-1
1528447853134968,-2,-1,-2,1,-1,0,-1,-1
1528447853134968,0,-1,-1,-1,-1,-1,1,-2
1528447853149128,0,-1,0,1,-2,0,-1,0
1528447853149128,-1,0,0,0,1,1,-1,-1
1528447853164123,0,1,-1,0,-1,1,0,1
1528447853164123,-3,-2,-2,-1,-2,-4,-3,-4
1528447853172069,0,0,0,-2,-1,-1,0,-1
1528447853172069,-1,0,0,0,0,0,0,-1
