timestamp,emg1,emg2,emg3,emg4,emg5,emg6,emg7,emg8
1528185026545228,0,1,-1,-2,-2,-1,-1,-1
1528185026545228,-2,0,0,-1,-1,0,0,0
1528185026591107,-1,0,-1,0,0,0,-1,0
1528185026591107,-1,1,-1,-1,-1,0,0,-1
1528185026592102,0,0,-1,0,0,-1,0,0
1528185026592102,-2,-1,-1,0,-1,-1,-1,-1
1528185026596094,0,-1,-1,-2,0,2,0,0
1528185026596094,0,-1,-1,-1,-1,0,0,-1
1528185026597089,0,-1,1,0,-1,-2,-2,-2
1528185026597089,0,2,0,1,0,1,-1,1
1528185026602077,0,-1,-1,0,1,1,1,0
1528185026602077,-1,0,0,0,0,0,1,-1
1528185026610081,1,-1,-1,-1,0,-1,0,0
1528185026610081,0,0,-2,-1,0,-1,-1,0
1528185026619031,-2,0,0,-1,-2,-3,0,0
1528185026619031,0,-2,0,0,0,-3,-1,0
1528185026631998,0,0,-2,1,-2,-1,-1,0
1528185026631998,-1,0,0,-1,0,1,0,-1
1528185026640972,-1,0,1,0,-1,-1,0,-1
1528185026640972,-1,-2,-2,0,-2,0,-2,0
1528185026663911,0,-1,-1,-2,-1,0,0,-2
1528185026663911,-1,-1,-1,-2,0,-1,-1,-2
1528185026664908,1,0,-1,0,0,-1,-2,-3
1528185026664908,-1,1,-1,0,-2,1,-2,-1
1528185026676915,0,-2,0,-1,0,1,-1,1
1528185026676915,0,0,0,0,-1,-1,-2,0
1528185026685854,0,0,-1,-2,-1,-1,0,0
1528185026685854,-2,0,0,-1,0,-2,1,0
1528185026700814,-1,1,-1,-3,1,-2,1,1
1528185026700814,-1,-1,-1,0,-2,0,-1,-1
1528185026702808,0,-2,-2,0,-2,0,-2,1
1528185026702808,2,-1,-1,-1,0,0,-1,-2
1528185026723801,-1,-2,-1,0,-1,0,0,0
1528185026723801,1,0,0,1,-1,-2,1,0
1528185026724813,-1,-2,1,-1,0,-2,-1,-1
1528185026724813,-2,-1,-2,-2,0,-1,0,1
1528185026737715,-1,1,-2,-1,0,-1,0,-1
1528185026737715,-2,-1,-1,-1,-1,-1,-1,-1
1528185026745746,-2,0,-1,-1,-1,0,-1,2
1528185026745746,0,-1,0,-1,-1,-1,0,0
1528185026760705,-2,-2,-1,0,1,-1,-1,-3
1528185026760705,0,-2,-1,0,0,-1,0,-1
1528185026762647,0,-1,-2,0,-1,-1,-1,-2
1528185026762647,-2,0,0,-1,0,-1,0,-1
1528185026783700,0,0,-1,0,-1,0,-1,0
1528185026783700,-2,0,-1,-1,-1,-1,-2,-1
1528185026784588,0,-2,-1,-2,0,-1,0,0
1528185026784588,1,0,-1,-2,-2,1,-1,0
1528185026797578,0,0,0,-1,-1,-2,-1,-1
1528185026797578,0,-1,-1,0,2,-1,0,1
1528185026806530,0,0,1,0,-1,-1,-3,-2
1528185026806530,-2,0,0,1,0,0,-1,-1
1528185026821495,-2,0,0,0,-2,1,-1,-2
1528185026821495,0,-2,0,-1,-3,-1,-1,0
1528185026822488,-1,0,-2,0,-1,0,0,-1
1528185026822488,1,-2,-1,0,1,0,0,0
1528185026843442,-1,2,0,-2,-2,-3,0,-1
1528185026843442,-1,-1,0,-1,-1,-2,0,-2
1528185026845427,0,1,0,-1,-1,0,0,-2
1528185026845427,-1,-1,-1,-2,0,-2,-1,0
1528185026857395,-1,-2,-1,0,2,-1,-1,-1
1528185026857395,-2,-1,-1,1,2,-1,-1,0
1528185026872353,-2,0,-1,1,1,-1,-2,-1
1528185026872353,-1,0,-1,0,-2,0,-1,0
1528185026881329,0,-1,0,-2,-2,0,0,0
1528185026881329,0,1,0,-2,1,1,-1,0
1528185026882336,0,-2,-1,-1,0,-1,2,0
1528185026882336,0,0,-1,0,0,-2,1,0
1528185026903298,-1,-1,-1,0,0,0,-2,0
1528185026903298,-2,-1,1,-1,-1,-1,0,-1
1528185026905265,-1,0,-1,-3,0,0,1,0
1528185026905265,-1,-1,0,-2,-1,-2,-1,0
1528185026917235,-2,-2,0,-1,-1,-1,0,-2
1528185026917235,-2,-1,0,0,0,0,0,-1
1528185026926229,-1,-1,0,0,0,0,0,0
1528185026926229,-2,0,0,-2,1,-1,1,-1
1528185026940204,-1,-1,-1,0,0,1,0,-1
1528185026940204,1,-1,-2,-1,0,-1,-2,-1
1528185026954135,0,-3,-1,0,-1,-1,-1,0
1528185026954135,0,-1,-1,0,-1,-1,-1,-1
1528185026963112,0,-1,0,-2,-1,0,0,0
1528185026963112,0,0,-1,-2,0,-1,1,-2
1528185026965106,-2,-1,-1,-1,0,0,-1,-1
1528185026965106,0,-1,1,1,0,-1,-1,-2
1528185026977100,0,0,-1,1,0,0,0,0
1528185026977100,-1,1,0,-1,-2,-1,-1,0
1528185026986070,-1,0,1,0,-2,-2,-2,1
1528185026986070,0,-1,-2,1,0,-1,0,-1
1528185027000014,-2,-1,0,1,-1,0,-1,-2
1528185027000014,-1,-1,-1,0,-1,-1,-1,-2
1528185027006993,0,0,1,-2,0,0,-2,-1
1528185027006993,0,-2,0,-2,-1,1,-2,1
1528185027024146,-1,0,-2,-2,-1,-1,-1,1
1528185027024146,-1,-1,-1,0,1,0,0,-3
1528185027024946,-1,0,-2,1,-1,0,0,-3
1528185027024946,-1,0,-1,-1,-1,-2,-1,-2
1528185027044938,0,0,-2,-4,-1,0,0,-1
1528185027044938,-2,0,0,-1,0,-1,-1,-1
1528185027053869,0,0,-2,-2,0,0,1,0
1528185027053869,0,-1,-2,-1,-2,0,0,-2
1528185027068828,1,0,0,-1,1,-1,-1,-2
1528185027068828,0,0,1,2,-3,-1,0,0
1528185027069827,0,-1,0,-1,-1,0,0,3
1528185027069827,-2,-1,-2,-1,-1,-1,-1,0
1528185027083789,-1,0,-1,0,-1,0,0,0
1528185027083789,1,0,-1,-2,-2,1,-1,0
1528185027084788,-2,-1,-1,-2,-1,-1,0,-1
1528185027084788,-1,0,0,-1,0,-1,1,2
1528185027096754,-2,-1,0,-1,0,-3,0,-1
1528185027096754,-1,-1,0,-2,-1,-1,-1,0
1528185027105731,1,0,-1,0,0,-1,0,1
1528185027105731,0,-1,0,-2,1,1,1,-1
1528185027120690,-2,1,-1,1,0,-1,-1,-1
1528185027120690,2,-2,-1,0,-1,0,0,-1
1528185027127692,-1,-2,0,0,-1,-2,0,-2
1528185027127692,-1,-2,-1,-1,-2,-1,0,-1
1528185027150610,-1,-2,-1,1,-2,-1,-1,0
1528185027150610,2,0,-1,0,-1,0,-1,0
1528185027152605,0,-1,-2,0,1,0,-1,-2
1528185027152605,0,1,0,1,-1,0,-1,-1
1528185027165626,1,-1,0,-1,0,0,1,-1
1528185027165626,-1,0,0,-1,-1,-1,-1,-1
1528185027167565,1,0,0,0,0,0,0,-1
1528185027167565,-2,1,-1,-1,0,-1,-1,-1
1528185027180585,0,-1,-2,-2,1,-1,-1,-1
1528185027180585,-1,-1,0,-1,-2,-3,-1,0
1528185027187556,-3,0,0,0,-1,-1,-4,0
1528185027187556,-1,0,-1,-1,1,-1,-1,-1
1528185027203514,-1,1,-1,0,-2,-1,1,2
1528185027203514,-2,-1,1,-2,-1,0,1,-2
1528185027205489,0,-2,0,0,-1,-2,1,-1
1528185027205489,-1,-1,0,0,-1,-1,1,0
1528185027233423,1,0,-1,0,-2,-1,-2,-2
1528185027233423,0,-2,0,1,-1,-2,-1,-1
1528185027235436,-1,1,-2,-2,-1,0,-1,0
1528185027235436,1,-2,-3,0,0,0,-1,0
1528185027240424,1,-1,-2,-1,-2,-1,-1,-1
1528185027240424,-1,0,-2,0,0,0,1,-1
1528185027247352,1,0,0,-4,-3,-1,-1,-1
1528185027247352,-1,0,2,0,0,1,-1,0
1528185027263309,-2,0,1,-1,0,-1,0,-2
1528185027263309,0,-1,0,0,-1,0,0,0
1528185027265304,0,-1,-1,0,0,0,0,1
1528185027265304,0,0,0,-1,-4,-1,-1,-1
1528185027286290,0,-1,-1,-1,-1,-2,-1,1
1528185027286290,-1,-3,0,-1,-1,1,0,-1
1528185027287245,1,0,0,1,0,0,-1,0
1528185027287245,1,-2,0,0,-1,-3,-1,0
1528185027299246,-1,-1,0,0,-1,1,-1,0
1528185027299246,0,0,-1,-1,1,-1,-2,0
1528185027314224,-1,0,-1,-1,-1,-1,-3,-3
1528185027314224,-2,0,-2,-2,0,-1,-1,-1
1528185027323204,-1,0,-1,0,-1,-1,0,1
1528185027323204,-2,-2,-1,0,-1,-1,0,-1
1528185027325144,-1,0,0,0,0,-2,2,-1
1528185027325144,-1,0,-1,-1,0,1,0,1
1528185027346140,1,0,0,-1,0,-1,1,-2
1528185027346140,1,-2,-2,-1,-1,-2,-3,0
1528185027348122,-1,0,-1,0,0,-2,-1,0
1528185027348122,-1,-2,1,-1,-1,0,0,0
1528185027369057,-1,-1,-2,0,0,-1,-1,-1
1528185027369057,0,1,-1,0,-1,0,0,-1
1528185027370025,0,-1,1,0,1,0,-1,-1
1528185027370025,-2,-1,-1,0,-1,-1,-1,0
1528185027383043,1,0,1,1,-1,1,-2,-1
1528185027383043,-2,1,-1,-2,0,0,1,0
1528185027398946,-1,0,0,-1,-1,1,-1,-1
1528185027398946,0,1,1,-1,-1,-1,-2,1
1528185027406183,-1,0,1,-2,-1,-2,-1,0
1528185027406183,-2,-1,-2,0,-2,1,-1,0
1528185027407923,-1,-1,-1,-1,-1,-2,0,-1
1528185027407923,0,-1,-1,0,-1,0,0,-1
1528185027429114,0,0,0,-1,0,-2,0,-1
1528185027429114,0,0,-1,-1,-2,-2,0,-2
1528185027430903,-1,0,0,-1,-1,0,1,0
1528185027430903,-1,-1,-1,-3,-2,0,-1,0
1528185027443830,-1,-1,0,0,-1,-2,-2,0
1528185027443830,1,-1,1,-1,0,-1,0,0
1528185027444944,0,-1,-2,-2,-1,-1,-1,-2
1528185027444944,-1,0,-1,0,-1,-2,-1,-1
1528185027466809,-2,-1,2,0,0,-2,0,-1
1528185027466809,0,0,-1,-1,0,-1,-1,0
1528185027467762,-2,0,-1,-1,0,-1,0,-1
1528185027467762,0,0,-1,0,-1,1,0,-1
1528185027479991,0,-1,-1,-2,0,0,-2,-1
1528185027479991,0,-1,-1,-2,0,0,-2,-1
1528185027488707,-1,0,0,1,0,-2,0,0
1528185027488707,-2,0,0,0,1,-2,0,-1
1528185027503711,1,-2,-1,-1,-1,1,1,-1
1528185027503711,-1,0,0,-1,-2,-2,0,0
1528185027504663,0,-1,-2,0,-1,0,-1,-1
1528185027504663,-2,-1,-1,-1,0,1,0,-1
1528185027526862,-1,1,-1,0,-1,0,-1,-1
1528185027526862,0,0,-1,0,1,-1,0,-2
1528185027527605,0,-1,-1,-1,-1,-1,-2,-1
1528185027527605,0,-1,1,-1,0,-1,-1,-1
1528185027539892,1,-1,0,-1,0,0,-2,-1
1528185027539892,0,-2,0,-1,-1,-1,-1,0
1528185027563074,0,0,0,-1,-1,0,-1,0
1528185027563074,1,1,0,0,0,1,1,-1
1528185027563827,-2,0,0,0,-1,0,1,-1
1528185027563827,-1,0,0,-2,-1,0,-1,-1
1528185027571074,0,-2,0,0,0,1,0,-1
1528185027571074,0,-2,-1,-1,0,-1,-3,-2
1528185027593056,-2,-1,-1,0,-1,0,-1,1
1528185027593056,-2,-2,0,-1,-1,0,-1,-1
1528185027595054,0,-1,0,-1,-1,-1,-2,-2
1528185027595054,-2,-1,0,-1,-2,-2,-1,-3
1528185027609025,0,0,-1,-2,-2,-1,1,0
1528185027609025,-1,-1,-1,0,-1,0,0,-1
1528185027610011,-1,-1,-1,-1,0,-1,0,-1
1528185027610011,0,1,0,-1,1,0,0,-2
1528185027631012,0,-2,-1,2,0,-2,-1,0
1528185027631012,-1,-2,0,0,0,-2,-1,0
1528185027633005,0,0,0,0,-2,-1,0,1
1528185027633005,-1,0,0,1,0,-3,0,0
1528185027645947,0,-1,2,-3,1,0,-2,-1
1528185027645947,0,1,-1,0,-2,1,-2,-1
1528185027651909,0,-1,-2,0,0,0,-1,1
1528185027651909,-1,-2,-1,-1,-3,0,0,0
1528185027667863,-1,0,-1,-1,0,-1,1,0
1528185027667863,0,-2,-2,-1,0,0,0,0
1528185027675834,0,-1,-2,-1,-2,-1,-1,-1
1528185027675834,-1,1,-2,-1,0,-1,-2,-2
1528185027690835,0,-1,-2,0,0,-1,0,-1
1528185027690835,0,0,1,1,-1,-1,0,-1
1528185027692790,-1,0,-1,-1,-1,0,-1,1
1528185027692790,-1,-1,0,-1,0,0,1,0
1528185027705755,-1,-1,-1,0,-1,-1,-1,-2
1528185027705755,1,0,0,0,0,-1,-1,0
1528185027711738,-1,0,0,0,0,-1,0,0
1528185027711738,2,0,-2,0,0,-1,0,1
1528185027728730,-1,0,2,0,0,-1,-3,1
1528185027728730,-1,-1,1,-1,0,1,-1,0
1528185027729746,-1,0,0,-1,0,0,1,0
1528185027729746,-1,-1,-1,-2,0,0,0,0
1528185027750635,1,0,-3,-1,-1,-2,0,-1
1528185027750635,-2,-1,-1,1,-1,-1,-1,-1
1528185027758620,-1,-1,0,0,-1,-1,0,0
1528185027758620,-2,0,1,-2,-1,1,-1,-1
1528185027764863,-2,0,0,-1,0,1,-2,1
1528185027764863,-1,0,-1,0,-2,0,0,-1
1528185027773623,1,-1,-2,0,0,1,0,-1
1528185027773623,0,0,0,-2,1,-1,-1,-1
1528185027788862,-1,0,0,0,-2,-1,0,0
1528185027788862,0,-2,-2,-2,-1,-1,-1,0
1528185027790530,-1,0,-1,0,-1,-1,0,0
1528185027790530,-1,-1,-2,1,-1,-1,0,-2
1528185027818586,-1,-1,-1,-1,-1,1,0,-1
1528185027818586,0,0,-2,-1,-1,-1,0,-1
1528185027820222,0,-1,0,0,0,-1,-2,-1
1528185027820222,-1,-1,-1,-1,-1,-1,-1,-1
1528185027841166,0,1,-1,-1,-1,-1,0,0
1528185027841166,0,1,0,0,1,-1,1,1
1528185027842162,0,-1,0,-3,0,-1,-1,0
1528185027842162,0,0,1,-3,0,-1,1,-1
1528185027848365,-1,-1,-2,-1,0,0,1,-2
1528185027848365,0,0,-1,1,0,0,0,0
1528185027855127,0,-1,0,-2,-1,0,-1,-1
1528185027855127,0,-2,-3,1,-3,-1,-2,1
1528185027870327,0,-1,0,-1,-1,-2,-1,-2
1528185027870327,0,0,-1,-1,-1,0,-1,-2
1528185027871085,-2,-1,-1,0,1,-1,1,-2
1528185027871085,0,-2,0,-2,0,0,0,1
1528185027894244,-2,-2,-1,-1,-1,-2,-1,0
1528185027894244,-1,-1,-1,-1,-2,0,-2,-1
1528185027894244,0,-1,-1,-1,-1,1,0,1
1528185027894244,0,-1,0,0,0,-2,0,-1
1528185027908244,-1,-1,0,0,0,-1,-1,-1
1528185027908244,0,-1,-1,-3,-2,0,0,0
1528185027909280,-1,1,-2,1,-2,-1,0,-2
1528185027909280,-1,0,1,0,-2,1,-1,1
1528185027930543,-1,-1,-1,-1,-1,0,-2,1
1528185027930543,-1,0,1,1,1,0,0,-1
1528185027931984,-1,-1,-1,-1,-1,1,-1,-1
1528185027931984,-2,1,-1,0,1,-1,0,0
1528185027953264,-1,-3,0,0,0,0,-1,-2
1528185027953264,0,-2,0,-1,0,0,-1,0
1528185027953948,-1,-2,-2,-1,0,-2,-1,0
1528185027953948,-1,-1,0,1,1,-1,1,-1
1528185027967917,1,0,-1,-1,0,-2,-3,1
1528185027967917,-2,0,-1,-1,-2,-1,0,0
1528185027968899,0,-2,1,-1,-2,-1,-2,-2
1528185027968899,-1,0,-2,-1,-2,-2,-2,-1
1528185027991085,-1,-1,-1,0,-2,0,1,0
1528185027991085,-3,-1,0,-1,1,-2,1,0
1528185027991085,0,-1,1,-1,-1,-2,-2,-1
1528185027991085,0,-1,0,-1,-1,-1,-1,0
1528185028014029,0,-1,-2,-1,0,-1,-2,-2
1528185028014029,-1,0,-1,0,0,-1,0,0
1528185028014979,-1,-1,-1,0,-1,0,0,1
1528185028014979,0,-1,-1,-2,0,-2,0,1
1528185028027991,-1,-1,-1,1,-2,0,-1,0
1528185028027991,0,-1,-1,-1,-2,-1,-1,-2
1528185028028736,-1,0,0,-1,0,-1,0,-1
1528185028028736,1,-2,-2,-1,-1,0,-2,-3
1528185028050669,0,-1,-1,-2,0,1,0,0
1528185028050669,-2,0,1,-1,-1,0,0,-1
1528185028051865,-1,-1,1,-1,-1,-2,0,0
1528185028051865,-2,-1,-2,0,0,-1,-1,0
1528185028064892,0,0,-1,-2,-1,0,1,-2
1528185028064892,0,1,-1,0,0,-2,0,0
1528185028072871,-1,1,-3,-1,-1,-1,-1,-1
1528185028072871,-1,-1,2,-2,0,0,-2,-1
1528185028087822,-1,-1,1,0,0,-1,1,-1
1528185028087822,-1,-1,-1,-1,1,-1,1,0
1528185028095839,0,0,0,-1,0,0,-1,0
1528185028095839,0,1,-1,1,-1,-1,-1,-1
1528185028118780,0,-1,-1,0,0,-2,0,1
1528185028118780,1,-2,0,-2,0,1,-1,0
1528185028118780,-3,1,0,1,0,-1,-1,-1
1528185028118780,1,-1,-2,-1,0,-1,-1,-1
1528185028133988,-2,0,0,-1,1,-1,0,-1
1528185028133988,-2,-1,-2,1,-1,-1,0,0
1528185028133988,-1,-1,-1,-2,-1,0,0,0
1528185028133988,-1,-2,-3,-1,-1,-1,1,3
1528185028147985,1,-2,0,-1,-1,-2,-1,-1
1528185028147985,0,1,-1,-1,-2,0,-2,0
1528185028148949,-1,-1,0,1,-1,0,-1,-1
1528185028148949,-1,-1,0,0,0,0,0,-2
1528185028170412,-1,0,-1,-1,1,-1,0,-1
1528185028170412,-2,-1,-2,-1,-1,-1,0,-1
1528185028171188,0,-2,-1,-1,0,-1,-2,-2
1528185028171188,0,0,0,-2,-1,-1,0,0
1528185028185326,1,-1,-2,-1,-2,-1,1,0
1528185028185326,-1,0,0,0,-1,-1,-1,-1
1528185028200112,0,-1,-2,-1,0,-1,-2,-2
1528185028200112,-2,-2,0,0,1,0,0,-2
1528185028208125,1,-1,0,-2,-1,-1,-2,-1
1528185028208125,0,-3,-1,0,-2,-1,-2,-1
1528185028208125,-1,1,-2,-1,-1,0,0,0
1528185028208125,1,1,-1,-2,0,-1,1,-1
1528185028230065,-1,0,0,0,-1,0,0,-1
1528185028230065,-2,-1,1,0,-1,-2,0,-1
1528185028231064,0,1,-1,-2,0,-2,-1,1
1528185028231064,-1,0,-1,0,-1,0,0,-3
1528185028245039,-1,1,-1,0,-1,2,-2,0
1528185028245039,-1,-1,-1,-2,1,0,0,-1
1528185028253251,1,-2,2,0,0,1,-1,0
1528185028253251,-1,1,-1,-1,0,-1,-1,0
1528185028267964,-2,-2,-1,0,-1,-1,0,-1
1528185028267964,-1,-2,-3,-1,0,0,-2,1
1528185028269202,0,-2,0,-1,-1,-1,0,-1
1528185028269202,0,-1,-1,-2,-1,-1,0,-1
1528185028289906,-1,0,-1,0,0,-1,-1,0
1528185028289906,-2,0,1,-1,0,0,1,-1
1528185028290903,-1,-1,0,0,0,-1,1,-1
1528185028290903,-1,0,-1,1,-1,0,-2,-1
1528185028314257,0,-1,-1,-1,2,0,0,0
1528185028314257,0,0,0,0,0,0,-1,-3
1528185028314257,2,-1,-2,0,0,-1,0,0
1528185028314257,0,-2,1,0,-4,-2,1,1
1528185028328518,-2,0,-1,0,-1,-1,-1,-2
1528185028328518,1,0,-2,0,0,-1,1,-1
1528185028328518,-1,0,-1,0,0,0,-1,1
1528185028328518,-1,0,-1,-1,1,-1,-1,0
1528185028350412,0,-1,0,0,1,-1,-2,-2
1528185028350412,0,0,0,-1,-2,-1,-2,-1
1528185028351418,0,-2,1,0,-1,-2,0,-1
1528185028351418,-2,-3,0,-1,-2,-1,-1,0
1528185028365400,-1,0,-1,0,-1,-1,1,1
1528185028365400,0,0,0,0,0,0,0,-2
1528185028373403,-2,-1,-1,-1,-1,-1,0,-1
1528185028373403,1,1,-3,-1,0,0,-1,-1
1528185028388360,0,1,0,-2,0,-1,0,-3
1528185028388360,1,-2,-2,-1,-1,-1,0,1
1528185028388360,-2,0,-1,-1,-1,1,-2,-1
1528185028388360,0,-2,-2,1,-1,1,0,-1
1528185028410300,-1,-1,-1,-1,-2,1,0,-2
1528185028410300,-1,1,0,0,-1,1,-2,-1
1528185028411247,-1,-1,-1,-2,0,0,-1,-2
1528185028411247,0,0,2,-1,1,0,-1,0
1528185028424213,0,-1,-1,-2,0,-2,1,1
1528185028424213,-3,-3,-1,-1,0,0,0,0
1528185028433249,-1,-1,-1,-1,-2,-1,-1,-1
1528185028433249,-1,1,1,0,-2,0,-1,0
1528185028448150,-1,-1,-1,-2,1,-1,0,0
1528185028448150,0,-2,-2,-1,-1,-1,0,0
1528185028449147,0,0,1,-2,0,-1,-2,-2
1528185028449147,0,-1,0,-1,-2,0,0,-2
1528185028449147,0,-1,0,-1,-2,0,0,-2
1528185028449147,0,-1,0,-1,-2,0,0,-2
1528185028449147,0,-1,0,-1,-2,0,0,-2
1528185028449147,0,-1,0,-1,-2,0,0,-2
1528185028449147,0,-1,0,-1,-2,0,0,-2
1528185028449147,0,-1,0,-1,-2,0,0,-2
1528185028449147,0,-1,0,-1,-2,0,0,-2
1528185028449147,0,-1,0,-1,-2,0,0,-2
1528185028449147,0,-1,0,-1,-2,0,0,-2
1528185028449147,0,-1,0,-1,-2,0,0,-2
1528185028449147,0,-1,0,-1,-2,0,0,-2
1528185028449147,0,-1,0,-1,-2,0,0,-2
1528185028449147,0,-1,0,-1,-2,0,0,-2
1528185028449147,0,-1,0,-1,-2,0,0,-2
1528185028449147,0,-1,0,-1,-2,0,0,-2
1528185028449147,0,-1,0,-1,-2,0,0,-2
1528185028449147,0,-1,0,-1,-2,0,0,-2
1528185028449147,0,-1,0,-1,-2,0,0,-2
1528185028449147,0,-1,0,-1,-2,0,0,-2
1528185028449147,0,-1,0,-1,-2,0,0,-2
1528185028449147,0,-1,0,-1,-2,0,0,-2
1528185028449147,0,-1,0,-1,-2,0,0,-2
1528185028449147,0,-1,0,-1,-2,0,0,-2
1528185028449147,0,-1,0,-1,-2,0,0,-2
1528185028449147,0,-1,0,-1,-2,0,0,-2
1528185028449147,0,-1,0,-1,-2,0,0,-2
1528185028449147,0,-1,0,-1,-2,0,0,-2
1528185028449147,0,-1,0,-1,-2,0,0,-2
1528185028449147,0,-1,0,-1,-2,0,0,-2
1528185028449147,0,-1,0,-1,-2,0,0,-2
1528185028449147,0,-1,0,-1,-2,0,0,-2
1528185028449147,0,-1,0,-1,-2,0,0,-2
1528185028449147,0,-1,0,-1,-2,0,0,-2
1528185028449147,0,-1,0,-1,-2,0,0,-2
1528185028449147,0,-1,0,-1,-2,0,0,-2
1528185028449147,0,-1,0,-1,-2,0,0,-2
1528185028449147,0,-1,0,-1,-2,0,0,-2
1528185028449147,0,-1,0,-1,-2,0,0,-2
1528185028449147,0,-1,0,-1,-2,0,0,-2
1528185028449147,0,-1,0,-1,-2,0,0,-2
1528185028449147,0,-1,0,-1,-2,0,0,-2
1528185028449147,0,-1,0,-1,-2,0,0,-2
1528185028449147,0,-1,0,-1,-2,0,0,-2
1528185028449147,0,-1,0,-1,-2,0,0,-2
1528185028449147,0,-1,0,-1,-2,0,0,-2
1528185028449147,0,-1,0,-1,-2,0,0,-2
1528185028449147,0,-1,0,-1,-2,0,0,-2
1528185028449147,0,-1,0,-1,-2,0,0,-2
1528185028449147,0,-1,0,-1,-2,0,0,-2
1528185028449147,0,-1,0,-1,-2,0,0,-2
1528185028449147,0,-1,0,-1,-2,0,0,-2
1528185028449147,0,-1,0,-1,-2,0,0,-2
1528185028449147,0,-1,0,-1,-2,0,0,-2
1528185028449147,0,-1,0,-1,-2,0,0,-2
1528185028449147,0,-1,0,-1,-2,0,0,-2
1528185028449147,0,-1,0,-1,-2,0,0,-2
1528185028449147,0,-1,0,-1,-2,0,0,-2
1528185028449147,0,-1,0,-1,-2,0,0,-2
1528185028449147,0,-1,0,-1,-2,0,0,-2
1528185028449147,0,-1,0,-1,-2,0,0,-2
1528185028449147,0,-1,0,-1,-2,0,0,-2
1528185028449147,0,-1,0,-1,-2,0,0,-2
1528185028449147,0,-1,0,-1,-2,0,0,-2
1528185028449147,0,-1,0,-1,-2,0,0,-2
1528185028449147,0,-1,0,-1,-2,0,0,-2
