timestamp,emg1,emg2,emg3,emg4,emg5,emg6,emg7,emg8
1528444647778905,0,-1,0,0,-2,0,0,-1
1528444647778905,-1,1,-1,0,-1,-2,0,-1
1528444647787881,-2,0,-2,-1,1,-2,-1,-1
1528444647787881,-1,0,-2,-2,0,-2,-2,-2
1528444647788878,-1,-2,-1,-2,1,-2,-1,-1
1528444647788878,-1,-1,-2,-1,-1,0,-1,-2
1528444647789875,0,0,0,-2,-3,-2,-1,0
1528444647789875,-1,-1,0,0,-2,0,-1,-1
1528444647792867,-1,-1,-1,-3,-1,-1,-4,-1
1528444647792867,-1,-2,-1,-1,-2,-2,-1,-1
1528444647795860,-1,-1,-1,-1,-3,0,-1,-1
1528444647795860,-1,-1,-1,-2,-1,-1,0,-2
1528444647816802,0,-1,-1,-3,-1,0,-1,0
1528444647816802,0,-2,-1,-2,-1,0,-1,-2
1528444647820792,-1,-2,-1,-1,-1,0,-1,0
1528444647820792,-2,-1,0,-1,-1,0,0,-2
1528444647822786,-1,0,0,0,-2,-2,-1,0
1528444647822786,-1,0,1,-1,0,1,-2,0
1528444647847750,-1,-2,-1,0,-1,-2,-2,-1
1528444647847750,0,-1,-4,-3,-3,-2,-2,-1
1528444647849732,-1,-1,-1,-1,0,-1,-1,-1
1528444647849732,-1,0,-1,-1,-2,-1,-1,0
1528444647861681,-2,-1,-1,1,-1,-1,-1,-1
1528444647861681,-1,0,0,-1,-1,0,0,-1
1528444647901576,0,-1,-1,0,-1,-1,-1,0
1528444647901576,-1,-1,0,-1,0,-1,-1,-2
1528444647902573,-1,-2,-1,-2,0,0,1,-1
1528444647902573,-2,-2,-2,-1,-2,-1,0,-2
1528444647906563,-1,-1,1,-1,-2,-1,-1,1
1528444647906563,-1,-2,0,0,-2,-2,-2,-2
1528444647907561,0,0,-1,-1,-2,-2,-2,0
1528444647907561,-1,0,-2,-1,0,0,-1,0
1528444647911549,-1,-1,-2,-2,0,-1,-1,-1
1528444647911549,-1,-2,-3,-1,-2,1,-2,0
1528444647919527,-1,0,-1,-1,-1,-2,-3,0
1528444647919527,-1,0,0,-2,0,-1,-1,-2
1528444647934487,-1,-1,0,0,0,0,-1,-2
1528444647934487,-2,1,-2,0,0,-3,-1,0
1528444647942466,0,-2,-2,-3,-1,0,0,-2
1528444647942466,0,-1,0,0,-2,-1,-2,-1
1528444647951442,-2,-1,-1,-1,-1,-2,-1,-2
1528444647951442,-1,-1,-1,-1,0,0,-1,-1
1528444647973385,-3,0,0,-1,-1,-1,-2,-1
1528444647973385,0,0,-2,-1,0,-1,-2,-1
1528444647975381,0,-1,-1,-2,-1,0,-1,-1
1528444647975381,0,-1,-1,-1,0,-1,-1,-1
1528444647996322,-2,-1,-1,0,0,1,0,-1
1528444647996322,-2,-1,-1,0,-1,-2,-1,-2
1528444647997320,0,-1,-2,0,-1,-1,0,-1
1528444647997320,0,-1,-2,0,-1,1,-1,1
1528444648010285,-1,-1,-1,-1,-3,0,-1,0
1528444648010285,-1,-1,0,-1,-1,-1,-1,0
1528444648018263,0,-1,-2,-1,-3,-1,-1,-1
1528444648018263,-2,-2,0,-1,-1,-3,-1,-1
1528444648033223,-1,-1,0,0,-1,-1,-1,-1
1528444648033223,-3,-1,-2,-1,0,-2,0,0
1528444648035218,0,-1,-2,-1,0,-1,-2,-1
1528444648035218,-1,-2,-2,-2,-2,0,0,-1
1528444648056164,-3,0,0,-1,-3,0,-1,-2
1528444648056164,-2,-2,-1,-1,-1,0,-2,0
1528444648072120,-1,-1,-3,0,-1,0,0,-1
1528444648072120,-1,-1,0,-2,-2,-1,0,-1
1528444648072120,-1,-1,-2,0,0,-1,-2,-2
1528444648072120,-1,0,-1,-1,-3,0,-1,-2
1528444648078105,-2,-1,-1,-3,-2,0,0,1
1528444648078105,0,0,-1,-2,0,-2,-1,-2
1528444648093065,-1,0,-2,-2,1,-3,0,0
1528444648093065,1,-1,-2,0,-2,-1,-1,-1
1528444648095060,-1,-1,-1,-1,-1,-2,-2,-3
1528444648095060,-2,0,-2,-1,-2,-1,-2,-1
1528444648116002,0,-2,0,-1,-2,-1,-3,-1
1528444648116002,-2,-1,-3,0,1,-2,-1,-3
1528444648118002,-1,0,-1,-1,-3,1,-1,-1
1528444648118002,-2,-1,-1,-1,1,-2,-1,-2
1528444648129965,-1,0,-1,-1,0,-2,1,0
1528444648129965,-1,-4,1,-1,0,-2,0,-1
1528444648138942,-1,-1,1,0,-2,-2,-1,-1
1528444648138942,-2,-1,0,-1,-3,-1,-2,-1
1528444648152904,0,-2,-2,0,1,-1,-1,-3
1528444648152904,-2,-3,-2,-1,-1,1,-2,-1
1528444648154898,-3,0,-1,-1,0,-2,-3,-1
1528444648154898,1,0,-3,-1,-1,-1,0,-2
1528444648175843,0,-1,-2,-1,-1,-2,-1,-1
1528444648175843,0,0,-2,0,-1,-1,-1,0
1528444648177837,-1,-1,0,0,0,-1,-1,-1
1528444648177837,-1,-1,-2,-2,0,-1,0,0
1528444648189806,-1,-1,-2,-3,-1,0,0,-1
1528444648189806,1,-1,0,-2,-1,-2,0,-2
1528444648198782,-1,-2,-1,-1,-2,-2,-2,-1
1528444648198782,-1,-1,-1,-1,-2,-2,-1,-1
1528444648213740,0,-1,0,-1,-2,0,0,-1
1528444648213740,-1,0,-1,-1,-2,-1,-1,-2
1528444648214738,0,-2,-1,-2,-1,-1,-1,0
1528444648214738,0,-2,-1,0,0,0,-1,-1
1528444648235683,-2,-3,0,-1,0,-1,-1,-1
1528444648235683,-2,-1,-1,-3,-2,-2,-4,-1
1528444648237679,1,-1,-3,-2,-2,-1,-2,0
1528444648237679,-1,0,-1,-1,0,-1,-2,-1
1528444648249646,0,0,-2,-1,0,-1,0,0
1528444648249646,-1,-2,0,0,0,0,-1,-2
1528444648258622,-2,-2,-1,-2,-1,-1,1,-2
1528444648258622,-3,-3,0,-1,-2,-1,-1,-2
1528444648273581,1,-1,-1,0,-2,0,-2,-1
1528444648273581,-2,0,0,0,0,0,0,0
1528444648274579,0,-2,0,0,0,0,-1,-2
1528444648274579,0,0,-1,0,-3,-1,-3,-2
1528444648295524,-2,-1,-1,0,-2,-1,0,-1
1528444648295524,1,0,0,0,-1,-1,-1,-1
1528444648297517,-1,0,0,0,1,0,0,-2
1528444648297517,0,-2,-1,-1,-1,0,0,-2
1528444648309535,-2,-2,-1,0,-2,-2,-3,-1
1528444648309535,-1,-1,-1,-2,-1,-3,-2,-1
1528444648318461,-1,-1,-1,-1,-1,0,-1,-1
1528444648318461,-1,-1,0,-2,-1,-1,-1,-1
1528444648333422,-2,-1,0,0,-1,-1,-2,-2
1528444648333422,0,-1,-1,-1,-1,-1,-1,-1
1528444648339425,-3,0,0,0,-2,-1,-1,-1
1528444648339425,-1,-1,-2,-2,-1,-1,0,-1
1528444648356360,0,-1,0,-2,-1,-1,1,-1
1528444648356360,-1,0,-2,-1,0,-1,-1,0
1528444648357357,-1,0,-2,0,-2,-1,-2,-2
1528444648357357,-2,-1,-1,0,-1,1,0,-2
1528444648369373,-1,0,-2,-3,1,0,-1,-3
1528444648369373,-2,-1,-2,0,0,-1,0,-1
1528444648378301,0,-2,-1,0,0,0,-1,-2
1528444648378301,0,-1,-3,-1,1,-1,-2,1
1528444648393261,1,-1,0,-1,-1,-1,-2,-1
1528444648393261,0,0,-1,-1,-3,-1,0,0
1528444648395256,0,0,-1,-2,0,-2,-1,-1
1528444648395256,0,-1,1,-1,0,-1,0,-1
1528444648416201,0,-2,-1,0,0,0,-2,-2
1528444648416201,-2,-3,-1,-1,0,1,-1,-1
1528444648417201,-3,0,-3,0,-2,-1,-1,-1
1528444648417201,-1,0,-1,-2,0,-3,-1,-1
1528444648429397,-3,-2,0,-1,0,0,-1,-1
1528444648429397,-1,-2,0,1,-1,0,0,-2
1528444648438428,-1,-1,1,0,0,-1,0,-1
1528444648438428,-2,-1,0,-1,-2,-2,-1,-1
1528444648453634,1,0,-2,1,-1,-1,-1,0
1528444648453634,-2,1,-1,-2,-1,-3,-1,0
1528444648455379,1,-1,-2,-1,1,0,0,-1
1528444648455379,1,-2,-1,-2,0,-1,-4,-1
1528444648476679,-2,-2,0,-1,-1,-1,-1,-2
1528444648476679,-1,-3,-2,-1,-2,0,-2,1
1528444648477322,0,0,-1,-1,-2,0,-2,-1
1528444648477322,-2,-1,0,0,0,-1,-2,-1
1528444648489758,-1,0,-3,-1,0,-2,-1,-1
1528444648489758,1,0,-1,-2,-1,-2,-1,-1
1528444648499301,0,0,-2,-1,-2,-2,-1,0
1528444648499301,-2,-1,-1,0,-2,-1,0,0
1528444648512944,-1,0,0,-2,-2,-1,0,-2
1528444648512944,-1,-1,-3,-1,-2,-2,-1,0
1528444648514939,-1,0,-1,0,1,-2,0,1
1528444648514939,-1,-1,-1,0,-3,-3,0,-1
1528444648535920,0,-2,-2,-2,-1,-2,1,-1
1528444648535920,-2,-1,0,-3,-2,-1,0,-2
1528444648537930,-1,0,-1,-1,-2,-3,-2,-2
1528444648537930,-1,-1,-4,-1,1,0,-1,-1
1528444648558860,-2,-1,-1,1,-1,-1,-1,-1
1528444648558860,1,-1,-1,-2,-2,-1,-2,-1
1528444648559836,-1,-1,-1,-2,-1,-2,-3,-1
1528444648559836,-1,-1,0,-1,-4,0,-1,-1
1528444648572816,-1,0,-2,0,0,0,-1,-1
1528444648572816,-3,-2,0,0,-1,1,-2,-1
1528444648580034,-3,-2,-1,-2,-1,0,-1,-1
1528444648580034,2,0,0,0,-1,-1,-1,-1
1528444648595761,0,0,-2,-1,-2,-1,-1,-1
1528444648595761,-1,-1,0,-2,0,-1,-1,-1
1528444648597717,-1,-3,-2,0,-2,-1,0,-1
1528444648597717,-3,-2,-2,-3,0,-2,-2,-2
1528444648617927,0,-1,-1,-1,-2,-2,0,-2
1528444648617927,-1,0,-1,-2,-1,-3,-1,-1
1528444648625827,0,-2,-1,0,0,0,0,0
1528444648625827,-1,0,-2,0,-1,-1,-1,-1
1528444648633875,0,0,1,-1,-2,-1,-1,-1
1528444648633875,-1,-2,-1,-1,0,1,-2,-2
1528444648635812,-1,-1,0,-2,-2,-3,-2,-2
1528444648635812,-3,-2,-2,1,-2,-2,2,-1
1528444648655564,0,-1,-1,-2,-1,-1,-3,0
1528444648655564,0,0,-1,1,-2,0,-1,-2
1528444648657563,-1,-1,1,-2,-2,-1,0,-1
1528444648657563,0,-1,-1,0,-1,-2,-2,0
1528444648678723,-2,-2,-2,-1,0,-1,-1,-1
1528444648678723,-1,0,-1,-2,1,-1,0,-1
1528444648684707,-1,-2,-1,1,1,0,-2,-1
1528444648684707,-2,-1,-1,0,-2,-1,-1,-3
1528444648692697,-1,-3,-1,-1,-2,0,-2,0
1528444648692697,-1,-2,-1,0,-1,-2,1,-1
1528444648699687,-1,-1,-1,-2,0,-2,-1,-1
1528444648699687,-2,0,-1,-1,0,-1,0,0
1528444648716613,-2,-1,-2,-1,-1,-2,-1,0
1528444648716613,0,-2,-3,0,-2,-1,0,-2
1528444648717472,-2,0,0,-3,-3,-1,-1,0
1528444648717472,1,-2,0,-1,0,0,-1,-2
1528444648738341,0,1,-1,0,0,0,0,-2
1528444648738341,0,-1,-1,0,-1,-1,-1,0
1528444648740340,1,-2,-2,-1,-1,-1,-1,-1
1528444648740340,-2,-1,0,-1,-1,0,-1,-2
1528444648753303,1,-1,-1,-1,-1,-1,1,1
1528444648753303,-2,-2,-1,0,-2,-2,-3,-1
1528444648759618,-1,0,-1,0,-1,-2,-1,-1
1528444648759618,-1,0,-1,-1,-1,-1,0,-1
1528444648776615,-2,-1,0,0,0,-2,-1,-1
1528444648776615,-1,0,-2,-2,0,0,-1,0
1528444648777242,-1,-1,-1,0,-1,-1,0,-1
1528444648777242,0,-1,0,-1,0,1,-1,0
1528444648798213,-2,-2,-1,-1,-2,-1,-1,-3
1528444648798213,-2,-2,1,-2,0,0,-1,-2
1528444648800176,-1,-2,-1,-2,-1,0,0,0
1528444648800176,-1,0,1,-2,-2,-3,-1,-1
1528444648812747,0,0,-1,-1,-2,-1,-1,0
1528444648812747,0,-2,-1,-1,0,0,-2,-1
1528444648820694,-1,-1,-2,0,-2,-1,0,-1
1528444648820694,0,0,-2,-1,-2,-1,-1,-1
1528444648835918,-1,-2,-2,-2,-2,-1,0,0
1528444648835918,0,-1,-2,-2,-2,-1,-1,-1
1528444648837649,0,0,-1,0,-2,0,-2,-2
1528444648837649,-1,-1,-1,-1,-2,-1,-1,-2
1528444648858857,-2,-2,0,0,0,-1,0,-2
1528444648858857,-1,-1,0,-1,-1,-2,-1,0
1528444648859884,-2,-1,-1,0,-3,0,1,-1
1528444648859884,-1,-1,-1,-4,-1,-1,-1,-3
1528444648880342,-2,-2,-1,0,-1,0,-2,0
1528444648880342,-2,-1,-2,1,-1,-1,-1,-1
1528444648881077,1,0,-1,-1,0,-1,-1,-2
1528444648881077,0,-2,-3,-1,-1,0,-1,0
1528444648903268,-1,-2,-1,-1,-1,0,-1,-1
1528444648903268,-1,-1,0,-1,0,-1,-1,0
1528444648904034,-2,-3,0,-1,0,-1,-2,-2
1528444648904034,-2,0,0,-1,-1,-2,-1,0
1528444648917674,0,0,-2,0,-2,-3,0,-1
1528444648917674,-2,1,1,0,0,-1,-1,0
1528444648925777,-1,-1,-1,-1,-1,-2,-1,-1
1528444648925777,-1,0,-1,1,0,-2,-1,1
1528444648940239,-1,-1,-2,-1,-2,0,-2,-2
1528444648940239,0,-2,0,-2,-1,0,-1,-3
1528444648940995,-2,-1,-2,-1,-2,-1,-3,-2
1528444648940995,1,-1,0,-1,-2,0,-1,-2
1528444648962947,-2,-1,-1,-1,0,-2,-1,-1
1528444648962947,0,-1,-1,-1,-2,0,0,-1
1528444648963933,-1,-1,-2,-2,-2,0,0,-1
1528444648963933,0,-1,-2,-1,0,-2,0,-1
1528444648977896,0,0,-1,-2,0,1,-2,1
1528444648977896,-1,-2,-2,-1,-1,-2,-2,-1
1528444648979134,0,-3,-3,-2,0,0,0,-2
1528444648979134,-1,-2,-2,-1,-1,0,-1,-2
1528444649001503,-1,0,-1,-3,-1,-3,-1,-2
1528444649001503,-1,0,-2,1,0,0,-2,-1
1528444649001503,-1,0,0,-1,-2,-1,0,0
1528444649001503,-3,-1,-1,-1,-1,-1,-1,-1
1528444649023441,-1,-2,0,-1,1,0,-1,-2
1528444649023441,-2,-1,-1,-1,-2,0,-1,0
1528444649023441,-2,1,-1,-1,0,-1,-2,-2
1528444649023441,-2,0,0,-1,-1,-1,-1,0
1528444649038055,0,-1,-1,0,-1,-1,-2,-1
1528444649038055,-2,0,-2,-3,-2,-1,-1,-2
1528444649038055,-1,-2,-1,-1,-1,0,-1,1
1528444649038055,-1,-1,1,-1,0,0,-1,1
1528444649060624,-1,-2,0,0,-1,0,0,-1
1528444649060624,0,-1,0,-1,-1,-1,0,-1
1528444649060624,0,-2,0,-3,-1,-3,0,0
1528444649060624,-1,-1,-1,-3,-1,-2,-1,-1
1528444649083212,-2,1,-2,-1,-2,-2,-3,-1
1528444649083212,0,-1,-1,0,-2,-1,-1,-3
1528444649083863,0,-1,0,-1,-1,-2,-2,-1
1528444649083863,0,-2,-1,-2,-3,0,-3,-2
1528444649097828,0,-2,-2,-1,0,1,0,-1
1528444649097828,0,-1,-3,0,-1,-1,0,-2
1528444649098826,-2,-1,-1,-1,-2,-1,-1,-2
1528444649098826,-2,-1,-2,0,0,-2,-2,-1
1528444649120558,0,1,-1,-1,0,0,-1,0
1528444649120558,-1,-1,-1,-1,-1,-1,-1,0
1528444649121180,-1,1,0,1,0,0,0,-1
1528444649121180,-2,-1,-1,-2,-2,0,-1,-1
1528444649143395,0,-1,-1,-1,-1,-1,-1,0
1528444649143395,-2,-3,-1,-1,1,-1,-2,-3
1528444649143395,0,-2,-1,0,-1,-2,0,-2
