timestamp,emg1,emg2,emg3,emg4,emg5,emg6,emg7,emg8
1528875596549298,0,-1,0,1,1,1,2,0
1528875596549298,-3,0,-3,0,2,1,-3,-1
1528875596554287,-1,-1,-2,-4,-3,0,2,0
1528875596554287,0,-1,-1,-2,-2,-3,-6,-2
1528875596555283,-3,-2,-1,-1,-2,0,4,-2
1528875596555283,1,-2,6,2,-1,-1,3,1
1528875596557277,-1,-1,-17,-5,-8,-5,-4,-2
1528875596557277,-1,-2,-8,-2,6,0,2,0
1528875596567250,1,1,1,-1,-3,1,-1,0
1528875596567250,-1,-1,-2,-4,-3,0,-2,-4
1528875596579219,-1,-1,0,-1,-3,-2,0,-1
1528875596579219,-2,2,-1,-1,-5,-6,-1,-2
1528875596591187,-2,-7,-3,-2,4,0,-1,1
1528875596591187,0,0,-3,-2,0,1,1,0
1528875596597172,-2,0,-2,2,5,-1,0,-2
1528875596597172,1,-2,9,-2,-12,-2,0,0
1528875596607143,-1,1,-1,-2,15,2,-2,-1
1528875596607143,0,-1,2,1,-4,-2,-1,1
1528875596628087,-1,-2,2,3,4,2,-1,-2
1528875596628087,-1,-1,6,6,-5,-3,4,1
1528875596629085,-1,-3,-11,-12,-9,-4,-5,-3
1528875596629085,0,-3,-2,3,-4,-3,0,-2
1528875596642050,0,2,6,23,17,8,1,0
1528875596642050,-1,-5,-4,-33,-17,3,-2,0
1528875596683939,0,-1,4,0,-9,-7,-6,-3
1528875596683939,1,2,1,3,5,4,4,1
1528875596684937,0,0,0,-4,-8,-4,-1,-2
1528875596684937,-1,-3,-6,-1,0,-3,-4,-1
1528875596688926,-2,-1,-3,-2,-4,-2,-1,0
1528875596688926,-2,-3,-2,-2,-7,-5,-3,-4
1528875596695907,-1,-1,0,-1,3,-3,-3,-2
1528875596695907,0,0,1,8,-1,-1,3,3
1528875596697901,0,0,2,7,8,10,3,3
1528875596697901,-2,-2,-6,-4,-6,-11,-6,-3
1528875596701892,-3,-3,-1,-3,-2,1,1,-9
1528875596701892,1,0,0,-4,7,11,15,15
1528875596710867,1,0,0,4,-1,0,1,-3
1528875596710867,0,1,0,4,-2,3,5,2
1528875596724830,-2,3,6,10,-6,-10,-22,-1
1528875596724830,-4,0,1,-19,-6,-2,6,-12
1528875596733807,-1,-4,-10,-9,5,-1,-1,2
1528875596733807,0,0,1,-6,-10,-5,-2,-1
1528875596755747,1,1,-1,11,-27,-7,3,1
1528875596755747,-2,-4,-7,-28,11,6,0,-1
1528875596757742,-1,-2,-7,-5,0,4,-2,-2
1528875596757742,-3,-1,0,-6,0,-1,-7,-7
1528875596769709,0,-2,-7,-1,4,-4,-3,-4
1528875596769709,-1,-2,2,9,-6,-3,-3,1
1528875596778685,-2,0,1,3,7,-1,0,2
1528875596778685,-1,-1,1,-2,2,1,9,4
1528875596800626,-2,-4,-2,-7,-9,0,-6,-1
1528875596800626,-4,-1,1,4,-1,-12,-16,-10
1528875596802621,1,3,0,9,1,-4,-11,4
1528875596802621,-7,-5,-7,-11,-1,6,14,0
1528875596815589,10,5,7,12,8,7,3,4
1528875596815589,1,2,5,2,-1,-1,3,-2
1528875596817582,-2,-4,-7,1,-1,-5,-6,-2
1528875596817582,-3,-3,-4,-4,-5,-7,-11,-2
1528875596829568,-2,-3,-10,-21,2,2,8,1
1528875596829568,3,7,14,22,6,3,-2,2
1528875596838526,1,4,18,28,-2,-4,3,-3
1528875596838526,1,3,4,-2,0,0,-10,-1
1528875596853485,-2,-3,-8,-8,8,2,5,2
1528875596853485,1,-1,-5,8,-4,-3,0,-2
1528875596855480,0,5,3,-31,-6,1,-2,-1
1528875596855480,1,1,1,14,4,0,-2,-2
1528875596875426,-2,-2,4,-7,-1,-4,-4,0
1528875596875426,-6,-12,-14,-2,-10,-2,-5,-3
1528875596877421,-2,-4,-4,-4,2,6,6,0
1528875596877421,-2,-4,4,-9,2,-3,-3,-1
1528875596889391,-3,4,-4,3,-5,-7,-5,-2
1528875596889391,-2,-3,-7,-13,0,0,1,2
1528875596898365,-2,-3,4,-8,-6,-3,-1,-5
1528875596898365,-2,-7,-21,-8,-2,-1,-2,0
1528875596913327,-4,-7,-12,8,0,2,3,-1
1528875596913327,-1,-3,3,9,-1,-4,-6,-4
1528875596915320,-4,-7,-1,-6,-9,-5,-2,-3
1528875596915320,4,2,10,7,2,1,-1,-1
1528875596936264,-1,3,6,7,0,0,1,1
1528875596936264,2,2,3,-12,-5,-1,-1,0
1528875596937261,-1,0,-5,-9,-6,2,0,-2
1528875596937261,-2,-3,-1,5,-1,-3,-8,-4
1528875596949229,-2,-1,1,4,4,-2,-5,0
1528875596949229,2,-1,8,4,2,14,33,9
1528875596958205,1,3,1,0,2,-2,4,2
1528875596958205,-2,0,-1,-8,-5,-2,0,-1
1528875596973165,1,2,9,0,4,3,-9,-3
1528875596973165,-2,-1,-7,0,-2,-7,-10,-5
1528875596975160,-4,-5,-18,-12,-1,-5,8,0
1528875596975160,0,-2,0,5,-1,-1,-6,1
1528875596996108,-6,-2,3,-1,5,7,13,-2
1528875596996108,2,2,7,2,-7,-8,-8,-3
1528875596997102,4,-2,-12,-7,-3,0,-6,-1
1528875596997102,-1,2,1,2,-2,-4,-6,-2
1528875597009069,2,5,11,0,7,-5,-32,-5
1528875597009069,-6,-4,-8,-4,-3,3,22,-1
1528875597018045,-1,-1,3,4,-2,0,4,3
1528875597018045,3,-1,6,3,0,3,3,0
1528875597033005,4,4,21,7,4,2,1,2
1528875597033005,-1,1,-17,1,3,-4,-10,-1
1528875597035000,-6,-1,8,10,-1,-8,-15,-7
1528875597035000,1,-1,-2,-2,0,-4,-9,2
1528875597055944,-25,-5,-33,-19,-7,2,32,-7
1528875597055944,13,-2,8,-8,6,3,-12,2
1528875597057938,9,3,4,-2,0,-1,-5,3
1528875597057938,-5,0,15,17,8,0,5,-2
1528875597069907,6,2,-1,-4,-4,-6,-18,-1
1528875597069907,-13,-8,-18,4,-1,0,1,-3
1528875597078883,0,-1,0,1,-3,-1,-9,-3
1528875597078883,5,1,-17,-23,-6,0,-6,-6
1528875597092845,1,1,7,-2,-1,-1,6,2
1528875597092845,-4,-1,-3,-4,-7,-3,-2,-2
1528875597094841,-2,-2,4,10,0,-2,-6,-7
1528875597094841,-3,-1,-6,5,-3,0,5,3
1528875597115784,3,0,12,5,-3,-3,-1,1
1528875597115784,-5,-2,-2,-17,-10,-9,-2,-7
1528875597117779,-5,-5,-12,-8,5,5,4,0
1528875597117779,1,0,-1,-4,-5,-2,4,6
1528875597129747,2,-4,-5,-4,-1,2,3,-3
1528875597129747,2,3,15,14,1,-2,-43,-5
1528875597138723,3,3,17,-5,3,13,93,19
1528875597138723,-6,-5,-7,4,-3,-5,-33,-9
1528875597152686,2,-4,-6,9,1,6,7,8
1528875597152686,3,7,4,-10,0,-5,-22,-3
1528875597159667,0,7,1,2,-3,-7,-43,-12
1528875597159667,-13,-17,-9,-10,0,9,55,10
1528875597174627,-1,2,20,6,-1,-10,-10,-5
1528875597174627,-2,-3,-16,4,1,0,-2,2
1528875597183610,-3,-5,-15,-8,-4,-7,-14,-5
1528875597183610,4,7,10,7,-3,-5,-12,-4
1528875597189586,0,-5,-25,-19,-5,0,-9,-2
1528875597189586,-1,1,7,5,1,2,19,1
1528875597198563,-2,-1,-1,-2,-3,0,-5,-3
1528875597198563,2,3,13,12,4,-2,-11,-2
1528875597212525,-5,-11,-33,-21,-4,-2,10,0
1528875597212525,7,1,5,4,-3,-2,0,-2
1528875597219507,10,0,4,5,1,-5,-13,6
1528875597219507,-15,-6,-5,-18,-3,-1,42,4
1528875597236475,-5,0,10,5,-4,7,-7,-9
1528875597236475,-2,-1,-4,-9,-4,-17,-66,-12
1528875597237484,-1,-10,0,13,7,9,34,6
1528875597237484,2,-3,-26,-14,-2,1,8,1
1528875597249429,0,2,19,9,1,-2,-33,-4
1528875597249429,3,2,-13,-4,0,3,60,9
1528875597258409,-7,-1,1,5,-8,-9,-46,-10
1528875597258409,-2,-3,4,9,1,-2,-24,-7
1528875597272366,5,1,1,-2,6,20,87,21
1528875597272366,3,0,0,0,-1,-2,-20,5
1528875597279348,-3,4,6,3,2,0,-20,-12
1528875597279348,7,0,-11,-4,-3,-19,-98,-9
1528875597296569,-10,-9,6,9,-2,6,62,1
1528875597296569,-7,2,23,12,3,3,-2,10
1528875597297327,1,0,-6,-11,-1,1,-12,1
1528875597297327,-4,-1,-9,2,-3,2,55,-9
1528875597318599,7,5,24,-1,0,-14,-64,-4
1528875597318599,-10,-13,-29,-13,-6,-10,-48,-13
1528875597320625,-4,1,4,1,-7,0,73,4
1528875597320625,2,3,0,2,8,6,-42,-1
1528875597332562,1,-1,10,12,1,0,7,1
1528875597332562,-3,-4,-26,-38,-3,6,17,-2
1528875597339541,-4,-6,-8,-4,-5,-12,-57,-11
1528875597339541,3,-1,-1,-6,-3,1,21,13
1528875597355462,2,1,-1,-4,-8,2,26,0
1528875597355462,-2,-6,0,15,1,-5,-43,-9
1528875597357457,0,2,3,-5,-2,-11,-19,0
1528875597357457,2,6,21,12,2,18,106,14
1528875597369464,-8,-3,-23,7,2,-10,-44,-7
1528875597369464,0,-1,0,-15,-11,4,25,-2
1528875597378401,-3,3,11,-2,7,-8,-42,9
1528875597378401,7,-14,-38,-22,-13,0,-9,-14
1528875597392363,-8,-1,-13,2,0,-12,-39,-1
1528875597392363,2,2,8,1,2,11,117,19
1528875597399389,2,-2,10,25,2,2,-29,-21
1528875597399389,-5,4,2,-12,8,-5,-29,17
1528875597415333,-1,-7,-4,-11,-12,-12,-42,-21
1528875597415333,4,-2,-5,0,-7,-3,39,10
1528875597423280,-3,2,-6,2,3,19,49,8
1528875597423280,0,6,34,21,9,4,-41,-1
1528875597438240,6,-6,-29,-31,-8,-3,34,5
1528875597438240,-15,-4,23,16,-2,-6,-50,-33
1528875597440235,-1,-15,-20,-19,-15,-1,-1,0
1528875597440235,7,3,-3,0,0,-1,17,14
1528875597452203,1,3,-8,-7,7,1,0,9
1528875597452203,3,16,24,17,7,3,13,20
1528875597461179,-2,-1,-17,-10,0,5,28,3
1528875597461179,-8,3,10,-10,-6,-11,-35,-18
1528875597476186,9,2,17,15,-2,-5,-11,-10
1528875597476186,-12,-11,-44,-23,-6,-8,-31,-9
1528875597477136,0,5,30,17,4,1,-12,2
1528875597477136,0,-6,-32,-20,-5,-6,30,4
1528875597498082,-6,-10,4,6,-4,-4,4,-10
1528875597498082,0,-3,11,2,-4,-4,-21,-8
1528875597500114,0,-1,-7,-10,-9,-3,-8,4
1528875597500114,0,-1,11,25,15,3,0,-9
1528875597512043,0,-2,1,-9,0,9,48,9
1528875597512043,3,-3,-21,-6,17,8,1,7
1528875597521019,-7,-6,-9,-12,-8,-13,0,-5
1528875597521019,-2,1,6,5,-12,-13,-52,-17
1528875597536030,-3,0,4,5,3,-3,-52,-5
1528875597536030,-5,-2,1,5,1,9,61,0
1528875597537014,10,8,-2,-1,-1,-1,4,6
1528875597537014,-6,-4,1,0,-1,-1,-30,-10
1528875597558576,-3,4,-8,2,1,-6,-15,1
1528875597558576,-2,0,5,-10,-10,-3,-18,-5
1528875597560313,-1,5,12,8,4,3,17,-4
1528875597560313,-3,0,7,6,-6,0,13,0
1528875597571572,-1,-7,-28,-17,-8,-5,4,9
1528875597571572,6,2,15,15,0,-2,-37,-3
1528875597581886,-3,3,15,9,0,-3,-20,-6
1528875597581886,0,-4,-25,-31,0,9,57,9
1528875597596609,-1,1,1,1,-2,-3,1,2
1528875597596609,1,1,2,-3,-4,-3,-1,-4
1528875597597585,-3,-5,-7,-5,2,4,4,2
1528875597597585,-2,2,7,3,-1,-5,-18,-4
1528875597618087,-4,-2,-8,-1,-3,-2,-11,-9
1528875597618087,3,4,6,2,-1,1,26,2
1528875597620082,-7,-7,-8,-5,-3,-9,-48,-6
1528875597620082,4,5,19,6,1,1,-39,-6
1528875597632368,-2,-7,-15,-15,-6,6,69,12
1528875597632368,5,3,3,8,3,-2,-19,-2
1528875597641347,-2,-9,-10,-9,-6,-3,15,1
1528875597641347,-3,0,-6,1,-1,-4,-19,-4
1528875597654349,-4,4,17,10,4,6,-2,-1
1528875597654349,6,-1,3,-1,-1,-4,-29,1
1528875597663302,-2,-4,-6,8,-2,6,48,4
1528875597663302,-3,-3,-10,-16,-6,-5,-25,-5
1528875597677251,1,0,2,-6,-3,2,30,5
1528875597677251,-4,-8,3,6,-1,0,0,3
1528875597684240,-3,-1,-8,-1,-2,-6,-1,-10
1528875597684240,1,1,11,10,-1,-4,-1,3
1528875597701186,2,4,9,8,8,3,-22,-10
1528875597701186,-4,-10,-21,-13,-4,-7,-6,-3
1528875597702188,4,6,15,3,1,4,40,11
1528875597702188,-4,-6,-9,4,-4,3,19,0
1528875597714185,2,0,5,-5,3,-6,-22,-4
1528875597714185,-1,-3,-5,0,0,1,9,4
1528875597723129,0,2,-6,-4,2,0,-2,-3
1528875597723129,1,-1,-7,-1,0,1,25,7
1528875597738088,3,12,20,19,8,5,3,-3
1528875597738088,-4,-3,-6,-5,-5,-5,-32,-15
1528875597744124,2,-1,-8,-6,3,5,21,11
1528875597744124,-1,-8,-4,0,-1,2,2,-1
1528875597761081,-2,-3,8,3,-4,-5,2,1
1528875597761081,0,1,-10,-6,-7,-15,-73,-10
1528875597762078,-2,5,13,-1,1,17,94,5
1528875597762078,3,1,6,11,6,5,13,3
1528875597774046,-1,-10,-25,-12,-1,-1,-23,3
1528875597774046,-3,-2,7,-6,-11,-8,1,-1
1528875597784008,-3,-6,-14,-6,-6,-16,-53,-11
1528875597784008,-2,7,12,-3,0,4,20,-1
1528875597797987,0,2,0,1,2,-2,-1,6
1528875597797987,-8,-5,-5,-7,-8,-2,10,-11
1528875597804925,1,3,1,-4,-7,-8,-27,-2
1528875597804925,-2,-6,1,1,-4,-16,-54,-10
1528875597820866,3,-2,-9,-6,0,20,75,16
1528875597820866,-2,-1,-8,5,3,5,14,0
1528875597822860,3,7,11,1,1,-7,-56,-3
1528875597822860,-4,-10,-23,-9,-3,-3,9,1
1528875597834829,-1,3,3,-2,0,-7,9,-8
1528875597834829,5,6,17,12,9,11,-1,4
1528875597843861,-4,-11,-25,-10,-1,-2,-19,-5
1528875597843861,1,5,12,3,-3,-1,27,0
1528875597857822,-2,-4,-14,-5,-7,-13,-37,1
1528875597857822,2,5,15,3,2,14,88,8
1528875597864806,2,0,9,8,4,-5,-30,0
1528875597864806,0,3,5,4,-3,11,31,8
1528875597880761,-5,-6,-12,-10,2,-3,-57,-16
1528875597880761,5,2,7,10,5,10,46,17
1528875597882756,3,-5,-7,-8,-9,-14,-54,-2
1528875597882756,-5,-4,-10,-8,-1,1,50,3
1528875597910682,-4,-9,4,11,4,-1,-49,-8
1528875597910682,-5,1,2,-3,-8,-5,33,-12
1528875597912676,-2,6,9,2,7,4,13,17
1528875597912676,1,3,8,2,-6,-11,-57,-12
1528875597917608,5,4,-4,1,-1,6,76,13
1528875597917608,-5,-7,-4,0,2,-10,-90,-17
1528875597924589,0,0,4,2,3,7,57,-10
1528875597924589,-3,-3,-16,-8,-2,-5,-5,-8
1528875597940566,-6,0,9,2,-7,-7,-18,-18
1528875597940566,0,-1,-6,-1,-1,-10,-52,-7
1528875597942542,-2,1,6,3,-5,2,54,1
1528875597942542,-1,-4,0,-4,-3,-5,-53,5
1528875597963537,-5,1,10,1,-4,1,23,-10
1528875597963537,-1,-5,-25,-12,-4,-4,6,1
1528875597964535,-5,-5,-10,-5,-6,-6,-30,-12
1528875597964535,-7,-5,7,8,6,0,0,-1
1528875597976489,8,-1,-9,-12,-8,-4,-27,5
1528875597976489,-3,1,3,-3,-2,0,32,12
1528875597986451,-6,-5,-4,0,0,-7,-35,-14
1528875597986451,-4,-4,-3,1,-4,5,52,-1
1528875598000422,2,4,14,10,3,-4,-54,-1
1528875598000422,0,1,-7,-5,3,8,14,1
1528875598002440,2,0,3,-1,-2,-6,-2,5
1528875598002440,5,5,6,3,1,0,-11,-2
1528875598023351,-2,-2,-17,-8,1,0,13,-3
1528875598023351,3,1,6,3,1,3,4,6
1528875598025321,-3,-5,-5,-3,-1,3,20,1
1528875598025321,3,1,4,2,2,-2,-31,-4
1528875598037526,-4,-4,-10,-10,-3,-1,23,4
1528875598037526,1,-2,-9,-3,1,-4,-11,0
1528875598046606,-3,0,9,3,-2,-1,-2,-5
1528875598046606,2,6,1,2,5,4,15,5
1528875598060507,-1,-6,9,5,3,5,-5,0
1528875598060507,0,1,9,6,1,0,22,6
1528875598062502,-4,0,-7,-9,-5,-3,-24,-4
1528875598062502,0,1,-19,-9,-2,-1,2,-3
1528875598083686,-1,-7,11,7,0,1,11,4
1528875598083686,-1,-1,-3,-4,-1,-5,-16,-4
1528875598085599,3,0,2,0,2,8,20,3
1528875598085599,3,2,7,3,2,5,19,1
1528875598097676,-2,0,-8,-6,-5,-9,-22,2
1528875598097676,-4,-2,2,0,-3,-2,-7,-13
1528875598106631,-2,-3,-14,-8,-1,-1,1,0
1528875598106631,-4,-9,8,2,-1,-4,-15,-4
1528875598120881,-1,-3,-21,-9,-5,-4,5,-2
1528875598120881,0,2,4,2,0,2,-10,3
1528875598122999,0,0,-5,-2,-1,1,-2,2
1528875598122999,0,2,-2,-3,-1,2,3,-2
1528875598150886,-1,4,10,4,-2,-7,-11,-1
1528875598150886,-1,-1,6,1,-1,-3,-1,-1
1528875598152618,-1,-4,-19,-6,0,2,7,-4
1528875598152618,-1,-1,2,0,-1,0,2,4
1528875598157683,-1,-1,3,-3,0,-1,2,-1
1528875598157683,-1,-1,-1,-5,-4,-1,-1,-1
1528875598166681,-1,1,11,4,-2,-3,-12,-6
1528875598166681,0,5,-3,0,0,-1,3,0
1528875598181573,2,6,14,9,4,6,6,-1
1528875598181573,-3,-9,-26,-15,-6,-3,-4,1
1528875598182539,-1,-4,-2,5,-3,-2,0,-2
1528875598182539,-3,-6,-8,-8,-1,-6,-5,-2
1528875598203730,-2,0,-1,0,-1,-1,-1,-2
1528875598203730,2,-2,4,6,2,-1,-4,3
1528875598204482,-1,1,0,2,2,5,9,0
1528875598204482,-1,1,2,0,-2,-3,-4,1
1528875598217624,1,5,-3,-1,1,-1,-11,0
1528875598217624,-3,-3,6,2,-2,-3,7,-2
1528875598226690,-1,-3,-4,-2,-1,3,13,0
1528875598226690,0,-1,-2,-3,-1,-3,-7,-1
1528875598240956,0,-2,-3,-2,-3,-1,9,-1
1528875598240956,-1,0,0,3,-2,-1,-13,-2
1528875598242952,-1,1,-1,1,1,-3,-12,-2
1528875598242952,1,0,-3,-2,-3,3,21,4
1528875598264057,0,5,-8,-4,1,2,4,1
1528875598264057,-2,2,-2,-1,0,2,19,1
1528875598264922,0,3,5,1,3,-2,-21,-4
1528875598264922,0,-4,-3,-4,-2,-5,0,0
1528875598276857,-3,-4,1,0,-1,-1,-7,-2
1528875598276857,1,0,-1,-2,0,0,-1,-1
1528875598286087,6,1,-1,-4,-3,-1,10,2
1528875598286087,-3,-4,-5,-2,2,0,-13,-2
1528875598300609,3,-1,-2,11,-1,-1,9,0
1528875598300609,-3,2,8,-25,-3,-3,-6,-2
1528875598301683,-4,-5,-30,-20,-7,-5,-4,-2
1528875598301683,-2,-2,8,12,-2,-1,1,-3
1528875598322810,-3,-1,-5,-16,0,-3,-8,-2
1528875598322810,-1,0,2,17,-1,-1,3,1
1528875598323547,2,3,7,4,-2,-3,0,1
1528875598323547,-2,0,-2,-4,1,0,-2,1
1528875598344746,-1,-5,-4,0,-3,1,1,1
1528875598344746,1,-4,1,4,-1,-1,-5,-1
1528875598345743,-2,-5,2,-10,-2,-1,1,-1
1528875598345743,-2,-5,-5,4,-3,0,-3,-3
1528875598360708,-2,-4,2,-3,-2,-1,-9,-2
1528875598360708,0,-4,-3,1,-1,-2,1,1
1528875598360708,-1,-3,5,5,2,1,-2,1
1528875598360708,-1,1,-3,-5,0,-1,-6,-4
1528875598382908,-1,0,-2,-2,-3,-1,16,-1
1528875598382908,1,0,-3,-2,1,0,-4,0
1528875598383642,-2,1,0,6,3,2,-3,0
1528875598383642,-1,0,-3,-4,-3,-6,-19,-5
1528875598404932,-2,-3,0,-1,-6,-8,-3,-3
1528875598404932,-3,1,1,3,-2,-4,6,-4
1528875598405930,-3,0,-6,0,2,0,-20,-5
1528875598405930,0,-3,-4,-1,-1,-1,12,0
1528875598419892,0,2,-5,-7,-7,-3,-15,-2
1528875598419892,-1,-1,-1,1,-2,-4,-11,-2
1528875598420898,-6,3,1,1,0,1,29,-1
1528875598420898,-2,-4,-2,-3,-2,-1,-7,-2
1528875598443073,-1,2,-4,0,-1,-1,-4,1
1528875598443073,0,0,0,0,1,1,-3,-2
1528875598443841,0,-2,0,-2,-5,-4,-7,-3
1528875598443841,0,2,0,-2,-3,-4,-4,4
1528875598465331,-3,-2,-1,1,1,2,11,-8
1528875598465331,2,1,4,-1,2,1,7,5
1528875598466066,2,-5,11,4,1,1,-5,1
1528875598466066,-1,2,-4,-5,-2,0,9,0
1528875598480029,-1,-3,-2,0,-2,-2,-11,-3
1528875598480029,-4,-1,-5,0,-2,-2,0,-2
1528875598481032,-1,-1,-2,-1,-3,-3,-2,-2
1528875598481032,0,1,2,0,4,2,-8,-3
1528875598503233,0,0,-3,-1,0,-4,0,3
1528875598503233,-2,-1,-13,-6,-6,-4,2,-7
1528875598504143,-2,-3,0,0,0,2,7,2
1528875598504143,-1,-1,-3,0,-1,0,-2,-2
1528875598525269,-5,-1,0,2,5,7,4,-1
1528875598525269,0,-3,-2,-1,-4,-8,-11,-1
1528875598533181,-2,1,-1,-3,-4,-3,-1,-3
1528875598533181,-2,-1,-1,-2,-4,-2,9,-3
1528875598539885,1,1,-8,-3,0,1,-2,0
1528875598539885,2,1,9,0,1,2,-3,1
1528875598540868,-3,-2,-1,-1,2,1,-2,-1
1528875598540868,-1,-1,1,0,-4,-4,-2,-1
1528875598562807,0,0,-3,-3,-3,-1,-3,-3
1528875598562807,-2,-2,-4,-1,2,1,-1,-3
1528875598563805,0,0,-1,-1,-1,-1,-1,2
1528875598563805,-2,0,4,-1,1,1,2,1
1528875598585787,-1,-2,-5,-3,0,-2,-4,-1
1528875598585787,1,-1,-2,0,-1,-1,3,1
1528875598586616,-1,-1,-1,-1,-4,-4,-1,0
1528875598586616,0,-2,-1,1,6,4,0,-1
1528875598600828,0,-2,3,1,-2,-1,2,-2
1528875598600828,-1,-2,-2,-1,1,2,0,0
1528875598600828,1,3,-1,-2,-1,-2,-2,-1
1528875598600828,-2,-3,-7,-2,-6,-3,-1,-2
1528875598623338,-1,-3,7,-4,1,-2,-6,0
1528875598623338,1,-2,8,2,1,2,5,0
1528875598623338,-2,0,-3,-2,-3,-3,-6,-1
1528875598623338,1,0,-1,0,1,0,1,0
1528875598645531,-2,-1,-2,-6,-4,-5,-6,-2
1528875598645531,-1,0,-3,1,0,-1,4,2
1528875598645531,-2,-4,-1,-2,1,0,-5,-5
1528875598645531,-1,0,5,11,-1,-2,-3,-2
1528875598660760,-1,-4,-1,1,-3,-1,1,1
1528875598660760,0,0,-2,-2,-1,-1,-1,-1
1528875598660760,0,0,0,2,0,-1,1,1
1528875598660760,0,-1,0,0,-3,-3,1,-1
1528875598683263,0,-2,2,2,0,-1,-1,-2
1528875598683263,-2,0,-2,-1,0,0,0,-1
1528875598683263,-1,-4,2,1,-2,-1,1,1
1528875598683263,-1,-3,3,-1,1,0,-7,-6
1528875598704934,-1,3,-9,-3,2,0,-3,-1
1528875598704934,-1,0,10,1,-1,1,0,1
1528875598705931,0,-2,-4,-1,-2,0,-2,-3
1528875598705931,-1,-1,-3,-5,0,0,4,-1
1528875598720135,0,2,0,0,0,0,1,0
1528875598720135,-4,0,-8,-3,-5,-7,-22,-12
1528875598720891,0,1,-2,0,0,2,9,4
1528875598720891,0,-2,-2,-5,-1,2,10,1
1528875598743279,0,-2,3,2,0,-3,-27,-2
1528875598743279,-5,-1,-5,-4,-4,-1,20,-1
1528875598743279,5,1,2,-1,1,2,31,15
1528875598743279,-3,-1,-2,-1,-1,-1,-13,-7
1528875598766386,-1,0,-1,-3,-3,-4,-12,-7
1528875598766386,-1,-3,-4,1,1,0,-33,-5
1528875598767214,-7,-4,-5,-5,-4,-3,1,-3
1528875598767214,1,0,-2,0,-2,-2,10,4
1528875598780504,3,-1,-1,3,1,0,0,0
1528875598780504,-3,-4,-3,-3,0,-1,9,3
1528875598781718,-1,-1,2,2,1,-2,-23,-11
1528875598781718,3,1,-1,-3,0,-4,-34,2
1528875598811399,-3,-2,0,-1,-2,0,46,-2
1528875598811399,1,-1,-3,-2,-3,-2,14,10
1528875598812045,-1,2,0,2,-2,3,9,1
1528875598812045,0,-1,-2,-3,-4,0,-15,-6
1528875598826268,-3,-3,-1,-2,-2,-8,-30,2
1528875598826268,4,-1,0,1,3,3,31,2
1528875598827272,0,-2,-1,-2,-1,-2,-8,2
1528875598827272,-2,0,-2,-2,0,0,0,1
1528875598849016,1,-1,1,0,1,1,2,1
1528875598849016,-1,-1,1,0,-1,-1,-5,-2
1528875598849016,-2,-3,0,-1,-1,-3,-16,-5
1528875598849016,-1,-2,-4,-3,-2,-1,14,0
1528875598863392,1,-1,-3,-1,-1,0,4,1
1528875598863392,-1,-1,0,-3,-1,-1,-12,-3
1528875598863392,-3,-5,-3,-1,-1,-3,0,-3
1528875598863392,-1,-2,0,-1,1,-3,0,-1
1528875598886418,-1,-1,1,1,1,0,8,1
1528875598886418,-2,-1,0,1,-1,-3,-7,-3
1528875598887338,-1,-2,-1,-2,-1,-2,-6,-2
1528875598887338,-2,1,-2,-1,-3,-2,5,3
1528875598900386,-4,-3,-8,0,0,1,-3,-1
1528875598900386,-1,1,0,-1,0,0,1,-2
1528875598901122,1,-1,-2,-1,-1,-1,-2,0
1528875598901122,-2,1,-1,-2,-3,-2,2,-3
1528875598922642,-1,-1,-1,-1,-1,1,3,-2
1528875598922642,-1,0,-1,-1,-2,-1,-8,-1
1528875598923376,-1,1,-1,-1,0,0,1,-3
1528875598923376,-3,-2,-1,-2,0,0,1,0
