timestamp,emg1,emg2,emg3,emg4,emg5,emg6,emg7,emg8
1528885217353071,-1,0,-1,0,0,0,-1,-1
1528885217353071,-2,-4,-2,0,-2,-1,-2,-2
1528885217360052,0,0,-1,-2,-1,-2,-2,-2
1528885217360052,-2,0,-2,-2,-2,-1,-2,0
1528885217375012,3,-1,0,-2,1,-1,0,2
1528885217375012,-4,-1,-2,0,-3,0,-1,-3
1528885217390970,-2,-3,-3,-1,0,0,-1,-1
1528885217390970,-2,-1,0,-1,-1,-1,-1,-1
1528885217400943,-3,-2,0,0,-1,-1,-1,-1
1528885217400943,-1,-1,0,-1,0,-2,-1,1
1528885217412912,0,-2,-1,-1,-2,-2,0,-2
1528885217412912,2,-1,-2,-1,0,-1,-1,0
1528885217427871,-1,-1,-2,-1,-1,-1,-1,0
1528885217427871,1,-1,-2,-1,1,0,-2,0
1528885217442840,-3,-1,0,-1,-1,-2,-2,-1
1528885217442840,1,-1,0,-1,-2,-1,0,-1
1528885217458789,0,0,-2,-2,0,-1,-2,0
1528885217458789,-2,-1,1,1,1,-1,1,0
1528885217464774,0,1,2,-1,-2,-2,-1,-2
1528885217464774,-1,-1,-3,-2,-4,1,2,0
1528885217487711,-2,-3,-22,-2,7,5,1,-2
1528885217487711,-3,-5,0,-6,-3,1,-1,0
1528885217494693,0,-1,3,14,-1,-6,-2,-1
1528885217494693,2,-2,-4,-16,1,-1,-3,-1
1528885217512645,-2,1,7,7,5,3,1,2
1528885217512645,-4,-1,-2,1,-8,2,0,-4
1528885217517631,-4,-4,5,10,6,-5,0,-3
1528885217517631,-3,-2,-2,8,9,2,1,-1
1528885217532591,0,2,-1,-4,-14,2,-2,-3
1528885217532591,2,-2,-4,-5,13,-1,1,2
1528885217547552,0,-1,2,-7,0,-14,-3,0
1528885217547552,-2,-3,-4,-2,0,4,-5,-2
1528885217555531,-6,-2,-5,-6,4,9,2,-4
1528885217555531,9,2,1,3,5,7,2,5
1528885217570490,-7,-2,1,-3,-12,-1,1,0
1528885217570490,7,2,2,3,-7,-16,-4,-3
1528885217577471,-9,-1,-4,0,10,-11,-4,-4
1528885217577471,-6,-3,-8,-5,-4,11,-2,-5
1528885217592431,2,2,5,6,16,11,-2,4
1528885217592431,-6,1,1,4,-1,-7,0,-3
1528885217610383,2,4,1,0,6,4,-3,-2
1528885217610383,-3,-2,1,16,30,32,4,-2
1528885217615371,7,1,2,6,14,21,38,7
1528885217615371,-10,-3,2,0,-15,-18,-28,-3
1528885217630377,2,-2,0,-2,-1,-9,-2,-3
1528885217630377,-5,3,-3,-11,-18,-18,-7,-1
1528885217637359,7,1,-3,-10,-21,-11,2,-2
1528885217637359,-1,0,0,7,15,16,15,0
1528885217652299,6,2,0,1,5,-2,0,9
1528885217652299,1,1,2,-1,3,-4,-14,-17
1528885217675257,14,-4,-3,-3,11,-17,-20,10
1528885217675257,-34,-2,-4,-18,-17,42,26,-11
1528885217682192,4,9,5,17,41,-7,-13,-3
1528885217682192,17,-3,-3,3,12,-5,-2,-4
1528885217690197,-19,8,5,0,-35,-6,12,-13
1528885217690197,0,-10,-5,-9,-16,-28,-14,12
1528885217697203,-8,-6,-2,-15,-24,-17,2,-14
1528885217697203,3,2,-4,5,59,37,-20,11
1528885217712112,8,7,3,12,-1,11,16,2
1528885217712112,5,1,-4,6,16,-33,-33,-5
1528885217720142,-14,-1,5,1,6,9,23,-13
1528885217720142,9,2,3,10,9,46,17,5
1528885217727124,-4,1,4,8,20,15,-4,1
1528885217727124,-5,-3,3,-1,-28,-2,-1,-5
1528885217735068,8,4,-9,-20,-33,-44,-20,6
1528885217735068,-5,-3,-7,-25,-43,-47,-6,-10
1528885217750063,-9,-7,-1,-3,-5,9,4,-3
1528885217750063,13,-1,2,16,42,22,9,6
1528885217756992,-1,6,-1,0,3,6,-10,11
1528885217756992,-11,-16,-5,-2,-15,-15,8,1
1528885217772949,22,-3,-2,-6,2,-4,4,6
1528885217772949,-24,-8,-9,1,6,-9,-1,-6
1528885217779978,-8,-10,2,6,15,21,3,-2
1528885217779978,-2,18,4,-8,-38,-15,-7,-1
1528885217794890,13,-1,2,0,-3,16,6,7
1528885217794890,-12,-9,-3,-7,-26,-31,-16,-5
1528885217809851,2,3,3,-6,-6,-7,-4,-4
1528885217809851,6,13,9,4,1,19,-12,3
1528885217817829,-25,-6,-11,-2,12,1,-13,-7
1528885217817829,20,-3,4,2,6,4,-6,-3
1528885217832789,-7,4,-9,-2,3,-3,6,-9
1528885217832789,3,10,3,-3,-21,-5,2,-1
1528885217839808,-4,-10,3,4,-9,-13,-9,1
1528885217839808,-4,8,-5,16,31,24,17,2
1528885217854758,4,5,5,9,3,-6,-2,-1
1528885217854758,-8,1,4,5,13,8,4,-2
1528885217869692,0,-12,-7,-6,-7,-1,-10,2
1528885217869692,5,1,-3,-6,-4,-6,3,5
1528885217877669,12,-3,-3,-12,-12,3,1,1
1528885217877669,-29,0,-5,-22,-54,-28,-8,-9
1528885217892629,-3,4,4,21,59,27,4,0
1528885217892629,11,12,7,-20,3,3,7,6
1528885217899610,-2,-2,2,28,5,7,5,0
1528885217899610,3,-1,9,45,38,-4,-3,0
1528885217914773,18,3,-8,-15,-14,-4,-4,4
1528885217914773,4,8,10,-3,-18,-3,1,-3
1528885217937561,-4,-11,2,4,28,-25,-22,-4
1528885217937561,1,-6,-7,12,48,41,22,5
1528885217945488,-12,-6,-2,-7,-22,-4,6,-4
1528885217945488,2,-6,-10,-29,-30,-36,-15,-3
1528885217960449,2,5,-2,-17,-30,-44,-7,1
1528885217960449,0,-13,4,1,-22,-1,3,-1
1528885217967482,-4,-6,0,1,10,8,2,0
1528885217967482,-2,-9,-9,-36,-4,41,17,4
1528885217990404,1,0,-5,6,11,-1,15,-6
1528885217990404,-4,-6,-9,-28,-58,-42,0,-8
1528885218005365,4,-2,17,16,15,1,0,-2
1528885218005365,-7,-7,-27,-42,-80,-56,-17,-3
1528885218020324,-7,-3,-2,-1,24,13,1,-5
1528885218020324,2,0,-2,-18,-8,14,5,-5
1528885218035517,-2,0,4,17,24,9,18,2
1528885218035517,8,-1,7,52,65,39,7,5
1528885218042786,-2,-15,-10,-20,-65,-32,-13,1
1528885218042786,-6,-22,-21,-24,-45,-31,-23,-15
1528885218049764,1,3,-8,-23,-8,1,-11,-3
1528885218049764,3,-2,17,28,92,40,4,-1
1528885218064725,-11,-5,-5,-23,-54,-29,-8,-2
1528885218064725,-5,-3,-5,26,20,9,-5,-6
1528885218079683,-17,9,-11,-22,-38,-26,-15,-5
1528885218079683,-5,-2,15,20,34,23,17,4
1528885218094648,2,14,3,23,-33,-8,-3,0
1528885218094648,-2,-2,1,-2,-14,-12,-2,-1
1528885218103057,10,-10,2,10,55,26,3,4
1528885218103057,1,2,-19,-54,-93,-65,-25,-5
1528885218124598,1,-6,-7,-29,-26,16,4,3
1528885218124598,2,-3,2,16,18,2,-3,2
1528885218139562,6,5,2,-5,-45,-34,-17,-6
1528885218139562,-3,1,-7,15,15,-11,-3,-5
1528885218147521,-1,7,13,24,26,22,5,5
1528885218147521,1,12,-10,-19,5,6,1,1
1528885218162709,-6,-3,-6,16,6,0,-3,-2
1528885218162709,7,40,15,-80,-52,2,1,3
1528885218170442,-6,-13,23,79,81,2,0,-3
1528885218170442,-5,-20,1,-30,-7,9,0,-3
1528885218177654,15,38,-25,-72,-60,-16,-8,-1
1528885218177654,-2,-3,29,97,68,14,4,-1
1528885218192382,8,-4,16,44,59,22,15,9
1528885218192382,-17,-38,-24,-55,-47,-15,-12,-10
1528885218200391,6,0,10,6,44,7,2,3
1528885218200391,-10,0,-29,-117,-118,-18,-11,-11
1528885218222315,-10,-25,-1,82,56,9,6,-1
1528885218222315,-6,-6,5,-69,-29,-10,-4,-2
1528885218231280,5,5,-7,44,22,9,7,5
1528885218231280,-2,28,-28,35,-40,-21,-17,-13
1528885218260203,-2,5,-12,-59,-40,-18,-9,-6
1528885218260203,9,29,-26,42,-12,2,4,2
1528885218275661,3,-20,-18,-61,-16,4,3,1
1528885218275661,-8,-35,32,-56,10,12,9,5
1528885218290411,-6,6,-9,38,-52,-19,-13,-9
1528885218290411,3,-10,-26,-30,-40,-11,-7,-5
1528885218297390,-19,-22,-17,69,-20,-13,-8,-7
1528885218297390,7,-4,36,7,48,16,7,4
1528885218312353,1,-4,2,-64,-46,-1,-1,-2
1528885218312353,-4,14,-7,74,77,9,4,2
1528885218335636,-7,-1,13,-31,-9,10,4,-2
1528885218335636,13,-4,-5,-43,-6,2,1,2
1528885218349631,-11,-7,2,33,21,9,5,-1
1528885218349631,8,15,25,5,22,6,1,6
1528885218365306,-7,5,-3,-10,-7,-4,-2,-2
1528885218365306,-3,-6,-3,-15,-10,0,-1,0
1528885218380545,-3,0,7,2,-1,-15,-6,-4
1528885218380545,5,8,1,-19,11,20,7,7
1528885218395827,8,9,10,78,66,14,6,1
1528885218395827,-2,-3,10,32,24,7,2,2
1528885218410795,-2,-7,-11,-9,-43,-5,-5,-2
1528885218410795,3,-5,-1,-21,20,16,2,1
1528885218424987,0,-3,0,-26,-6,5,9,6
1528885218424987,-8,-3,1,-5,-17,-8,-3,0
1528885218432962,-4,0,-5,-7,-2,-3,0,-1
1528885218432962,8,7,2,2,10,6,-3,-1
1528885218447666,-2,-10,-1,-4,-5,-13,-4,-5
1528885218447666,-9,0,3,-3,-10,-4,-10,-8
1528885218455207,8,6,-5,10,6,-5,14,0
1528885218455207,-2,9,-3,-12,-2,33,-10,2
1528885218470345,0,1,31,19,0,-7,-4,10
1528885218470345,2,-10,-33,1,1,-4,-1,-12
1528885218485229,-4,9,-51,-30,-15,-7,-8,-2
1528885218485229,0,14,15,-43,-53,-16,-9,0
1528885218493182,-9,3,-33,41,52,9,4,2
1528885218493182,4,1,58,15,17,-1,3,-2
1528885218508238,0,-19,4,26,11,8,-3,-3
1528885218508238,-3,-22,-39,-25,-10,-13,-6,-1
1528885218515187,-14,-18,24,0,-22,0,-5,-15
1528885218515187,-1,-16,-36,-6,0,-3,12,12
1528885218537125,2,30,81,9,7,4,-6,-2
1528885218537125,-1,12,-92,-37,-9,-4,11,1
1528885218553306,-6,-10,44,-1,-36,-14,-3,-10
1528885218553306,-8,-3,-10,20,23,-16,3,3
1528885218560360,8,-2,0,-4,22,18,1,14
1528885218560360,8,-13,-2,-2,-5,5,6,2
1528885218582661,-6,-1,-68,-33,-1,-3,-8,-13
1528885218582661,4,-17,127,35,-6,5,-5,-5
1528885218590582,-8,-12,-126,-53,-14,-5,4,-7
1528885218590582,-7,-23,31,-6,-17,-18,-22,5
1528885218597641,3,11,-42,5,8,3,1,-2
1528885218597641,-7,-16,-19,-8,12,10,11,-12
1528885218613104,1,-16,-15,12,2,-7,-7,-2
1528885218613104,-2,-26,68,21,3,3,-1,-2
1528885218620867,-2,-52,-86,-52,-16,-9,-13,-6
1528885218620867,1,-36,-1,2,-8,-4,2,-4
1528885218628147,-6,-22,90,32,13,-4,15,0
1528885218628147,-2,-1,-78,-24,1,-2,-11,-7
1528885218635086,-3,-30,21,-13,-16,-14,-28,-23
1528885218635086,-4,40,-3,11,9,9,28,10
1528885218650002,11,-27,-15,-31,-6,9,5,17
1528885218650002,6,22,3,15,3,-2,2,0
1528885218664963,-14,17,3,38,8,-3,2,-17
1528885218664963,3,16,-8,-28,-15,-2,10,10
1528885218679955,-6,11,15,-4,1,2,-6,3
1528885218679955,7,1,6,12,7,-4,6,-6
1528885218694933,-3,11,6,6,-17,-8,-17,-3
1528885218694933,5,2,-18,-7,6,-8,-14,-3
1528885218702912,3,11,24,7,1,10,21,9
1528885218702912,-15,23,19,3,4,6,-2,-12
1528885218717821,9,13,-39,-39,-6,1,-8,8
1528885218717821,4,-31,-12,7,-6,-4,5,17
1528885218732816,-19,-1,-17,-2,1,-19,-4,-1
1528885218732816,-3,15,11,4,0,28,28,-1
1528885218747783,-14,-9,-11,-5,5,3,1,-11
1528885218747783,24,-8,12,9,0,3,-25,-3
1528885218754775,-5,6,-18,-21,-10,-12,-10,1
1528885218754775,-12,-9,-3,1,-4,-2,6,-18
1528885218769736,-1,-17,0,-1,-1,-8,-16,5
1528885218769736,-5,-3,8,6,5,-5,2,-5
1528885218777714,9,6,4,-6,-6,1,-2,3
1528885218777714,-12,-9,-25,-10,-7,-10,-11,-11
1528885218792672,-2,-10,2,-13,-1,8,13,23
1528885218792672,-10,1,27,40,15,10,-2,-11
1528885218814562,-1,8,1,22,-16,3,8,-18
1528885218814562,4,-1,-24,-42,7,-19,-30,-2
1528885218822566,-27,34,13,18,13,24,30,-4
1528885218822566,20,10,-12,-9,-5,-6,3,5
1528885218837546,27,14,14,0,8,0,0,17
1528885218837546,-10,-8,1,5,-13,7,0,-2
1528885218845509,-5,2,9,0,-9,-8,-12,-24
1528885218845509,37,24,-14,-11,-2,-15,-3,24
1528885218860486,-30,-11,-3,-3,9,17,21,-24
1528885218860486,1,51,17,13,-2,0,-13,23
1528885218867480,16,-13,-1,-6,2,-4,11,5
1528885218867480,-1,-8,1,6,4,5,3,18
1528885218875456,-9,2,7,13,-4,-3,-2,-6
1528885218875456,3,0,3,3,-2,0,2,5
1528885218890412,3,-4,-2,6,5,3,-18,-7
1528885218890412,-1,-10,-5,-35,-6,-1,11,-3
1528885218897377,4,37,6,23,6,-3,7,11
1528885218897377,-22,-32,-1,-7,-5,-6,-12,-9
1528885218912352,-4,20,2,11,5,4,1,4
1528885218912352,8,-2,1,3,-16,-15,-5,-6
1528885218927305,5,-1,-21,-19,-10,-7,-4,-8
1528885218927305,-8,-2,8,0,2,10,-1,-6
1528885218935285,-4,-23,-2,-12,-8,-8,0,13
1528885218935285,-7,11,11,14,1,14,14,19
1528885218950238,5,-2,-15,-12,-16,-21,-26,-1
1528885218950238,-10,-40,-2,19,4,1,24,-3
1528885218957431,0,4,10,-5,7,-1,-19,-5
1528885218957431,15,24,-15,-20,0,4,-4,6
1528885218973278,-2,42,7,7,9,10,3,-4
1528885218973278,4,-17,-8,-7,-18,-16,-11,-6
1528885218988230,4,-29,-16,-13,5,9,-3,15
1528885218988230,16,60,14,5,4,4,23,-4
1528885218995451,-1,7,-9,-4,-22,-18,-18,-10
1528885218995451,-2,7,7,-4,-1,-8,-2,-16
1528885219010436,9,-7,1,-20,3,9,1,10
1528885219010436,-17,-12,8,33,21,7,6,5
1528885219018228,-12,-24,-11,-7,-11,-5,-2,-3
1528885219018228,2,10,-2,-5,-17,-2,-4,-13
1528885219032649,-10,-13,-12,-23,-15,-3,16,-7
1528885219032649,1,0,-2,2,6,-10,-17,-9
1528885219047347,0,-9,2,35,9,2,6,-10
1528885219047347,5,12,-15,-37,-28,-11,-14,7
1528885219055590,-5,-9,-28,-61,-12,-3,14,-9
1528885219055590,-12,-1,1,39,20,15,13,4
1528885219070625,4,5,1,10,6,-6,-12,-20
1528885219070625,-9,-1,0,16,-1,-4,1,-4
1528885219077867,-1,2,23,30,0,-2,-13,-2
1528885219077867,1,-24,-7,-6,-2,-5,-7,-2
1528885219092833,0,2,-12,-23,-6,3,5,2
1528885219092833,-10,19,-13,-37,-8,-4,-9,-5
1528885219108064,-9,-5,19,38,22,7,-1,10
1528885219108064,15,-23,0,-43,-7,4,5,2
1528885219114782,-8,25,-4,0,6,1,-5,-3
1528885219114782,4,10,-8,4,-1,-1,3,5
1528885219129761,-6,1,3,5,-5,-2,-10,-10
1528885219129761,17,-5,-6,13,0,-3,18,19
1528885219137764,-18,-1,4,13,6,4,1,6
1528885219137764,-8,-18,-8,-32,-6,-3,-7,-13
1528885219152993,2,2,5,9,-8,-4,0,10
1528885219152993,-11,0,-19,-13,3,-2,-10,-23
1528885219160708,17,-1,23,22,1,-1,9,12
1528885219160708,6,-3,-25,-1,9,7,3,4
1528885219167731,-4,-2,3,-15,-13,-8,-4,-4
1528885219167731,-3,-9,-2,2,-2,0,11,6
1528885219175760,-8,-14,-8,-10,-2,-4,-8,-7
1528885219175760,-10,5,0,-19,-7,0,9,1
1528885219190716,24,-13,-4,-7,1,-2,4,19
1528885219190716,-32,-1,10,21,4,-4,-13,-21
1528885219197634,19,-2,-3,-9,-2,5,-2,16
1528885219197634,-4,-2,7,3,4,-5,3,-1
1528885219205776,3,15,9,13,1,1,-2,-6
1528885219205776,-5,-27,-8,2,6,7,-1,-8
1528885219212812,-7,-10,-11,-16,-12,-3,12,-4
1528885219212812,-10,-1,7,11,2,-6,-14,-10
1528885219227787,7,5,2,1,4,-1,-6,19
1528885219227787,9,0,-9,-4,-1,1,-6,7
1528885219235505,-8,-1,-3,5,3,3,1,1
1528885219235505,-22,6,9,-4,-8,-3,4,2
1528885219250375,-6,-25,-3,-10,3,3,2,-6
1528885219250375,-9,-1,11,14,0,-1,5,25
1528885219258317,14,9,-15,-5,3,0,-5,-22
1528885219258317,-6,19,24,4,-2,-7,-17,-18
1528885219265309,-1,6,-11,-19,-9,-3,-7,-11
1528885219265309,16,-3,0,13,-5,-3,13,15
1528885219272280,-7,5,0,-1,2,-1,-3,-11
1528885219272280,1,-18,-4,12,14,10,-5,-2
1528885219287540,-28,14,-1,-9,-1,-7,-7,-25
1528885219287540,14,13,3,-2,-1,5,4,3
1528885219295857,-1,-12,6,6,-1,-8,-1,1
1528885219295857,3,3,-9,-13,-10,-2,8,-4
1528885219310807,8,-8,-4,5,4,1,-5,1
1528885219310807,-26,14,1,-4,-7,-8,-15,-11
1528885219318048,-19,-25,-1,-8,-13,-10,-3,-12
1528885219318048,34,-25,-1,12,13,11,-11,14
1528885219324764,15,9,-7,-7,-6,-1,0,-5
1528885219324764,11,2,-10,-6,8,3,9,10
1528885219332763,-7,7,9,0,-2,5,6,5
1528885219332763,14,7,-6,-19,-8,-8,-9,0
1528885219347705,-1,-5,-7,-4,-21,-9,-7,1
1528885219347705,0,-14,-2,11,10,-2,-27,-17
1528885219354714,-8,-4,2,3,18,16,28,16
1528885219354714,-16,1,-4,-7,-6,1,-3,-6
1528885219369644,1,0,-2,0,-8,-11,2,2
1528885219369644,-3,4,5,-1,-1,-7,3,-11
1528885219377634,2,33,4,13,1,3,-3,-18
1528885219377634,-3,4,-3,-20,0,0,3,-1
1528885219384605,2,-2,2,14,9,6,9,5
1528885219384605,-13,12,4,-2,-3,-4,-6,-3
1528885219392831,3,-13,0,12,-2,-2,-8,-7
1528885219392831,4,9,-5,1,-5,-4,-4,-4
1528885219407597,2,1,-16,-17,8,9,12,-2
1528885219407597,-12,-15,13,26,19,12,-3,2
1528885219414575,-5,30,15,0,1,-3,-25,-2
1528885219414575,-5,-3,-7,-1,-13,-3,30,-14
1528885219429777,7,-4,7,0,1,5,4,10
1528885219429777,-24,0,-3,-4,-1,-3,4,-6
1528885219437542,-2,-8,-6,-1,2,4,1,4
1528885219437542,-9,-17,-7,0,-1,0,-8,3
1528885219445756,-4,9,1,-1,3,-3,-9,-13
1528885219445756,5,-20,0,-9,-15,-4,0,-1
1528885219452713,9,2,1,2,-6,-7,-13,2
1528885219452713,-3,-8,-20,-9,1,-4,2,0
1528885219467703,-15,-27,-1,-22,-2,1,13,-2
1528885219467703,12,4,-2,16,-3,-2,-6,4
1528885219475669,-5,-20,-10,-24,-8,-5,-1,-1
1528885219475669,5,0,2,26,8,1,-2,2
1528885219490783,-3,0,2,3,-3,-2,-2,7
1528885219490783,12,8,8,-3,-5,-3,-6,-2
1528885219497658,-7,-5,-9,-3,6,5,5,-2
1528885219497658,1,6,13,30,6,1,3,7
1528885219505880,-9,-3,-24,-55,-24,-10,-12,-6
1528885219505880,-1,0,-6,-1,10,2,1,-5
1528885219512887,6,-6,3,11,-18,-6,1,4
1528885219512887,-1,-6,-2,-9,21,4,-3,3
1528885219527879,-1,4,3,21,5,0,0,-2
1528885219527879,1,-2,-4,-12,-15,-5,1,-3
1528885219535739,4,-1,1,-34,-12,-5,-2,3
1528885219535739,-3,-3,-1,23,2,-6,-4,-3
1528885219549594,0,3,8,13,2,-1,-2,0
1528885219549594,0,0,-5,-5,-4,0,2,-1
1528885219557578,3,-3,-4,7,-2,-5,-4,2
1528885219557578,1,1,1,-16,-11,2,0,2
1528885219564526,-4,0,-1,6,11,5,2,-1
1528885219564526,0,0,5,8,0,-3,-2,0
1528885219572965,2,-4,-17,-33,-7,-4,0,1
1528885219572965,2,3,1,-4,-4,-4,-5,-13
1528885219587463,-3,-1,4,13,0,-2,0,0
1528885219587463,-3,0,3,-6,-1,1,0,-4
1528885219595733,5,0,12,21,9,0,-2,-1
1528885219595733,-6,-5,-25,-16,-5,-1,0,2
1528885219610802,-3,1,3,-9,-9,-2,-2,-5
1528885219610802,-2,1,4,4,1,-2,0,-6
1528885219618120,3,-1,4,4,5,5,0,1
1528885219618120,1,-1,13,22,0,1,2,8
1528885219625451,-2,1,1,-18,1,-1,0,-2
1528885219625451,1,1,0,-2,-2,0,1,0
1528885219633349,0,0,-26,12,14,3,0,-1
1528885219633349,0,-4,11,8,-6,-4,-3,1
1528885219655084,-3,-1,14,-18,-8,-3,-4,-2
1528885219655084,-1,-2,-4,-7,-4,-3,0,-2
1528885219663272,0,-3,7,1,-2,-1,-2,-1
1528885219663272,0,0,-3,-2,0,-2,-1,-1
1528885219678256,-1,0,-4,12,4,0,0,2
1528885219678256,-4,-1,-3,0,-2,0,-1,-3
1528885219685265,-1,1,6,0,1,0,-1,2
1528885219685265,-2,-6,-44,-21,-6,-3,-2,0
1528885219693194,0,1,6,14,2,-2,-2,3
1528885219693194,0,-1,-13,-9,0,1,-1,0
1528885219700245,-3,-4,1,7,2,1,1,-4
1528885219700245,-2,-2,7,-9,-3,0,-2,-1
1528885219707660,8,2,-11,0,-1,-1,0,6
1528885219707660,-5,-3,1,3,-3,-2,-2,-2
1528885219715677,-3,-1,5,0,-2,-4,-2,0
1528885219715677,3,3,30,-1,2,4,0,5
1528885219729637,-3,-1,-20,12,2,0,0,-4
1528885219729637,-2,-2,-11,-17,-6,-5,-3,-2
1528885219737631,-2,-3,-2,-12,-6,-6,-3,-4
1528885219737631,-2,1,0,-7,-4,-2,0,-1
1528885219744600,-1,-1,-3,14,-3,0,0,-1
1528885219744600,4,-1,22,15,13,4,0,1
1528885219752580,-1,-2,3,-8,-2,0,0,1
1528885219752580,1,4,7,7,4,-1,-1,-1
1528885219767538,-1,0,3,-2,-1,4,0,-2
1528885219767538,-8,-6,-1,3,-5,-3,-1,-1
1528885219774520,0,2,16,6,-4,-2,-3,-3
1528885219774520,-3,-5,-17,-17,-8,-6,-3,-1
1528885219790481,-3,-2,7,-1,-3,-2,-2,-3
1528885219790481,1,-1,2,-2,0,0,-1,-1
1528885219797422,-1,2,-26,7,3,1,-3,0
1528885219797422,2,-2,7,-3,-2,0,2,4
1528885219805403,2,-1,-8,0,2,-4,-2,-2
1528885219805403,-2,0,14,-2,-7,-4,0,4
1528885219812382,2,-2,-1,-2,0,-2,-4,-12
1528885219812382,-6,-8,-3,5,3,6,0,0
1528885219827342,-3,-5,-9,1,3,1,-1,1
1528885219827342,1,5,10,-11,-3,-4,-1,0
1528885219835321,4,-2,-31,-1,-3,-4,0,2
1528885219835321,-5,-2,-11,-17,-8,-5,-3,-4
1528885219850795,-4,-1,14,8,-8,-8,-4,-5
1528885219850795,1,-3,-12,-1,0,3,1,-2
1528885219857738,-2,0,8,8,13,6,1,2
1528885219857738,3,-2,7,11,9,0,1,-3
1528885219865382,-2,2,-8,-13,-7,-5,-4,0
1528885219865382,-2,-1,-7,1,-6,-8,-7,0
1528885219873363,-6,-4,6,-8,-14,-2,-2,1
1528885219873363,0,3,4,3,9,-7,-2,-1
1528885219887420,-2,-7,3,6,16,13,-2,-1
1528885219887420,6,30,-13,-1,0,8,8,-3
1528885219895465,-4,-1,13,6,0,6,-4,2
1528885219895465,-1,2,-8,-6,-10,-16,-9,-1
1528885219910428,4,1,-2,-8,-6,-1,5,-4
1528885219910428,-6,-15,-3,1,-1,4,-4,1
1528885219917084,2,-5,0,1,3,7,3,2
1528885219917084,-6,-15,10,-1,-2,-1,-6,-10
1528885219925295,3,-1,15,1,-1,-7,-4,-1
1528885219925295,0,-21,0,-1,-7,-5,0,0
1528885219940284,-2,2,-2,-6,-11,-14,-5,-5
1528885219940284,8,-1,-4,0,3,2,0,4
1528885219948010,1,3,4,5,6,10,2,0
1528885219948010,-5,-4,-1,2,8,2,1,0
1528885219962473,1,-7,-1,-1,-6,-5,-1,0
1528885219962473,10,7,-13,-6,-6,1,3,2
1528885219970407,-9,20,-7,-6,-5,-1,0,-1
1528885219970407,3,11,-6,-2,-3,-6,-4,-4
1528885219985700,-2,-11,-10,-5,-1,-4,-1,-1
1528885219985700,2,-6,-6,-7,-4,-4,-3,-2
1528885220000733,-3,41,25,5,5,2,3,-4
1528885220000733,-1,2,18,2,-1,5,4,0
1528885220008017,0,-8,-18,-4,-2,-4,-1,-2
1528885220008017,1,1,1,-1,0,0,0,-1
1528885220023288,1,-14,-4,-1,0,-2,0,0
1528885220023288,-4,0,0,-1,-8,-3,-3,-5
1528885220030255,-3,1,1,2,0,-2,1,3
1528885220030255,0,-5,-1,2,2,-4,-3,-1
1528885220045627,-2,-9,7,2,1,-2,-2,4
1528885220045627,-5,-31,-8,-3,0,1,1,-4
1528885220060567,-11,-22,4,0,1,1,3,8
1528885220060567,0,4,-3,-1,-1,-1,-4,-15
1528885220069278,-2,-5,2,-3,-2,2,-2,-2
1528885220069278,4,10,1,1,-4,-2,-2,1
1528885220083301,3,-6,-17,-3,2,0,-4,0
1528885220083301,7,-2,3,1,-1,-2,2,4
1528885220090428,-4,-8,-10,1,1,0,0,-2
1528885220090428,0,7,2,2,-1,-1,-3,0
1528885220105839,4,3,43,1,-2,-4,-3,-3
1528885220105839,0,-9,-15,-3,-2,-2,0,1
1528885220120815,-1,2,7,-3,-2,-4,-2,-3
1528885220120815,-3,-8,-6,1,-1,-2,-3,0
1528885220128093,-4,1,-3,-1,0,-1,1,-5
1528885220128093,1,4,-2,0,1,1,0,2
1528885220142989,0,-4,0,0,-1,-1,-2,-3
1528885220142989,-3,-4,-6,-3,-4,-2,0,1
1528885220150263,2,-2,-7,-3,-3,-3,-3,-3
1528885220150263,-1,12,3,3,1,0,1,0
1528885220165261,3,26,-2,-2,-3,-3,-1,0
1528885220165261,0,6,-7,-4,0,0,-1,-3
1528885220180596,1,3,5,1,-1,-2,-1,2
1528885220180596,-5,-9,-7,-2,0,0,-2,-2
1528885220188342,-10,-10,-1,-1,-3,-2,0,0
1528885220188342,7,-2,2,-2,-1,-1,0,6
1528885220202979,2,8,-8,-3,-2,-2,-1,-1
1528885220202979,0,1,-1,-3,-1,-1,-1,3
1528885220210780,7,1,-13,-2,-1,-2,-3,-2
1528885220210780,-3,-2,1,-2,-2,-3,-2,-2
1528885220225717,8,-6,-3,1,-1,1,0,-2
1528885220225717,-4,-4,4,0,0,-2,0,2
1528885220240693,-4,-5,-12,-4,-1,-1,2,-3
1528885220240693,0,1,1,0,-2,-1,-4,-9
1528885220247526,-1,0,2,0,0,0,-2,-1
1528885220247526,-6,-10,-5,0,0,1,0,-2
1528885220262789,-4,-1,-1,0,-1,1,0,-5
1528885220262789,-3,3,2,-1,-1,0,0,8
1528885220270079,-1,-5,-6,-3,-1,-2,0,0
1528885220270079,2,1,3,1,-1,0,-1,-3
1528885220285883,-2,-6,1,-1,1,-1,-1,-1
1528885220285883,-5,1,-1,-2,-1,-3,-1,-1
1528885220299786,-1,-1,4,1,0,-1,-1,-1
1528885220299786,-1,0,0,-1,-1,0,-1,1
1528885220307735,-3,-5,-5,-1,-2,0,-2,-2
1528885220307735,-1,-1,-3,0,-4,1,-1,-2
1528885220322930,2,-5,-5,-2,-1,-2,-4,-1
1528885220322930,8,6,5,1,0,-1,0,1
1528885220330365,-9,-1,-6,-3,-2,-2,1,2
1528885220330365,-3,3,5,-4,-2,-1,-2,-3
1528885220345385,8,4,-2,-2,-2,0,1,5
1528885220345385,2,11,6,1,0,-1,1,1
1528885220352595,1,-5,-6,-2,-1,-1,-2,-4
1528885220352595,-11,-3,-3,0,0,-1,-1,-10
1528885220367829,-5,-3,2,0,0,-1,-1,1
1528885220367829,-2,-2,3,2,0,-1,0,2
1528885220383002,-6,-4,-2,0,-1,-1,-2,-9
1528885220383002,-11,4,0,2,0,0,1,-3
1528885220390229,3,-1,-2,-4,-1,1,-1,0
1528885220390229,1,-3,-3,-2,-2,-2,-1,-2
1528885220405189,-2,1,0,-1,1,-1,0,-3
1528885220405189,-11,-7,3,1,0,0,1,-2
1528885220413191,0,3,-5,0,0,-1,1,-1
1528885220413191,-1,1,-2,-2,-1,-2,-2,-1
1528885220428139,-1,1,-1,0,0,-1,-4,-9
1528885220428139,5,1,-5,-2,-2,-2,-2,5
1528885220443107,-12,-4,-3,1,1,-1,-2,-8
1528885220443107,-4,-23,-3,-3,-3,-1,-2,-1
1528885220450089,1,11,3,0,-2,-2,0,2
1528885220450089,-1,-4,-6,0,1,2,-1,-1
1528885220465830,-1,-6,1,0,-1,-1,-2,-1
1528885220465830,3,0,2,1,-2,1,-2,-7
1528885220487992,6,6,-8,-3,-3,1,-1,6
1528885220487992,-2,6,-4,-2,-2,-2,-3,-3
1528885220495781,2,-6,1,-1,0,-1,-1,1
1528885220495781,-7,-2,3,-1,1,0,0,2
1528885220510781,-4,-8,-1,-1,-2,-2,-2,-2
1528885220510781,-1,5,2,-1,-1,-2,1,-5
1528885220517907,-4,-1,-3,-1,1,-1,2,3
1528885220517907,2,-4,-2,-2,-3,-2,-1,-3
1528885220533199,-6,0,0,2,0,-1,-1,-1
1528885220533199,-1,1,0,-1,-1,0,0,-2
1528885220547198,-2,-6,-2,-1,-1,-1,-1,0
1528885220547198,-2,5,0,0,0,-1,0,0
1528885220563316,-2,-1,0,0,-3,-2,-1,-1
1528885220563316,-4,1,-1,-1,-1,-3,-1,-1
1528885220570746,2,-5,-3,-2,-1,-1,-2,0
1528885220570746,-3,1,1,2,0,-1,-2,-1
1528885220585581,-3,-5,-4,-1,-1,-1,0,-2
1528885220585581,-2,4,1,-1,-2,0,-2,1
1528885220593272,15,0,-1,-3,-3,-1,0,8
1528885220593272,-19,-2,-1,0,-1,-1,0,-11
1528885220608231,1,0,0,-2,-2,-1,1,-1
1528885220608231,3,-3,-1,-3,-2,-1,-1,4
1528885220623228,1,5,0,0,1,1,-1,-9
1528885220623228,2,-1,-5,1,-2,-1,1,14
1528885220630477,-5,0,-1,-2,-1,-1,-3,-6
1528885220630477,0,-5,-4,-2,-3,-2,-2,3
1528885220645749,-3,1,1,0,-1,-1,-1,-4
1528885220645749,-2,0,-3,-1,0,1,-1,-2
1528885220653400,0,-1,-1,2,0,1,1,-3
1528885220653400,1,-2,-1,-2,-1,-2,0,-1
1528885220675585,-1,-2,0,-1,0,0,-1,3
1528885220675585,-1,0,2,-2,-1,1,0,-3
1528885220690537,8,-3,-1,-1,-1,-1,0,7
1528885220690537,-8,2,-1,-2,-1,-2,-1,-11
1528885220697576,-5,-4,1,-2,-2,0,-1,-4
1528885220697576,4,0,-2,-1,0,0,-1,4
1528885220712758,-1,1,-1,2,0,-1,-1,-2
1528885220712758,1,-2,-1,0,-1,-1,-4,-9
1528885220728010,-7,0,0,0,-2,0,0,-2
1528885220728010,1,-2,-1,-3,0,0,-1,-1
1528885220743316,-18,-5,2,0,-1,0,0,-2
1528885220743316,5,0,-2,0,1,1,0,-6
1528885220757939,-1,0,-2,-2,-1,-1,-1,8
1528885220757939,-2,-2,0,0,-1,-1,0,1
1528885220773125,1,-4,-6,-2,-1,-1,-3,-4
1528885220773125,2,0,0,-1,-1,0,-1,1
1528885220780112,-4,-5,-2,-2,-3,-2,-3,-3
1528885220780112,1,-1,-4,-1,-2,-1,0,1
1528885220795093,1,-2,-1,-1,-2,-2,-2,-3
1528885220795093,0,0,-2,1,-2,-3,-2,1
1528885220810567,1,1,1,0,0,-3,1,-4
1528885220810567,1,-2,-1,-1,0,1,2,7
1528885220825802,-6,-3,-2,-2,-1,1,-4,-12
1528885220825802,7,1,-1,-1,0,-1,0,0
1528885220832807,0,1,-2,-1,-2,-1,-2,-1
1528885220832807,0,-3,-1,0,-1,-1,0,1
1528885220847747,-2,0,0,-1,0,-1,0,-6
1528885220847747,-1,-2,-3,-1,-1,-1,-1,-3
1528885220862952,4,-4,-5,-2,-2,-2,0,5
1528885220862952,-1,-2,0,-1,-1,-3,0,-1
1528885220870779,-2,2,-1,2,0,0,0,-2
1528885220870779,-2,-2,1,-1,-1,-2,1,-5
1528885220885744,-4,1,-2,-2,0,-2,-1,3
1528885220885744,-1,1,2,0,-2,-1,0,2
1528885220893192,1,-3,-3,-2,-1,1,-2,-4
1528885220893192,-2,0,-3,0,-2,-3,-3,-1
1528885220907690,-3,0,1,-1,0,-2,0,0
1528885220907690,-1,-2,0,-2,-1,-1,-3,-2
1528885220923252,0,3,1,-2,0,-1,1,3
1528885220923252,-1,-3,0,-2,0,-1,-1,1
1528885220930225,-1,-2,0,-3,-2,-1,-2,-2
1528885220930225,7,1,0,0,-1,-1,1,6
1528885220945844,-19,-5,-1,1,-3,-1,-1,-9
1528885220945844,1,-2,-2,1,-1,1,-1,-2
1528885220953032,-3,-1,-1,0,-1,0,-1,1
1528885220953032,-4,0,-1,-1,-2,0,-3,-1
1528885220967641,-4,0,0,0,-1,-2,-1,-1
1528885220967641,3,-1,-2,-3,-2,-1,-3,-3
1528885220982630,-2,-2,-2,-1,-3,-1,-1,2
1528885220982630,-4,-1,-1,-1,1,-3,-1,1
1528885220990746,5,0,1,0,-2,-1,0,2
1528885220990746,-4,-2,-1,-1,-2,0,-1,-2
1528885221005702,-1,-3,-1,0,-1,0,0,4
1528885221005702,0,0,-3,-1,-2,-2,-3,-3
1528885221012561,2,-2,-1,0,-1,-2,-2,2
1528885221012561,-3,1,-2,-2,-1,0,0,0
