timestamp,emg1,emg2,emg3,emg4,emg5,emg6,emg7,emg8
1528877929959912,0,-2,1,0,0,-2,-1,0
1528877929959912,-2,-1,0,-2,-1,-1,0,0
1528877929967891,-1,-2,-2,0,-2,-1,-1,-2
1528877929967891,-1,-1,0,-2,-2,0,-2,-1
1528877929982850,0,-2,-1,-2,-4,-1,-1,0
1528877929982850,-2,-1,-2,-2,1,1,0,-3
1528877929990829,-1,-2,-3,-1,-2,-1,-1,2
1528877929990829,-1,0,0,-1,-1,-2,0,0
1528877929999806,0,1,1,1,2,0,-1,-1
1528877929999806,-2,-8,-26,-7,-3,-2,-1,-3
1528877930005789,2,-1,6,0,-3,-2,-2,0
1528877930005789,1,0,1,0,0,0,0,-3
1528877930013768,-4,-2,-1,-2,-2,-1,-2,-2
1528877930013768,0,1,-11,-1,1,-1,0,1
1528877930027732,-1,1,8,2,0,0,1,-2
1528877930027732,-1,2,22,4,-1,-2,-2,-1
1528877930044687,-3,-8,-71,-10,-2,-2,0,-2
1528877930044687,-1,0,-9,-2,0,-2,0,-2
1528877930050677,0,-1,36,-1,-3,-2,-1,-2
1528877930050677,1,-1,-6,-1,-1,1,0,1
1528877930057651,1,6,29,6,1,-2,1,-1
1528877930057651,-2,-9,-22,-7,-2,-1,-2,0
1528877930065643,-3,-5,-27,-4,-1,-1,-2,-1
1528877930065643,2,3,16,1,-1,-1,0,3
1528877930080589,-2,2,21,1,-1,-1,0,-1
1528877930080589,0,3,24,1,-1,-2,0,-1
1528877930087583,2,6,16,8,2,-1,0,0
1528877930087583,-4,-8,-12,-13,-6,-2,-3,-1
1528877930102531,-2,-2,-54,-3,-2,1,-1,0
1528877930102531,-2,4,32,6,0,-1,-1,-2
1528877930110535,0,-7,-28,-4,0,-1,-1,0
1528877930110535,0,0,-6,0,1,-1,0,1
1528877930117491,1,0,50,5,0,0,1,-1
1528877930117491,-3,-4,-31,-3,0,1,-2,-2
1528877930125469,2,5,24,7,1,2,0,0
1528877930125469,1,2,-10,1,1,-1,0,0
1528877930143423,-6,-3,-17,-8,-4,-2,-4,-7
1528877930143423,1,1,-10,5,3,0,1,2
1528877930148408,-14,-7,-29,-11,-4,-1,0,-2
1528877930148408,21,4,4,4,-1,1,-1,-3
1528877930162381,0,-1,10,4,2,0,-2,1
1528877930162381,-1,0,-20,-3,-4,-3,-2,-6
1528877930170350,-3,-3,3,-4,-2,-1,0,10
1528877930170350,-4,1,23,-1,-3,-1,-1,-5
1528877930177384,0,1,-5,-1,1,1,2,-1
1528877930177384,-3,-10,-35,-7,-4,-1,-3,5
1528877930186333,14,1,25,3,0,0,1,31
1528877930186333,-17,0,-19,-2,0,-4,1,-17
1528877930207266,-1,1,-9,1,0,-1,-3,-3
1528877930207266,-9,2,4,1,0,-4,-7,1
1528877930215240,20,2,43,5,0,-8,3,15
1528877930215240,-4,-8,-28,-6,-5,2,-1,2
1528877930223223,17,7,16,6,3,18,7,9
1528877930223223,4,-19,-74,-20,-5,-2,-8,-10
1528877930238167,-13,3,-1,4,2,2,5,-9
1528877930238167,-12,3,34,4,1,-14,-3,-14
1528877930245149,-6,-6,19,-8,-5,-19,-31,-32
1528877930245149,15,-1,-16,0,-1,-5,9,10
1528877930260109,-12,3,2,3,3,32,40,-61
1528877930260109,18,6,25,4,-2,-31,-16,-5
1528877930275069,-9,-6,-12,-3,-1,6,8,-25
1528877930275069,-3,3,4,0,0,9,-14,36
1528877930283048,52,5,2,3,4,23,13,31
1528877930283048,-4,2,12,2,0,-7,-8,0
1528877930298019,-3,-4,-27,-10,-1,4,-6,-11
1528877930298019,3,0,-4,-2,-5,2,16,-8
1528877930304989,-7,-3,-14,-6,-3,-19,-25,20
1528877930304989,-3,3,4,3,-1,8,19,-3
1528877930319949,0,1,4,2,-2,-17,-16,-3
1528877930319949,0,-18,-2,-10,-2,0,1,-8
1528877930334909,-10,15,31,-1,-4,-3,-4,3
1528877930334909,3,0,22,12,0,4,8,-4
1528877930342891,-15,-14,22,-14,-19,-13,-4,-5
1528877930342891,-12,-8,-13,17,15,9,-4,0
1528877930357848,0,-9,-93,-75,-27,-7,-4,-1
1528877930357848,5,-1,41,55,25,8,3,-8
1528877930364830,-6,-5,-31,-30,-8,-10,-5,6
1528877930364830,1,25,60,34,-5,2,0,3
1528877930379789,1,-17,27,-6,13,2,3,1
1528877930379789,3,17,-50,-12,-12,-6,-3,-4
1528877930395759,5,20,99,94,-6,-5,-6,-6
1528877930395759,3,-6,-58,-114,-3,2,2,1
1528877930402728,0,5,8,41,38,9,5,5
1528877930402728,0,-1,60,-12,-21,0,1,-1
1528877930417688,0,-12,-33,26,-2,1,-2,0
1528877930417688,3,22,57,36,-9,-6,-1,-3
1528877930425666,-3,-8,-54,-16,-17,-8,-4,3
1528877930425666,-9,-7,-40,-36,-4,-3,-7,-8
1528877930440627,2,-6,-41,-14,7,5,5,7
1528877930440627,-3,3,4,-2,-8,-5,-5,-6
1528877930455587,-3,-10,-72,-45,12,3,1,-1
1528877930455587,-7,-11,-32,26,25,5,-2,-4
1528877930462568,-2,1,69,39,-24,-12,-7,1
1528877930462568,1,5,-37,-8,24,8,3,1
1528877930477530,0,-5,-10,10,0,-3,0,0
1528877930477530,0,11,99,11,-17,-7,-4,-4
1528877930485507,-4,-1,-45,-7,-6,-7,-4,-2
1528877930485507,-4,-7,-19,-11,7,11,4,-1
1528877930500473,3,-10,-14,-21,-20,-10,-4,1
1528877930500473,2,3,-7,-6,24,8,6,0
1528877930515429,0,7,14,-9,-5,-5,-10,-1
1528877930515429,-3,-11,-7,0,-5,6,11,-2
1528877930522410,-2,4,37,2,-6,-40,-31,-1
1528877930522410,-2,-3,4,-17,-2,26,13,-2
1528877930537369,3,18,77,-2,7,5,21,1
1528877930537369,-6,-25,-96,-14,-10,-5,0,0
1528877930545348,3,5,16,-14,-3,17,12,0
1528877930545348,-3,-10,-20,3,-4,-26,-20,-4
1528877930560307,3,15,67,23,5,-4,-5,0
1528877930560307,1,-5,-48,-2,-10,4,11,1
1528877930575306,1,-7,-45,3,2,9,4,2
1528877930575306,-4,1,-23,1,-2,-5,-9,-5
1528877930583245,-1,-3,-23,-21,1,11,11,2
1528877930583245,-1,8,47,31,-1,-5,1,-3
1528877930598207,-2,-6,15,-2,-5,-3,-4,-3
1528877930598207,-1,-6,-65,-23,-4,-5,-5,1
1528877930605187,6,9,24,-3,0,3,5,12
1528877930605187,-4,0,17,6,-2,4,2,-7
1528877930628134,-1,-6,-5,-21,3,11,4,3
1528877930628134,0,7,51,23,-6,2,6,-13
1528877930643086,-2,1,-60,7,-2,4,5,-9
1528877930643086,-1,0,48,7,0,-5,-11,5
1528877930650083,0,1,3,-8,2,-2,2,-1
1528877930650083,-6,-2,1,-6,-11,2,-4,5
1528877930665027,0,2,-9,-4,1,-13,-10,2
1528877930665027,0,4,49,23,2,1,-4,-3
1528877930673006,-6,-9,-2,-7,5,3,4,-8
1528877930673006,0,-2,-23,-8,-5,-3,1,7
1528877930679987,-1,-1,19,-17,-13,-5,-3,-2
1528877930679987,-4,-3,-3,2,-1,-1,-2,5
1528877930694947,2,-3,-2,0,2,-5,-4,3
1528877930694947,-2,2,6,-24,-6,3,-1,-4
1528877930702926,0,-4,18,16,4,1,1,-4
1528877930702926,-2,-5,-63,-19,-1,9,3,7
1528877930717885,-5,-1,-8,0,2,-4,1,-1
1528877930717885,3,8,34,4,-1,-14,-10,-1
1528877930724867,0,2,2,12,4,9,6,-7
1528877930724867,-7,-6,-17,-23,-7,-7,1,-2
1528877930739827,0,-7,-23,11,3,2,-6,0
1528877930739827,-3,-4,-32,-23,-3,3,3,-4
1528877930754787,-5,-4,24,6,-7,-4,-2,-3
1528877930754787,2,1,44,20,9,-1,-2,2
1528877930762766,-1,0,-66,-10,0,1,-2,-2
1528877930762766,-1,-2,-38,-10,4,0,1,2
1528877930777726,-4,-12,-27,4,4,2,0,-2
1528877930777726,2,7,24,-17,-6,-4,-2,2
1528877930785713,-3,-6,-36,4,-5,-11,-6,-6
1528877930785713,0,9,117,24,0,0,-4,0
1528877930800665,0,2,14,0,7,22,9,3
1528877930800665,-4,2,54,26,0,-6,-2,-1
1528877930815625,-4,-4,-21,6,5,-2,2,-3
1528877930815625,-1,-5,-43,-2,-3,-4,-16,-1
1528877930822606,1,6,58,16,1,7,8,1
1528877930822606,-8,-27,-101,-34,-12,-13,-10,-4
1528877930837565,-1,6,21,-3,-4,5,8,-1
1528877930837565,9,0,-29,-18,-4,-3,-2,4
1528877930845545,-4,-9,-51,-9,-5,-4,-4,-2
1528877930845545,5,12,71,37,10,9,7,0
1528877930860505,-1,-2,-36,-56,-7,-10,-6,0
1528877930860505,-5,-22,-51,-11,-6,-11,-3,-2
1528877930875465,-3,8,103,31,-9,-9,-16,-3
1528877930875465,0,-14,2,-21,1,9,16,-3
1528877930882446,-6,-11,-88,-40,-14,-15,-16,-4
1528877930882446,-1,1,-20,6,1,-4,-1,-3
1528877930897405,0,8,61,12,1,-1,3,4
1528877930897405,0,-3,-63,12,4,-3,-15,-1
1528877930905384,2,10,29,3,3,3,3,1
1528877930905384,2,-3,73,0,-4,-2,4,5
1528877930920344,-18,-8,-83,-2,-6,-13,-16,-18
1528877930920344,-7,21,20,6,6,7,-24,-15
1528877930927326,-12,-31,-15,-10,-6,-39,-4,7
1528877930927326,0,3,33,-1,-1,23,12,-17
1528877930942286,-8,-28,-67,-22,11,37,30,11
1528877930942286,13,26,126,61,8,-12,4,-19
1528877930957284,7,3,-62,6,2,13,33,1
1528877930957284,-6,28,52,7,0,12,9,16
1528877930965226,10,-7,-57,-43,-7,-13,-3,-5
1528877930965226,-10,-36,-78,-12,-10,-16,-21,-3
1528877930980235,8,3,64,38,1,-11,-29,13
1528877930980235,6,4,-35,-18,7,12,22,24
1528877930988213,17,41,111,18,2,9,-2,-25
1528877930988213,4,1,-48,-13,-5,-7,5,-16
1528877931003124,-1,-10,62,-7,-7,-54,-46,46
1528877931003124,-23,-10,-65,-61,-22,48,44,-68
1528877931018134,24,16,50,-5,6,1,19,-32
1528877931018134,-27,-22,-45,-7,-21,-57,-69,20
1528877931025119,-8,6,-13,14,12,40,34,-38
1528877931025119,13,-4,20,2,0,-3,-2,2
1528877931041053,-7,-3,-24,-11,-8,-13,-22,2
1528877931041053,7,-5,18,-5,-5,-20,-2,15
1528877931048267,-13,-19,-64,-9,-12,-31,-28,-13
1528877931048267,21,39,50,35,22,-5,-3,26
1528877931063226,-4,-16,-14,-7,-26,-97,-104,-27
1528877931063226,1,-7,34,2,8,109,109,18
1528877931078187,-11,15,14,28,5,-4,-11,-2
1528877931078187,-18,-40,-86,-19,-24,-66,-49,-39
1528877931085986,41,6,60,7,2,4,-6,23
1528877931085986,-34,-17,-107,-47,-14,-2,2,-10
1528877931101000,7,1,46,12,3,18,14,-8
1528877931101000,9,8,4,2,7,-11,-21,17
1528877931108107,-15,-9,-16,-8,-9,-11,6,-8
1528877931108107,3,-6,-23,5,-1,0,-4,-7
1528877931123113,-4,-1,24,14,-4,22,34,4
1528877931123113,6,7,17,7,13,9,13,7
1528877931138076,-5,5,-37,-9,5,20,18,-3
1528877931138076,10,-3,-15,-19,1,-11,-25,5
1528877931145054,-10,-4,39,-9,-7,-24,0,-4
1528877931145054,4,9,38,29,7,15,20,-8
1528877931160559,-4,1,-43,-24,-7,24,6,-27
1528877931160559,13,7,7,27,0,-40,-39,22
1528877931167780,-8,-10,-52,-34,-11,6,19,3
1528877931167780,4,7,9,10,6,27,18,-2
1528877931183043,3,2,37,3,6,-6,-3,-1
1528877931183043,3,7,16,6,1,1,4,-2
1528877931198180,-2,-4,-73,-3,-4,14,12,1
1528877931198180,-3,-4,46,5,3,-3,-5,2
1528877931205791,4,-6,-87,-21,1,5,11,10
1528877931205791,-7,-7,8,0,0,1,-5,-4
1528877931221008,-2,4,-23,8,4,-4,-7,0
1528877931221008,-6,-2,48,-20,-7,-10,27,-10
1528877931228038,9,-8,-40,-11,-2,18,1,0
1528877931228038,6,-1,16,4,-1,-1,-6,10
1528877931243675,1,5,-6,-25,0,-2,5,7
1528877931243675,3,-3,-15,3,0,-11,-12,-2
1528877931250362,-11,-2,26,10,-3,-14,-18,-8
1528877931250362,0,-4,-5,-1,1,-5,-2,2
1528877931258436,7,5,-20,-3,-1,6,14,6
1528877931258436,-7,-4,-7,-2,2,9,2,-7
1528877931265618,-2,8,59,19,1,-7,-14,-2
1528877931265618,1,-4,-20,-20,-6,-3,-5,-4
1528877931280864,-5,-5,-41,16,2,1,4,-2
1528877931280864,2,0,12,3,1,7,7,-1
1528877931287842,-2,0,22,-20,-12,-9,-8,-2
1528877931287842,0,0,1,2,6,-6,-2,0
1528877931295580,-3,0,11,10,-1,5,4,-1
1528877931295580,-1,-5,-8,-7,-5,-1,-4,1
1528877931302596,1,-6,-18,6,-1,-5,-8,-2
1528877931302596,-7,-6,-25,-18,-9,-3,-1,-4
1528877931317522,3,0,42,-3,2,4,7,3
1528877931317522,1,-2,-25,11,3,1,-4,0
1528877931325534,-4,3,43,13,1,-7,-6,-6
1528877931325534,0,0,-9,-15,1,2,2,0
1528877931340464,-2,-2,60,4,-5,0,0,0
1528877931340464,-1,-2,-20,4,-2,-1,-4,-2
1528877931348551,-1,-6,-18,-23,2,2,0,1
1528877931348551,2,3,39,21,1,-1,0,1
1528877931363486,-2,-5,-11,-8,-4,-4,-6,-1
1528877931363486,-2,-6,-33,-5,1,0,-3,-3
1528877931371007,-2,2,-27,1,-2,-1,-2,-2
1528877931371007,-2,-4,-16,5,0,-1,-3,-3
1528877931378162,1,4,35,-2,0,1,3,0
1528877931378162,-2,-2,6,2,-1,-2,-2,-2
1528877931386127,-1,-5,-34,3,4,3,-1,0
1528877931386127,1,0,0,-1,-1,-4,-1,1
1528877931401097,-1,-6,-18,-7,1,1,-1,0
1528877931401097,0,5,31,1,1,0,-1,-1
1528877931408098,-2,1,29,10,-1,-3,-3,-2
1528877931408098,-2,-3,-27,-3,-2,0,2,-1
1528877931422997,0,-1,4,-8,-3,-1,0,0
1528877931422997,0,1,10,10,-1,-1,-2,-1
1528877931431148,-2,0,-4,-12,-4,-2,1,-1
1528877931431148,-3,-5,1,1,-5,-4,-1,-2
1528877931438282,1,-4,-14,-11,1,-1,-2,-1
1528877931438282,1,0,-41,5,-2,0,0,0
1528877931445292,-2,-2,7,7,4,-1,-1,0
1528877931445292,1,-1,-2,-12,-7,-1,-2,-1
1528877931468174,-2,2,22,6,3,1,1,0
1528877931468174,-1,-2,-25,-10,-8,-2,-2,-1
1528877931475496,-1,2,33,14,10,3,-2,-1
1528877931475496,0,-1,-15,-9,-4,-2,0,-3
1528877931490113,-2,-3,-15,2,1,-3,-4,-2
1528877931490113,0,-1,5,1,1,-1,2,0
1528877931498007,0,-2,5,0,-6,-1,-1,-2
1528877931498007,-1,1,-6,-2,-2,-2,-1,-2
1528877931505741,-2,-2,-2,0,-2,0,0,-2
1528877931505741,0,1,20,0,5,3,0,-1
1528877931513591,0,1,3,-3,-2,-3,-1,-1
1528877931513591,-2,-5,-3,4,0,-1,-2,-1
1528877931520449,0,-3,14,-1,-4,-4,-1,-2
1528877931520449,-2,-2,-8,-6,-1,-1,-1,0
1528877931528428,-1,0,2,-1,-3,-2,-1,-2
1528877931528428,0,4,-4,0,0,-3,-2,0
1528877931542524,1,-2,-14,-2,-2,1,2,0
1528877931542524,1,0,12,-6,0,-5,-4,-1
1528877931550769,0,-3,-11,5,-1,-1,-1,-1
1528877931550769,-2,-2,-1,-1,-3,-1,-2,-3
1528877931557507,-1,-1,-1,1,1,1,1,2
1528877931557507,-2,-2,7,-10,-6,-2,-1,-1
1528877931572435,0,-3,-28,0,2,1,2,-1
1528877931572435,-1,1,18,6,3,1,-1,-1
1528877931588727,0,0,-4,-2,-3,-3,-3,-2
1528877931588727,-1,0,-4,-4,-5,-1,0,-1
1528877931595673,-1,-1,5,4,3,1,-1,-1
1528877931595673,0,-2,-10,1,2,1,-1,0
1528877931610891,-1,-1,-1,-1,-2,-4,0,-1
1528877931610891,0,-1,1,0,1,-1,-1,0
1528877931617911,-2,0,2,-7,-6,-5,-4,-2
1528877931617911,2,0,1,2,1,0,-1,-1
1528877931626022,-1,1,0,4,3,3,-1,0
1528877931626022,0,-1,5,7,2,0,-1,0
1528877931633541,-2,0,-4,-5,-3,0,-1,0
1528877931633541,-1,1,0,-2,-4,-2,-2,0
1528877931641048,0,0,1,-1,-3,-1,0,-2
1528877931641048,-3,-2,12,-9,-5,-2,-2,-1
1528877931647830,0,-1,16,11,6,2,0,1
1528877931647830,-2,-2,-5,2,4,-2,-1,-1
1528877931663571,-2,1,-14,2,1,-1,-2,-2
1528877931663571,-1,-3,14,1,-4,-1,0,-3
1528877931677939,-1,0,22,6,1,0,0,0
1528877931677939,-1,-1,-32,-1,1,-2,-1,1
1528877931693665,-1,-1,9,-5,-3,-2,-1,-1
1528877931693665,-1,-2,1,1,-2,-2,0,-2
1528877931700833,1,-2,-8,-5,-3,-3,-2,0
1528877931700833,-4,-3,-23,-7,-2,0,0,0
1528877931715786,-2,0,27,3,-2,-2,0,-2
1528877931715786,0,-1,-12,1,0,0,1,-1
1528877931722515,-1,-3,8,-1,3,0,0,2
1528877931722515,1,0,1,1,0,-1,-1,-3
1528877931738502,-2,0,-8,0,0,-1,-1,-2
1528877931738502,-1,-3,9,0,2,0,-1,-1
1528877931752988,-2,-3,-7,-4,-3,-1,-1,-1
1528877931752988,-1,2,-1,1,-2,-1,-2,-1
1528877931760988,-1,-3,4,-3,-1,1,0,-3
1528877931760988,1,-2,-14,-2,0,0,-2,0
1528877931775926,-1,0,2,-4,-2,1,-2,-2
1528877931775926,1,3,38,5,0,-1,1,0
1528877931782924,-3,-7,-67,-7,-4,-2,-1,-1
1528877931782924,-2,-1,5,7,5,-1,0,-1
1528877931798176,-1,3,47,19,-3,-1,-2,-2
1528877931798176,-2,-6,-50,-6,-2,-3,-1,-2
1528877931812871,-1,-2,4,3,0,-1,-1,-1
1528877931812871,0,2,2,-1,-3,-1,-3,0
1528877931821083,-1,1,-19,-13,-8,-3,-3,-4
1528877931821083,-1,3,26,-1,-1,-3,-1,-1
1528877931835373,-3,-8,-7,1,1,0,0,0
1528877931835373,-1,0,0,-2,-2,-1,-2,-2
1528877931843417,0,-2,-10,-4,3,0,-1,-1
1528877931843417,-1,2,19,5,-1,-2,-1,0
1528877931858381,-1,-4,5,-2,-3,0,0,1
1528877931858381,0,0,26,3,-1,-1,-2,-2
1528877931872491,-1,1,3,-3,-2,-3,-3,-2
1528877931872491,-1,-4,-26,4,-1,-2,-2,-2
1528877931881115,0,3,22,1,0,-2,0,-1
1528877931881115,-1,-10,-72,-16,-4,-2,-1,-1
1528877931896188,-1,0,8,1,-1,0,0,-1
1528877931896188,-1,-3,-1,4,-3,-2,-1,1
1528877931903154,-2,-2,2,-2,0,-1,-2,0
1528877931903154,0,4,33,5,-1,0,0,0
1528877931918500,0,-1,17,-2,-2,-1,-1,-1
1528877931918500,-1,2,0,2,-1,0,-1,-1
1528877931933469,0,-2,6,1,-1,-2,0,-1
1528877931933469,0,0,21,9,0,0,1,-1
1528877931940910,-3,-12,-47,-18,-5,-3,-4,-2
1528877931940910,-5,-24,8,1,1,-1,-3,-1
1528877931955628,0,8,-6,-2,-1,-1,-3,0
1528877931955628,-1,-5,3,3,1,-1,-1,-3
1528877931963258,-4,-17,7,0,-2,-3,-1,-2
1528877931963258,-2,1,-35,-3,1,0,0,-1
1528877931978183,-1,-3,0,1,1,1,0,0
1528877931978183,5,12,18,5,-1,-1,0,0
1528877931993179,0,22,40,3,1,1,2,-1
1528877931993179,-2,-3,-3,-12,-5,-2,-2,-1
1528877932000177,0,5,14,-4,-3,0,-2,1
1528877932000177,-3,13,22,4,1,0,0,-7
1528877932015139,-4,-18,-17,2,1,-1,-1,0
1528877932015139,-8,-5,1,1,1,-1,1,-2
1528877932023062,2,10,-6,1,1,-1,0,1
1528877932023062,0,-2,9,4,0,0,1,1
1528877932038080,1,7,1,5,1,-1,0,-2
1528877932038080,1,14,5,0,-1,0,-1,0
1528877932053036,5,25,-45,-4,-1,0,1,-1
1528877932053036,-2,-6,0,-5,-3,-3,-2,0
1528877932060018,-1,6,7,4,1,1,2,0
1528877932060018,-2,-14,1,-1,-2,0,-2,-2
1528877932074978,1,17,13,0,-1,-1,-2,1
1528877932074978,-2,2,6,4,1,0,0,1
1528877932082955,-9,-8,2,3,1,0,-1,-2
1528877932082955,-3,-6,-23,-3,-3,0,0,-2
1528877932097917,-2,-7,-14,-5,-3,-3,-2,-3
1528877932097917,2,4,25,3,-2,-2,-1,2
1528877932112878,1,17,-16,-2,-2,1,1,0
1528877932112878,0,-1,-4,0,-1,0,-2,-1
1528877932119860,3,3,6,-1,0,0,0,-2
1528877932119860,-2,-5,-31,-8,-3,-1,-2,-2
1528877932134818,1,-4,8,0,-3,0,-3,-2
1528877932134818,-1,-1,3,1,0,1,0,0
1528877932142797,-3,1,9,2,1,-1,-2,-1
1528877932142797,-3,4,2,-2,-1,0,1,-1
1528877932157760,-2,0,0,0,-2,-1,-1,-1
1528877932157760,1,-3,12,0,-1,-1,-2,1
1528877932172663,-3,-13,-27,-3,-1,0,-1,1
1528877932172663,0,-2,8,-1,-2,-2,-1,-1
1528877932180687,-1,1,17,0,0,-2,-2,0
1528877932180687,-2,-3,-1,0,1,-2,0,-1
1528877932195601,1,1,6,-1,0,-1,-2,0
1528877932195601,2,6,-5,3,0,-1,1,-1
1528877932202634,-1,-1,11,1,0,0,1,-2
1528877932202634,-1,-6,-32,-10,-3,-1,-1,1
1528877932217595,0,-4,-24,-10,-6,-2,-1,-2
1528877932217595,0,2,38,8,0,0,0,-1
1528877932232557,0,0,-17,-3,-2,-2,-2,-2
1528877932232557,-1,2,17,1,1,-1,-2,-1
1528877932240482,-1,-2,-10,0,1,0,-1,1
1528877932240482,-1,-1,-8,0,2,0,0,-1
1528877932255444,-3,-1,-5,-1,0,-1,-1,-1
1528877932255444,0,-1,36,3,-3,-2,-1,-1
1528877932262423,0,0,-21,0,-2,-1,0,-2
1528877932262423,-1,2,4,0,-2,-1,-1,-1
1528877932277440,0,-4,-4,0,-1,0,0,-2
1528877932277440,-1,3,20,0,1,-2,-1,0
1528877932285398,-1,-2,-32,-3,-2,-1,-3,1
1528877932285398,-3,1,3,-6,-2,-3,-1,-2
1528877932300893,-2,-15,13,0,0,-2,-2,-3
1528877932300893,0,-4,-12,-3,-2,0,-2,-2
1528877932314928,0,4,13,0,2,-1,-2,1
1528877932314928,-3,-3,-7,-2,-1,-1,0,-1
1528877932322908,2,2,1,-1,1,1,1,0
1528877932322908,-4,-5,-27,-2,-2,-2,0,-1
1528877932338206,0,2,-16,-3,-3,-3,-1,-2
1528877932338206,2,4,27,1,-2,-3,0,0
1528877932352827,-2,-5,-29,-4,-3,-2,-1,-2
1528877932352827,-2,0,6,0,1,-2,-1,-3
1528877932361101,-1,-2,-4,-2,-4,1,-1,-3
1528877932361101,0,-2,5,1,-1,0,-2,-1
1528877932374767,-3,-2,3,-1,-1,-1,0,-1
1528877932374767,0,-2,-8,0,2,1,-2,1
1528877932382792,1,1,11,1,-1,-2,-1,1
1528877932382792,-1,0,0,0,-1,-2,-2,0
1528877932397761,-1,0,3,-1,0,-2,0,0
1528877932397761,1,2,12,3,1,1,0,0
