timestamp,emg1,emg2,emg3,emg4,emg5,emg6,emg7,emg8
1528188934636635,7,-2,2,7,5,-3,-1,14
1528188934636635,0,-2,-2,-13,-16,-2,-1,-1
1528188934659573,-2,-2,-1,14,-4,-2,-1,-5
1528188934659573,-2,-1,-5,-13,-1,0,-2,-4
1528188934660571,-5,0,-2,-3,-3,-3,-1,-6
1528188934660571,5,1,3,2,5,2,1,4
1528188934661568,0,0,-6,-16,-3,-2,-1,-1
1528188934661568,-1,1,4,22,-3,-1,0,0
1528188934665556,-2,-1,-1,5,1,-15,-3,-4
1528188934665556,-2,-2,-9,-8,-12,-3,-3,-3
1528188934681515,-1,-1,4,6,11,12,2,3
1528188934681515,-1,-5,-6,-35,-7,-25,-8,-1
1528188934681515,2,12,-4,39,5,9,-1,-2
1528188934681515,4,7,28,-1,7,-1,3,1
1528188934682512,-4,-5,-8,1,-7,-6,-3,0
1528188934682512,-5,-14,-7,-7,4,4,1,-1
1528188934727392,-4,-4,-21,-20,-14,-2,-2,-4
1528188934727392,-4,-3,4,11,7,-3,-2,-2
1528188934728388,5,19,11,21,6,11,2,3
1528188934728388,0,-12,10,2,-4,-2,0,1
1528188934729386,0,-5,-2,-15,-2,-3,0,-2
1528188934729386,-3,6,-8,-9,1,2,-3,-3
1528188934733376,2,-3,-7,-13,-11,-7,0,1
1528188934733376,1,19,8,5,-6,10,1,0
1528188934755317,-3,-5,-4,-1,-3,-15,-6,-4
1528188934755317,0,-3,-9,-9,3,1,-1,-1
1528188934778264,2,5,21,-1,-1,6,2,2
1528188934778264,-1,2,-1,24,7,10,1,-3
1528188934779255,-2,-2,6,-15,-1,-5,-2,5
1528188934779255,3,8,7,40,7,6,1,2
1528188934803191,0,-1,0,-16,-7,-3,-3,-1
1528188934803191,-1,-7,-5,-2,-1,-7,-2,-1
1528188934804188,-2,-5,-3,4,3,-1,-2,-6
1528188934804188,2,0,3,-15,-7,-9,1,-1
1528188934825130,1,1,-2,-3,-1,3,-4,-2
1528188934825130,-6,-1,-20,-9,-6,-6,-2,-2
1528188934825130,-5,5,-11,-22,-9,-2,-5,-2
1528188934825130,-2,3,7,8,-5,-3,-2,1
1528188934827124,-1,-3,-1,6,9,0,0,-2
1528188934827124,3,-7,13,14,5,5,3,1
1528188934847073,-2,-14,-3,-11,-7,-4,-3,0
1528188934847073,-4,-3,-5,4,11,1,1,-4
1528188934849067,3,31,28,17,-1,1,1,2
1528188934849067,3,4,-10,10,5,3,0,2
1528188934852058,-4,-36,-28,-15,-6,-3,0,-1
1528188934852058,-3,-16,-22,-16,-9,-13,-5,-2
1528188934871008,-4,10,10,-21,-7,-3,-3,-4
1528188934871008,-2,14,14,7,2,-1,-1,1
1528188934872005,4,-6,10,21,5,8,2,0
1528188934872005,-2,20,7,-15,-6,0,-1,-4
1528188934875994,-5,-52,-36,-7,-2,-3,-2,-3
1528188934875994,2,28,6,-8,-3,-4,-3,0
1528188934890954,-5,-12,-10,-4,-4,-6,-1,-2
1528188934890954,2,14,9,8,4,11,-1,0
1528188934936831,0,-5,12,6,1,0,0,-1
1528188934936831,-1,-2,-6,-3,-7,-4,-2,-4
1528188934937830,-2,-1,-17,-33,-1,-6,-4,-1
1528188934937830,0,-12,20,30,0,-1,2,0
1528188934938826,-3,4,10,16,4,7,2,-2
1528188934938826,-3,-33,-2,-2,-1,-1,0,0
1528188934939824,-4,-3,3,14,2,-1,-1,-2
1528188934939824,-5,-6,-29,-29,-5,-4,-4,-2
1528188934943814,1,18,-1,-10,-2,-6,-3,-1
1528188934943814,-1,1,-7,-9,-8,-4,-2,0
1528188934944809,5,-15,17,16,8,12,5,1
1528188934944809,-10,14,-9,-6,-1,-1,-3,-4
1528188934957775,2,-1,0,-1,-3,1,1,3
1528188934957775,-3,-2,-6,-13,-5,-5,-3,-2
1528188934964758,2,1,0,0,-4,-1,0,0
1528188934964758,3,6,8,21,9,5,5,0
1528188934980716,0,15,-2,-3,2,0,-1,-2
1528188934980716,-2,-10,-10,-9,-5,1,-2,-3
1528188935003655,6,21,8,2,1,-11,-2,-1
1528188935003655,-1,-18,4,8,-2,6,-4,-1
1528188935004653,-4,4,-6,-6,-1,-4,-2,-2
1528188935004653,3,13,6,7,3,4,4,2
1528188935009637,-4,8,14,1,-4,0,-3,-4
1528188935009637,4,15,-21,-15,-2,-3,0,1
1528188935033574,-6,-27,-16,-3,-5,-10,-4,-3
1528188935033574,-4,3,-6,-6,-2,2,-2,-3
1528188935035567,4,32,19,16,2,4,1,1
1528188935035567,-2,-34,-13,-15,-5,-3,-3,-4
1528188935036567,-1,10,-4,-1,-1,1,1,2
1528188935036567,-3,-12,-3,5,1,-4,-2,-2
1528188935102729,-8,-43,-27,-15,-6,-3,-2,-1
1528188935102729,-3,-7,3,-6,-5,-7,-3,-3
1528188935103387,0,4,-4,-6,-5,0,4,-1
1528188935103387,5,13,19,10,6,6,3,0
1528188935104403,1,16,-3,2,2,5,0,-1
1528188935104403,3,30,16,-3,0,-12,-4,3
1528188935132665,-4,-38,-2,6,-4,-5,-1,-2
1528188935132665,-3,14,3,-5,-2,6,-2,-1
1528188935133325,-1,-27,-12,1,-2,4,3,0
1528188935133325,3,36,-24,-7,2,4,0,-2
1528188935133325,-6,0,-9,-10,-1,-8,-4,-4
1528188935133325,2,14,-19,13,6,4,3,0
1528188935134304,-3,-18,1,-5,-1,-1,-3,-3
1528188935134304,-2,26,-17,-17,-7,-7,-6,1
1528188935147369,-7,-15,-8,-5,-6,0,-2,-5
1528188935147369,-2,-10,12,-5,-2,1,2,-2
1528188935148267,1,-33,-19,11,4,1,-3,2
1528188935148267,4,26,16,3,-3,-8,-3,0
1528188935152286,-9,-23,-9,-5,3,-1,-3,-3
1528188935152286,2,16,16,4,2,0,1,0
1528188935153253,2,14,6,-8,0,-1,-1,-2
1528188935153253,-3,-14,-17,3,-8,-7,0,1
1528188935222069,5,20,9,13,-1,-9,-7,1
1528188935222069,-9,-47,-11,-9,1,21,6,-4
1528188935223066,1,19,5,1,6,20,2,-1
1528188935223066,5,27,5,-1,6,7,1,1
1528188935225060,-4,-30,-6,-6,-8,-2,-3,-3
1528188935225060,0,1,8,8,3,8,11,3
1528188935237028,-6,1,-12,-8,-9,-12,-3,-3
1528188935237028,1,19,12,-15,1,1,2,0
1528188935239023,0,13,17,-3,3,3,0,-1
1528188935239023,1,13,4,-4,2,-5,-2,1
1528188935240021,-4,-8,-21,-13,-10,-5,-7,-3
1528188935240021,3,54,25,14,3,6,4,-1
1528188935266982,-11,-74,-33,-13,-3,5,3,-4
1528188935266982,3,34,12,6,-8,-15,-1,1
1528188935267953,10,-34,-6,-7,-4,-25,0,3
1528188935267953,-16,-41,-28,-15,2,26,-8,-8
1528188935272986,2,14,1,2,0,3,-1,0
1528188935272986,0,-2,13,-1,-7,7,-4,0
1528188935273977,7,43,11,4,3,1,2,0
1528188935273977,-9,-79,-25,1,-5,-20,-7,-6
1528188935311887,0,28,9,0,0,-3,-2,1
1528188935311887,6,25,24,2,-1,-4,-3,1
1528188935312858,2,3,-33,-15,3,5,4,-1
1528188935312858,-9,-18,14,3,-3,-6,0,-3
1528188935313823,2,42,12,11,3,4,-1,-1
1528188935313823,-6,-47,-5,-6,-7,-2,-4,-2
1528188935317867,14,57,17,1,-1,3,0,4
1528188935317867,-1,-15,-2,-2,3,1,0,0
1528188935332773,8,7,-1,-8,-3,-7,-3,0
1528188935332773,-4,26,-19,-10,-6,-5,-3,-4
1528188935333771,-9,17,18,10,6,10,1,-3
1528188935333771,-1,-32,-24,-4,-8,-7,-5,-2
1528188935357706,3,33,26,7,3,7,3,2
1528188935357706,9,0,1,1,3,-3,-3,-1
1528188935358704,-8,-54,-24,-22,-12,-7,-3,-4
1528188935358704,4,61,30,22,4,-11,2,2
1528188935378651,-4,-47,-10,-2,-1,7,0,-1
1528188935378651,-5,22,-11,-3,1,8,0,-4
1528188935379648,-7,-50,-22,-1,3,2,-1,-2
1528188935379648,-1,5,-8,-11,-8,-6,-3,0
1528188935400592,-7,-10,-5,-6,-1,-6,0,-4
1528188935400592,3,18,-1,-5,-3,0,-2,-2
1528188935401589,-4,-16,28,15,3,0,-4,-1
1528188935401589,9,30,10,5,4,-1,-1,1
1528188935447499,-2,-27,-25,-10,-7,-4,-5,-1
1528188935447499,-3,-18,-11,-15,-9,3,0,1
1528188935448464,-5,13,-23,-6,0,-2,0,-5
1528188935448464,6,24,23,-1,2,1,2,0
1528188935450458,-4,-9,-3,17,4,-4,0,0
1528188935450458,-7,-1,11,-11,-5,-8,-7,-4
1528188935467414,0,-24,8,7,0,1,1,1
1528188935467414,-5,-17,-22,-3,0,4,1,-4
1528188935490630,-4,4,8,-2,-4,-10,0,-1
1528188935490630,6,-19,-12,5,-2,-1,0,0
1528188935500476,-4,9,7,-5,-2,-2,-1,-2
1528188935500476,3,11,-15,-19,1,-4,-2,-2
1528188935501322,5,13,22,12,4,1,-1,0
1528188935501322,-4,-12,-3,12,2,7,0,-2
1528188935537227,-6,16,3,-8,-6,-8,-5,-5
1528188935537227,0,-48,-11,-6,-4,0,-2,-1
1528188935538225,-6,-3,-10,-6,-1,-6,-2,1
1528188935538225,-5,-4,8,15,6,0,0,-4
1528188935539222,1,14,-9,-9,-2,0,-1,-1
1528188935539222,-4,-10,2,-1,-2,-5,-2,0
1528188935560165,1,12,-11,1,-2,-15,0,3
1528188935560165,-2,-12,12,13,2,13,-1,0
1528188935560165,-1,8,10,2,0,9,1,-1
1528188935560165,3,9,-16,-18,-7,-11,1,1
1528188935562159,-3,3,9,3,-4,-8,-3,-4
1528188935562159,1,1,1,7,2,-1,-2,-2
1528188935612284,3,-14,-7,7,3,8,6,1
1528188935612284,3,36,4,-12,-2,-9,-4,-1
1528188935613281,-9,-13,-25,-4,-7,-4,-7,-3
1528188935613281,-2,-26,-9,-9,-8,-9,-1,0
1528188935614278,0,-1,-6,-9,-6,-1,-2,1
1528188935614278,1,31,9,12,7,8,2,-1
1528188935619265,3,-8,12,-2,2,-6,-1,0
1528188935619265,-4,-5,2,5,-4,12,2,0
1528188935620270,-3,-2,-7,1,4,8,-6,-2
1528188935620270,-2,10,1,-3,-8,-17,-4,-1
1528188935633461,4,18,-25,-24,-4,-6,-3,0
1528188935633461,-3,-24,24,12,5,2,5,-1
1528188935680302,-2,2,1,12,2,5,1,-1
1528188935680302,-4,-26,-18,-9,-5,-7,-5,-3
1528188935680302,4,27,11,4,-6,-22,-3,2
1528188935680302,-1,3,3,2,-3,-2,-7,-3
1528188935685338,-6,-18,-18,-17,-2,9,3,-3
1528188935685338,-2,18,-14,5,6,17,6,0
1528188935710262,5,23,21,1,0,19,-1,3
1528188935710262,-5,-32,5,7,-1,-2,-6,0
1528188935711307,-2,6,-1,-6,-6,5,0,-3
1528188935711307,4,38,6,-9,3,-1,-1,0
1528188935724231,-2,-43,-16,-2,-1,6,2,-2
1528188935724231,-1,-8,-5,-9,-6,-9,-4,-1
1528188935724982,2,0,13,8,-1,-1,2,-2
1528188935724982,-5,15,-13,2,2,4,-2,-2
1528188935726218,-1,11,0,-4,4,7,5,2
1528188935726218,1,7,20,6,-1,7,0,1
1528188935746255,-2,-14,-29,-12,2,-2,-3,0
1528188935746255,-2,11,24,15,3,-3,5,-1
1528188935747922,-4,-5,17,8,1,0,-3,-3
1528188935747922,1,0,-3,-14,-4,-4,-3,-3
1528188935768296,5,52,8,4,0,-2,1,0
1528188935768296,-3,-69,-5,11,5,2,2,1
1528188935770298,-10,-46,-43,-15,-5,-3,-5,-3
1528188935770298,-6,-16,-7,-23,-17,-11,-8,-3
1528188935776407,-4,-11,5,25,14,7,3,-3
1528188935776407,6,21,2,-8,1,3,1,1
1528188935777484,5,14,12,11,0,-1,1,2
1528188935777484,-1,2,17,5,-1,-6,-1,-2
1528188935799460,-5,-28,-27,-18,-7,-6,-4,-2
1528188935799460,1,-2,-13,-3,-2,6,1,-1
1528188935801206,0,1,2,5,3,-2,2,1
1528188935801206,2,15,-10,-10,-2,0,-3,-1
1528188935821504,-2,3,23,13,1,-2,0,-1
1528188935821504,-3,-11,-4,-9,1,-4,-3,-2
1528188935822150,3,10,-6,-2,-1,-1,-3,-1
1528188935822150,0,3,6,7,-3,3,3,2
1528188935836129,-3,-21,-14,-15,1,-2,-1,0
1528188935836129,-1,5,-1,6,-2,-6,-4,-2
1528188935837156,-2,7,-5,-9,-2,-1,-2,-3
1528188935837156,1,3,5,8,6,4,1,2
1528188935866252,-1,-17,-6,-1,-4,-1,-1,1
1528188935866252,-3,3,-6,-14,-6,-5,-3,-2
1528188935868171,1,5,0,0,2,2,0,-1
1528188935868171,-2,-8,-4,10,0,-2,-1,-4
1528188935888009,-3,-5,-6,-4,-5,-1,-1,-2
1528188935888009,-3,1,0,-9,-2,0,0,-1
1528188935890005,5,4,7,4,1,2,-1,2
1528188935890005,0,-5,4,9,1,0,-1,1
1528188935902969,0,-5,-8,-8,-3,-6,-2,-3
1528188935902969,4,3,1,-3,-2,1,-1,-2
1528188935904980,2,-4,-1,7,1,4,1,5
1528188935904980,-11,2,-5,-5,0,-1,-2,-4
1528188935934208,-8,-3,7,5,0,-1,-2,-3
1528188935934208,-6,-9,-8,-5,-3,-1,-1,-2
1528188935935881,2,4,3,-6,-3,3,1,-1
1528188935935881,6,5,-1,3,1,-5,-1,1
1528188935956607,2,-6,0,1,-1,2,-1,1
1528188935956607,4,9,5,-2,-3,-2,1,4
1528188935957255,-4,2,9,1,-4,-8,-4,-3
1528188935957255,-2,-9,-6,-3,0,3,1,-3
1528188935980539,-1,-1,-12,1,5,-1,-2,-4
1528188935980539,0,0,17,4,-2,0,0,0
1528188935981192,-1,-1,-7,1,2,2,1,1
1528188935981192,2,4,12,6,-5,-2,-1,3
1528188935982189,2,-4,-6,-3,4,-1,1,-2
1528188935982189,1,0,-9,-10,-5,-6,-5,2
1528188936002413,-8,-11,-6,3,-2,0,0,-5
1528188936002413,-2,2,1,-4,-3,-2,-1,-1
1528188936002413,-1,-1,0,-5,-3,3,-1,-5
1528188936002413,3,-4,-3,-1,0,2,0,7
1528188936004131,-3,7,-5,-4,-6,-7,-7,-4
1528188936004131,-3,-1,3,-5,0,-1,0,0
1528188936024493,3,-8,4,1,-3,3,5,-1
1528188936024493,-6,-4,-4,1,-1,-4,0,-1
1528188936025077,0,-2,-5,-4,-2,-1,1,4
1528188936025077,-1,4,-1,1,3,1,-1,-6
1528188936046028,-3,-7,0,-3,-2,0,0,1
1528188936046028,1,-1,-3,-3,-1,-3,-2,-3
1528188936047015,12,0,-2,-3,-1,0,0,0
1528188936047015,-2,2,3,4,4,3,1,0
1528188936068956,0,5,-1,-2,-9,-6,-2,15
1528188936068956,-12,-2,3,-2,-6,-9,-4,-20
1528188936070987,-20,-10,-5,-1,0,6,-7,-6
1528188936070987,8,-7,-1,2,4,5,3,2
1528188936090897,7,0,-1,0,-1,-1,-2,5
1528188936090897,6,12,-4,-3,2,2,2,7
1528188936092896,3,1,11,0,-3,-7,-1,3
1528188936092896,0,-10,-11,-5,-6,-3,-1,-9
1528188936096884,-10,1,-7,-4,-10,-3,-4,-12
1528188936096884,-4,-2,5,6,6,4,-3,0
1528188936113836,-5,0,-1,0,-1,-7,-5,-8
1528188936113836,-2,-2,1,-2,-3,-2,-1,5
1528188936120829,3,3,2,-1,2,-4,4,-3
1528188936120829,-1,-9,-10,-6,-6,1,-6,-4
1528188936122812,5,8,4,1,4,7,5,8
1528188936122812,-10,-11,6,6,1,-6,-3,3
1528188936143976,-3,-5,-1,4,0,-2,0,2
1528188936143976,2,-1,-3,0,4,2,1,-4
1528188936144802,9,-15,-6,-2,-6,-3,-1,7
1528188936144802,-7,27,7,-15,-18,-7,-4,-16
1528188936165942,-3,-30,-2,6,18,3,-7,-5
1528188936165942,0,-12,-15,0,-6,-1,1,-11
1528188936167692,3,11,2,1,3,1,-1,7
1528188936167692,1,8,4,3,-3,-1,-2,29
1528188936181800,3,10,3,2,4,-2,0,3
1528188936181800,4,4,0,-5,-4,6,5,-9
1528188936187747,-12,-5,-7,-10,-6,-6,-7,-32
1528188936187747,2,-14,-3,-2,-3,0,9,8
1528188936203743,-8,9,5,2,1,-4,6,-1
1528188936203743,0,0,-1,0,-1,-5,-13,1
1528188936211584,6,7,1,2,-7,-7,-13,-2
1528188936211584,2,1,-1,0,11,3,-8,0
1528188936233525,-5,-6,-5,0,0,-5,1,-2
1528188936233525,-4,6,1,-10,-16,-3,6,1
1528188936235514,-11,-8,-2,6,16,2,5,-8
1528188936235514,11,-4,-6,-4,-2,-1,-2,10
1528188936255461,4,1,-3,-5,-8,0,-5,2
1528188936255461,-5,2,5,7,13,3,2,16
1528188936257466,-4,0,0,-2,-3,0,-1,-20
1528188936257466,-6,-2,-4,-5,-2,-2,2,-8
1528188936270667,4,2,-4,-1,-4,0,0,6
1528188936270667,-4,-7,2,-1,-4,-4,-3,-5
1528188936279964,6,-1,1,1,20,-1,2,7
1528188936279964,7,-1,3,13,-12,0,0,-4
1528188936279964,-13,2,-5,-25,-22,-2,-5,-12
1528188936279964,-5,1,-1,17,12,-2,-2,-3
1528188936315289,8,-4,-2,6,9,-1,2,20
1528188936315289,2,-1,-2,-14,-1,1,-2,-16
1528188936331110,4,1,4,4,-3,-2,-5,0
1528188936331110,-7,-2,-1,-9,-5,-2,-2,-5
1528188936352808,-4,-1,-3,-6,-14,-3,0,-1
1528188936352808,13,4,1,13,-2,-4,2,17
1528188936353783,1,-4,4,2,5,4,0,1
1528188936353783,-6,-1,1,-1,9,3,2,-7
1528188936376454,1,7,-1,1,-9,1,1,2
1528188936376454,-8,-4,-6,-9,0,-1,-3,-6
1528188936376454,2,-2,-3,-1,-2,-2,0,3
1528188936376454,0,-3,-2,-1,-7,-5,-2,-15
1528188936392975,-5,1,2,3,-14,-2,-5,-5
1528188936392975,5,-4,-8,5,8,-4,1,15
1528188936394970,8,7,5,11,-4,4,1,1
1528188936394970,-7,-22,-6,5,-2,-2,-3,3
1528188936421265,-7,-2,-4,2,-5,-4,-3,-8
1528188936421265,-6,-2,-2,-9,2,-1,-1,-9
1528188936421265,0,3,0,-14,18,-2,-5,-6
1528188936421265,4,9,3,10,-3,2,1,-6
1528188936458650,-9,-6,-2,5,-11,-3,1,3
1528188936458650,-4,-9,-14,3,4,-2,-3,5
1528188936459379,2,5,4,-3,-12,-2,0,2
1528188936459379,1,-3,-5,-17,14,-3,-4,-4
1528188936466367,-2,-1,-2,3,16,3,3,1
1528188936466367,3,5,-2,11,-5,2,1,2
1528188936502265,3,-2,0,-7,-5,-5,-3,8
1528188936502265,-4,-5,-4,-26,0,-1,-1,-3
1528188936512237,6,-1,0,21,4,-3,-2,1
1528188936512237,-1,2,1,1,-10,0,-1,-2
1528188936513234,-7,2,0,12,8,-1,-1,-8
1528188936513234,-4,0,-7,-11,-3,0,-1,-1
1528188936519219,-5,-6,-4,-6,-6,-1,-1,-6
1528188936519219,3,5,2,0,-5,1,1,3
1528188936520217,-6,0,-5,-5,-1,-2,-2,-3
1528188936520217,-4,0,2,-1,-9,-3,-2,1
1528188936533185,-1,-2,-2,-1,0,-1,-1,4
1528188936533185,-3,-2,-1,-3,2,-1,-1,-3
1528188936555177,0,-5,-1,1,-4,0,-2,-1
1528188936555177,0,1,0,3,0,-1,-2,-4
1528188936592025,-1,-2,-4,-7,0,-3,-1,1
1528188936592025,-1,1,4,2,-1,-3,0,3
1528188936607992,-4,-3,-3,-3,-1,0,-2,-4
1528188936607992,-1,1,3,-3,-3,-2,0,2
1528188936632915,-1,-1,0,-2,3,1,-4,-5
1528188936632915,7,-6,2,8,2,0,-1,-5
1528188936633966,3,1,1,4,-1,-2,-1,11
1528188936633966,-14,4,0,-3,-6,-1,-1,-4
1528188936668819,0,-1,1,4,-1,1,1,-1
1528188936668819,3,-4,-3,-2,-3,-2,-3,2
1528188936669841,-3,-4,-2,-3,-2,1,-1,-7
1528188936669841,6,-2,-1,-2,-3,-1,-1,11
1528188936670813,-4,0,-3,-1,0,-2,-2,-4
1528188936670813,6,-5,1,1,-1,0,-2,-5
1528188936700734,-2,-2,-1,-2,-1,-2,-1,1
1528188936700734,-2,-1,-4,-2,-1,-2,1,2
1528188936701785,-4,2,0,-2,-1,-2,-1,-1
1528188936701785,0,2,-2,0,-1,-1,-1,-1
1528188936701785,6,-1,-2,-1,-2,-2,0,2
1528188936701785,-5,-2,2,0,-1,-2,-2,-2
1528188936722674,-1,-4,-1,-1,-2,1,-2,-2
1528188936722674,-2,-2,1,-2,0,0,-3,4
1528188936724670,1,0,0,0,-2,-2,-2,-2
1528188936724670,-6,-3,-2,-2,0,0,0,-4
1528188936764615,-1,-1,-1,-2,-1,0,-1,-2
1528188936764615,5,0,-2,0,0,0,-2,4
1528188936773593,3,2,-1,-2,-2,-3,-1,4
1528188936773593,-1,-5,-2,1,-1,-1,-1,2
1528188936788550,-2,0,-1,0,-2,-1,-2,-2
