timestamp,emg1,emg2,emg3,emg4,emg5,emg6,emg7,emg8
1528279694862391,0,0,3,9,5,1,-3,5
1528279694862391,-1,1,0,5,-6,-7,-3,-9
1528279694863388,-3,-4,-8,-37,-39,-14,-4,1
1528279694863388,0,2,8,41,47,35,11,3
1528279694864386,0,-5,-8,-20,-7,-6,-8,1
1528279694864386,-1,2,1,-3,6,0,-1,-5
1528279694865383,-4,-4,6,27,0,-6,-8,-6
1528279694865383,0,-2,-17,-51,-25,-10,0,2
1528279694869373,0,-1,5,18,9,3,0,-1
1528279694869373,0,-3,-5,-27,-2,0,-7,-14
1528279694875356,1,1,1,8,2,5,2,10
1528279694875356,-3,-2,-10,-12,-8,0,3,0
1528279694915251,-5,-1,5,3,-7,-6,-4,-5
1528279694915251,-5,-6,-12,-57,-38,-45,-24,-7
1528279694916295,6,7,19,83,75,48,17,6
1528279694916295,-3,-4,-3,-3,-7,-6,5,-2
1528279694917245,0,-1,-5,3,-1,19,12,3
1528279694917245,0,-2,5,47,6,-9,-4,3
1528279694929214,-5,-4,-9,-22,-6,14,12,-7
1528279694929214,-1,-1,2,-12,-12,-12,-11,-1
1528279694931233,-4,-5,-14,-52,-15,-17,-15,-19
1528279694931233,1,1,7,20,10,2,9,13
1528279694943175,0,0,3,22,-22,-50,-33,-7
1528279694943175,-2,-2,3,24,7,-4,-11,-4
1528279694976087,3,4,4,-12,-14,35,25,8
1528279694976087,-4,-4,-12,-23,-24,-8,-3,0
1528279694977084,-2,-3,-8,-14,27,31,13,-6
1528279694977084,-3,-1,3,-8,-24,-44,-30,-6
1528279694980077,-1,-2,-4,-5,-6,-26,-9,2
1528279694980077,1,2,3,8,10,53,27,9
1528279694988054,0,-6,-15,-55,-53,-1,3,10
1528279694988054,2,4,16,73,45,-28,-8,-18
1528279694998029,5,-3,-8,-24,-26,-5,-9,10
1528279694998029,3,6,13,62,19,7,14,7
1528279695027975,-6,-4,-11,-40,-20,4,3,-7
1528279695027975,-5,2,7,19,21,5,10,9
1528279695029944,-8,-2,1,22,6,-1,-16,-4
1528279695029944,7,1,-7,-30,10,13,9,-3
1528279695030970,-1,0,7,21,5,-7,-8,6
1528279695030970,-2,0,-4,-8,-25,6,12,2
1528279695034966,-1,0,3,3,36,24,7,4
1528279695034966,-8,-4,-5,-5,-4,-3,-14,-8
1528279695087814,3,0,-2,-7,0,-6,2,-1
1528279695087814,5,-2,-6,-24,-32,-17,-11,-12
1528279695089783,-2,1,4,19,29,-20,-3,0
1528279695089783,-3,0,-2,-4,-7,12,-3,-6
1528279695090803,0,0,6,39,9,9,29,12
1528279695090803,-2,-2,1,-16,4,5,-7,0
1528279695095768,2,-6,-13,-9,-15,9,5,-4
1528279695095768,3,-1,10,22,37,-19,-17,-1
1528279695096765,1,1,-3,-11,-19,2,-4,-1
1528279695096765,-1,-5,-16,-69,-36,14,5,-14
1528279695097793,-2,0,13,103,40,-13,-2,-9
1528279695097793,-4,-2,-10,-70,-20,-5,-5,6
1528279695140685,-6,0,10,69,27,-13,-4,-1
1528279695140685,-3,-1,-6,-36,-17,24,5,10
1528279695142682,0,3,-3,-17,-11,2,2,-6
1528279695142682,4,2,4,12,-29,-13,4,9
1528279695143660,0,-2,-5,4,58,15,-3,-3
1528279695143660,0,-3,-3,2,-16,-10,0,-2
1528279695148652,-5,1,1,-42,17,21,3,0
1528279695148652,-3,-6,-5,2,-12,-18,-18,-13
1528279695149627,-5,-1,2,26,2,2,5,2
1528279695149627,-1,-1,-3,-18,39,18,9,4
1528279695154610,-1,-2,3,2,-3,-6,-4,-1
1528279695154610,5,0,-9,-27,-4,4,11,0
1528279695168613,-1,1,10,-10,-15,-20,-23,-13
1528279695168613,0,-4,-2,31,31,18,6,-5
1528279695176591,-1,0,-9,-55,-32,-14,-2,3
1528279695176591,-5,0,5,28,17,8,-5,-14
1528279695191513,0,-4,-11,-53,-64,-15,6,-16
1528279695191513,-5,1,8,32,8,-11,-10,2
1528279695193506,-4,0,-2,6,-5,-13,-6,-2
1528279695193506,-5,0,6,16,-2,-1,-2,-2
1528279695205473,-2,-4,-9,-38,-39,-22,-11,-4
1528279695205473,3,1,0,-16,-4,4,4,4
1528279695214450,0,-1,4,50,-4,-7,0,-3
1528279695214450,-1,-2,-10,-52,-38,-22,-5,-1
1528279695253347,-1,2,-2,25,30,13,-2,2
1528279695253347,0,1,9,-3,14,11,0,9
1528279695254344,-3,-5,-9,-33,5,-4,-5,-5
1528279695254344,-3,-2,5,36,0,-3,4,7
1528279695255340,3,2,-8,-39,-9,-9,-4,0
1528279695255340,1,1,0,30,-5,-4,-3,2
1528279695259330,1,0,-7,-45,-17,1,2,1
1528279695259330,-2,-1,0,-11,-5,9,4,6
1528279695306204,-1,0,15,69,37,7,-5,-8
1528279695306204,2,-2,-8,-9,-9,-5,1,11
1528279695307202,-1,-5,-8,-44,-26,-7,0,-5
1528279695307202,0,-2,4,61,31,1,1,2
1528279695308200,-4,-2,-11,-46,-20,-12,-7,4
1528279695308200,-3,0,-1,-35,-18,-6,2,-9
1528279695314184,-3,-1,7,71,15,4,2,4
1528279695314184,0,1,-1,-18,-9,-5,-7,-2
1528279695315219,-4,-4,-4,24,4,-7,-3,-2
1528279695315219,4,3,16,30,31,13,0,-6
1528279695318194,1,-3,-4,-8,2,1,-2,2
1528279695318194,-4,-2,-2,-18,11,8,1,0
1528279695325156,-1,-1,-4,-21,1,1,0,1
1528279695325156,2,-6,-10,-8,-11,2,11,5
1528279695367042,-1,4,11,39,11,-3,-3,-3
1528279695367042,-3,-6,-14,-46,-15,2,0,-2
1528279695367042,-3,-4,-5,-32,2,5,-1,8
1528279695367042,-5,-2,-4,3,-18,-7,-3,-7
1528279695372044,2,2,-5,-10,-9,-2,0,-3
1528279695372044,0,0,3,10,2,-2,-3,-1
1528279695373027,0,-5,-19,-51,2,10,4,-5
1528279695373027,0,0,8,25,-12,-9,-6,0
1528279695375022,0,2,10,10,16,1,1,-1
1528279695375022,-2,-3,-2,12,-18,-9,-2,-4
1528279695417925,3,3,8,35,14,3,-1,0
1528279695417925,-4,-5,-11,-22,-6,-6,-5,-4
1528279695419901,-4,-3,-4,-12,1,2,5,4
1528279695419901,0,-2,4,-2,8,10,2,-1
1528279695420940,-1,1,12,30,8,-3,-3,-5
1528279695420940,-1,-1,-7,13,6,-1,-1,1
1528279695424889,-5,-1,-4,0,-25,-13,-7,-7
1528279695424889,1,1,-5,-27,-5,-7,-4,-1
1528279695431869,-1,-3,1,11,-1,7,4,0
1528279695431869,-1,0,-3,-23,-5,2,-2,-4
1528279695433864,1,-4,1,10,11,1,-2,-1
1528279695433864,3,-1,-10,-57,-19,-4,3,2
1528279695462806,-5,-2,11,64,17,2,-1,-1
1528279695462806,2,4,6,13,5,-1,0,-3
1528279695463783,-1,-1,-3,-6,-4,8,7,3
1528279695463783,-5,-3,-7,-1,7,1,-2,-3
1528279695469768,2,1,3,-36,-14,-1,3,2
1528279695469768,-4,-3,3,49,23,0,-6,-4
1528279695470766,4,2,-5,-44,-15,-2,2,0
1528279695470766,-4,1,10,45,24,9,2,-1
1528279695491709,2,2,-6,-20,-8,-2,1,4
1528279695491709,-4,-2,1,6,-1,-2,-3,3
1528279695531603,3,0,-5,-19,-9,-11,-10,-7
1528279695531603,-1,-5,-6,-13,10,12,8,1
1528279695532651,0,0,4,39,14,1,-1,1
1528279695532651,1,0,-10,-57,-37,-14,-6,-2
1528279695536641,0,-1,-9,-50,-24,-9,-9,-5
1528279695536641,0,1,24,106,51,23,15,8
1528279695537599,-2,-2,-5,-38,-13,-9,-5,-4
1528279695537599,-2,-3,1,13,3,0,-2,-1
1528279695574531,3,1,-3,-37,-12,-4,1,13
1528279695574531,-1,-1,2,13,8,1,3,-5
1528279695576483,0,-2,-2,21,14,9,7,5
1528279695576483,-3,-2,-6,-32,-24,-13,-12,-5
1528279695581513,0,-2,-1,20,-2,-1,-1,-5
1528279695581513,-1,-2,-4,-36,-14,-2,-1,-5
1528279695583464,0,0,6,29,13,4,4,1
1528279695583464,0,0,-3,25,8,1,1,-2
1528279695589449,-1,0,-9,-33,-15,-11,-6,-4
1528279695589449,-3,-1,-4,9,2,2,2,4
1528279695591444,-1,0,17,39,19,6,3,1
1528279695591444,2,3,-4,-8,-10,-8,-3,-1
1528279695642360,-4,-4,-8,-18,-6,2,-1,-5
1528279695642360,1,-1,0,5,9,0,-4,1
1528279695650339,-3,-1,-6,-19,-17,-7,-5,-1
1528279695650339,0,0,1,-2,-1,1,0,-4
1528279695651282,1,1,-1,-10,-4,-1,0,2
1528279695651282,-1,0,-3,-20,4,0,-1,1
1528279695653328,-5,-2,2,34,6,-6,-6,-12
1528279695653328,-3,2,13,30,7,2,0,4
1528279695678265,-1,-3,-4,1,1,4,2,-5
1528279695678265,2,0,-2,-12,-3,4,2,4
1528279695689183,0,-2,-3,-12,-13,-2,1,0
1528279695689183,0,-3,-1,18,24,10,3,2
1528279695690225,-3,0,5,-13,-24,-10,-3,0
1528279695690225,-2,-1,-6,8,0,-7,-5,-1
1528279695695165,0,-1,-4,-19,-8,-3,-3,1
1528279695695165,-3,-3,-5,-11,-7,-1,-3,-3
1528279695696164,-4,-4,-8,-16,4,0,-1,-1
1528279695696164,0,0,-1,-62,-17,-2,-1,-3
1528279695697162,-4,-1,8,72,25,7,1,0
1528279695697162,0,1,0,-23,-12,-9,-4,-3
1528279695708132,-1,-2,2,9,-3,-8,-5,-5
1528279695708132,-3,-3,1,37,13,0,-1,-1
1528279695717111,-1,-4,-7,-20,8,6,7,1
1528279695717111,2,1,-7,-48,-29,-9,2,2
1528279695739050,-3,-2,-10,-6,4,-1,-9,-6
1528279695739050,-3,1,6,18,10,4,1,-3
1528279695746080,0,0,6,45,22,6,5,4
1528279695746080,-2,-4,-3,3,1,3,1,-1
1528279695747026,-1,1,1,-20,-9,-2,1,-1
1528279695747026,1,0,0,41,12,2,1,1
1528279695755012,-2,0,-3,1,-3,-7,-5,-1
1528279695755012,2,-1,-6,-42,-25,-5,0,1
1528279695784090,-4,-3,10,64,29,12,3,1
1528279695784090,-3,-1,-1,4,5,2,-1,1
1528279695793059,0,0,-1,-10,-9,0,-1,-2
1528279695793059,-2,0,0,3,6,-4,-2,-2
1528279695799231,1,1,1,-22,-12,-7,1,1
1528279695799231,0,-2,-7,-9,-6,-2,-4,-3
1528279695801009,-5,-3,-2,-4,-5,-2,-2,-1
1528279695801009,-1,-3,-7,-5,2,8,3,1
1528279695805870,5,2,-3,-10,-1,0,3,2
1528279695805870,-2,-1,-1,-10,-9,-4,-2,-2
1528279695814846,1,2,-3,-28,-10,-9,-8,-3
1528279695814846,-1,-4,3,41,18,10,6,3
1528279695837083,-3,-1,-2,9,4,1,0,0
1528279695837083,-1,0,-2,-7,-17,-6,0,2
1528279695851912,-3,-2,2,-30,-6,6,2,-1
1528279695851912,-4,0,1,2,-7,-14,-12,-8
1528279695852791,2,-4,-2,6,13,12,3,1
1528279695852791,1,-2,0,-12,-8,-3,0,0
1528279695859724,0,0,-4,-3,-2,0,0,2
1528279695859724,-3,-1,-1,13,7,-2,-3,-4
1528279695874981,-1,-1,-1,-4,-9,-10,-4,-5
1528279695874981,-4,-1,-2,-23,-18,-7,-6,-2
1528279695876901,-2,-2,-2,4,8,4,1,-1
1528279695876901,0,0,0,-2,2,-1,0,0
1528279695921496,-5,-4,-3,3,0,-6,-5,-4
1528279695921496,-1,0,0,-9,-5,-7,-7,-5
1528279695922168,1,0,-2,-23,6,8,5,3
1528279695922168,-1,-2,0,-1,-4,-4,-5,-3
1528279695923181,-1,1,3,14,-1,-1,1,-1
1528279695923181,0,-2,0,2,4,2,2,-3
1528279695927151,-2,-2,-6,-3,-6,-5,-4,-1
1528279695927151,1,1,-3,-15,-13,-6,-3,-2
1528279695934625,0,0,-3,-17,-10,-5,-4,-2
1528279695934625,-1,-3,1,20,30,18,6,2
1528279695936182,1,-1,-1,-25,-10,-3,-1,-1
1528279695936182,-3,-2,0,18,8,-1,-3,-3
1528279695965099,-2,0,-3,-5,-5,-1,1,0
1528279695965099,-3,1,2,16,-3,-6,-3,-3
1528279695966762,-1,-3,-4,-11,-6,-1,1,-1
1528279695966762,-1,2,1,-3,4,2,0,2
1528279695971020,-1,-1,0,2,3,2,1,-2
1528279695971020,-1,-1,-3,-15,-14,-9,-2,-2
1528279695979730,2,0,2,30,22,12,2,0
1528279695979730,-1,0,-4,-7,-5,-3,-3,-2
1528279695994690,-1,-2,-4,0,1,0,-2,0
1528279695994690,-1,-2,5,33,19,7,2,-1
1528279695995688,-1,-1,-2,-1,-8,-8,-5,-3
1528279695995688,-1,-2,-3,1,1,0,2,0
1528279696016632,0,1,-1,-5,-13,-8,-2,-3
1528279696016632,-1,-2,-4,-12,-1,-1,1,0
1528279696024610,-4,0,4,28,-5,-5,-2,1
1528279696024610,-2,-3,-2,-3,3,1,0,-10
1528279696030594,0,0,-3,-9,-1,-2,-1,9
1528279696030594,1,-1,-1,-7,-3,1,2,0
1528279696039588,-1,-2,-2,3,-8,-6,-3,-2
1528279696039588,-1,-2,-1,-12,-14,-10,-4,0
1528279696054530,-2,-1,0,9,25,16,4,-2
1528279696054530,0,-1,-3,-18,-16,-3,0,-2
1528279696062509,3,-3,-18,-63,-30,-11,-3,3
1528279696062509,0,4,30,82,48,17,5,0
1528279696077381,-2,-2,1,14,-1,-5,-4,-3
1528279696077381,-1,-1,-3,-10,-9,-7,-4,1
1528279696078476,-3,-1,-4,-13,-4,3,2,-9
1528279696078476,0,0,-6,-35,-13,-2,2,5
1528279696090753,1,0,-1,-4,-5,-6,-3,-3
1528279696090753,-5,-3,2,20,15,10,2,-3
1528279696105710,0,-2,0,-2,-2,-6,-3,-2
1528279696105710,1,2,-4,-1,3,4,2,0
1528279696112991,2,-2,3,3,-3,1,1,0
1528279696112991,1,2,-1,-16,-9,2,8,5
1528279696128211,-2,-1,0,12,3,-12,-14,-2
1528279696128211,-6,-4,-5,-12,-14,-6,-7,-4
1528279696137675,-4,-2,-2,1,-17,-13,-5,1
1528279696137675,0,-2,-1,-3,3,4,-5,-15
1528279696138657,1,-1,4,11,5,4,10,9
1528279696138657,4,0,-6,-24,-14,1,6,4
1528279696150883,-2,-2,3,8,9,-9,-11,-6
1528279696150883,-5,-2,7,43,15,0,-1,-5
1528279696159601,0,0,2,9,7,6,-3,3
1528279696159601,1,-3,-6,-9,-7,1,-5,-1
1528279696174849,2,5,5,-5,10,23,37,7
1528279696174849,-2,-4,-10,-16,-15,-20,-15,-4
1528279696188765,-2,-1,-1,2,-2,-8,-6,0
1528279696188765,9,3,7,20,29,26,32,17
1528279696197163,0,-4,-11,-26,-29,-23,-31,-5
1528279696197163,6,2,10,25,22,18,36,12
1528279696198856,0,-2,-4,-23,-9,-8,-16,-5
1528279696198856,-8,-4,-5,8,-17,-56,-71,-20
1528279696244034,5,6,6,-15,37,82,79,15
1528279696244034,-7,-5,-5,5,-20,-18,-28,-3
1528279696245874,-3,-5,-8,-11,-11,5,17,-2
1528279696245874,-7,-7,-4,15,5,-26,-13,-13
1528279696245874,0,-1,-5,-16,-20,-34,-43,-8
1528279696245874,3,4,4,5,22,46,28,17
1528279696250012,0,-1,-1,-10,3,19,20,-7
1528279696250012,-4,-5,-16,-67,-26,-2,-1,5
1528279696256993,2,4,20,98,36,9,0,-12
1528279696256993,1,-4,-7,-27,-19,-3,19,11
1528279696258987,-5,-3,2,18,-3,-48,-41,-1
1528279696258987,1,-1,-4,-15,-20,-18,-1,3
1528279696271298,-2,-1,-4,-16,5,34,23,-1
1528279696271298,-1,0,-1,-6,-8,-17,-12,-5
1528279696296296,-1,-2,4,2,-13,-10,-8,-5
1528279696296296,-1,-2,2,16,18,15,1,-2
1528279696297981,-5,-4,-7,-19,-8,-7,-10,4
1528279696297981,-6,-2,-3,-1,-11,-30,-28,-15
1528279696301873,-6,-5,-5,-10,-19,-27,-9,-5
1528279696301873,0,2,2,3,2,-21,-6,1
1528279696317162,0,-1,1,8,2,49,17,2
1528279696317162,-1,1,-2,-11,10,44,17,6
1528279696318828,-3,-2,2,6,5,1,-7,-6
1528279696318828,-3,-2,-2,-3,-7,-1,5,-5
1528279696331041,-1,-3,-3,-2,-15,-88,-38,-4
1528279696331041,2,2,-1,-12,-3,23,4,0
1528279696339773,2,1,-1,-2,10,17,5,11
1528279696339773,2,2,7,36,9,23,25,0
1528279696362018,2,10,-5,-11,-10,-23,-26,-5
1528279696362018,-2,-22,-3,2,3,-12,-6,-2
1528279696364238,1,1,-1,-13,0,14,7,1
1528279696364238,-3,-2,-4,-10,-6,14,16,0
1528279696377240,-5,-5,-5,-5,-11,-30,-25,-9
1528279696377240,0,7,1,-5,0,-8,-3,-2
1528279696378972,1,2,2,11,5,-2,9,1
1528279696378972,-2,-8,-4,-6,-13,1,-11,-7
1528279696400034,-1,-1,2,-4,2,-6,6,2
1528279696400034,2,5,1,2,-5,-58,-32,-2
1528279696401930,4,2,4,17,37,98,65,10
1528279696401930,-2,3,0,6,5,-9,-4,0
1528279696414140,-3,-7,-5,-11,-4,21,17,3
1528279696414140,-1,-3,-2,-3,-14,-32,-14,-6
1528279696421312,-2,-1,-1,5,-7,-50,-27,-6
1528279696421312,2,1,1,-6,2,6,8,2
1528279696437382,-3,-3,-1,-1,7,41,19,5
1528279696437382,-4,-3,-4,-1,1,2,-2,-3
1528279696438416,-3,-1,-3,-1,-3,-2,-4,-4
1528279696438416,-2,-3,-3,-2,-4,2,-2,-2
1528279696468273,-3,-4,-6,-9,-16,-52,-32,-7
1528279696468273,5,6,3,9,12,30,15,4
1528279696474338,-1,-1,0,1,1,19,14,0
1528279696474338,-1,-2,0,-1,-2,-10,-12,-1
1528279696475107,-2,-3,-1,-2,1,4,3,-2
1528279696475107,-2,0,-2,-2,-3,7,4,-3
1528279696481071,-1,-2,0,-1,-6,-17,-14,-5
1528279696481071,0,-2,0,-1,-3,-11,-6,-1
1528279696498134,0,0,0,-3,2,2,3,1
1528279696498134,-1,1,-1,-3,0,12,6,0
1528279696527931,0,-1,-1,-4,-2,-9,-7,-2
1528279696527931,0,0,-3,-1,0,3,2,-1
1528279696527931,-1,-3,-1,-2,0,4,1,0
1528279696527931,-3,-1,-1,-2,-2,-7,-4,1
1528279696529925,-1,1,0,0,-3,-5,-3,-1
1528279696529925,-1,-1,0,-2,0,3,3,-1
1528279696534413,1,-2,-3,-2,-2,-5,-5,-2
1528279696534413,0,0,0,0,0,-4,-3,-1
1528279696540139,0,-1,0,-1,-3,-2,-1,-1
1528279696540139,-3,-2,-2,-2,1,5,2,1
1528279696581296,-2,-2,-1,-1,-2,-4,0,1
1528279696581296,-2,-1,-2,-2,-2,0,0,-4
1528279696582311,-1,0,-1,0,0,-5,-4,0
1528279696582311,-1,1,-1,0,1,5,3,-1
1528279696583025,-1,-2,-2,-2,-3,-1,-2,-1
1528279696583025,0,-1,-2,0,-1,-4,-2,0
1528279696587025,0,-1,0,-1,-1,-4,-1,-1
1528279696587025,0,-2,-1,-1,2,3,2,0
1528279696592998,1,-1,-1,1,-1,-2,-1,0
1528279696592998,0,-1,0,-1,-2,-3,-1,-2
1528279696601974,-3,-1,-2,1,-1,-2,-5,-2
1528279696601974,0,0,-1,-1,-1,3,1,0
1528279696640890,-1,-2,-3,-2,-2,-1,0,-1
1528279696640890,1,-2,0,-1,-2,-2,0,-1
1528279696641867,-1,-1,-1,-1,-2,1,-2,1
1528279696641867,-1,-1,-1,-1,1,0,0,-1
1528279696643865,-1,-2,-2,-2,-1,0,-3,-1
1528279696643865,-2,0,-1,-2,-2,-2,-2,-1
1528279696646908,0,-2,-2,0,0,-2,-1,-1
1528279696646908,0,-1,0,-1,-2,-1,0,1
1528279696653058,0,-1,0,0,1,-1,-1,-3
1528279696653058,-3,-1,-2,-3,-2,-1,-1,-2
1528279696661832,-1,-1,-1,-2,0,-2,0,-3
1528279696661832,-2,-2,-1,-1,-1,1,1,-1
1528279696683759,-2,-1,-2,-2,0,0,-2,-2
1528279696683759,-2,-1,-1,-2,-1,-3,-2,-1
1528279696691987,0,-2,-2,-2,-2,-1,-2,-2
1528279696691987,-1,0,-1,-2,-1,1,1,-1
1528279696698999,-1,1,2,-2,-1,-1,0,0
1528279696698999,0,-1,0,-3,-2,-2,-3,-1
1528279696700982,-1,-2,0,0,0,-2,0,-1
1528279696700982,0,-1,0,-1,0,0,-1,0
1528279696712931,0,0,-1,-1,0,-1,-2,-2
1528279696712931,1,0,0,0,-2,-2,-2,-1
1528279696729886,0,-2,-1,-3,1,-1,0,-1
