timestamp,emg1,emg2,emg3,emg4,emg5,emg6,emg7,emg8
1528184490463404,-1,-8,3,-15,-35,-5,3,1
1528184490463404,1,1,-5,-8,-15,-14,-2,0
1528184490464402,-1,-2,-26,-25,-5,-48,-5,1
1528184490464402,-5,1,-3,-13,-7,-19,-9,-3
1528184490478363,-1,-5,-2,19,32,6,-4,-1
1528184490478363,-2,-3,0,-7,-25,7,-1,-2
1528184490479361,1,-2,-4,-2,17,-3,1,-2
1528184490479361,1,-2,5,1,-6,23,3,1
1528184490501248,0,2,3,4,-42,-30,0,-1
1528184490501248,-1,-5,-1,1,15,2,1,-3
1528184490501248,0,1,9,1,7,7,-2,-2
1528184490501248,-4,-3,-5,-4,-16,-40,-9,-4
1528184490523189,-2,0,0,-4,-18,21,-3,-4
1528184490523189,0,-1,2,10,64,60,5,2
1528184490524187,1,3,-1,14,4,10,5,1
1528184490524187,-1,-2,-1,-17,-26,-39,-1,1
1528184490546140,0,-2,-5,-4,-66,-30,-9,-1
1528184490546140,-2,-2,7,-8,45,-4,-10,-8
1528184490547128,2,3,-1,2,27,7,10,7
1528184490547128,-2,-3,-3,5,-100,26,5,3
1528184490561124,1,1,9,7,115,29,1,0
1528184490561124,-1,-3,-9,-20,8,-39,0,-2
1528184490561124,-2,-3,6,37,-44,-73,-15,-7
1528184490561124,-1,-1,0,-3,47,94,2,-1
1528184490583070,-1,-1,-2,3,13,13,9,-1
1528184490583070,2,-1,-7,-22,-45,-15,1,2
1528184490584027,-4,-4,-5,-20,-74,-87,-13,-4
1528184490584027,-1,0,0,8,54,48,3,2
1528184490599984,0,0,-3,30,70,77,11,-2
1528184490599984,-1,-4,5,14,16,-28,7,2
1528184490600981,-2,0,-3,-18,-42,-22,-1,0
1528184490600981,-3,-4,-1,25,8,-39,-9,-6
1528184490628907,-2,1,-5,-9,-24,-69,-12,-4
1528184490628907,-4,0,8,-10,-97,-24,-15,-4
1528184490629904,0,-1,-10,-24,83,91,-1,-1
1528184490629904,4,3,10,12,38,78,28,-4
1528184490642870,5,3,0,-3,17,10,21,12
1528184490642870,3,-3,4,24,-58,-90,-5,8
1528184490643867,-7,-4,-1,10,-1,-45,-18,-8
1528184490643867,-10,-3,-1,-31,-9,-91,-25,-30
1528184490659826,0,-6,-7,-7,-124,23,-3,9
1528184490659826,5,2,-10,-7,83,71,10,7
1528184490660822,6,2,15,42,52,27,11,-1
1528184490660822,3,3,-1,-13,-54,-69,-8,9
1528184490680782,-5,-5,-6,6,-41,-27,-14,-13
1528184490680782,-5,-4,-5,-37,-30,60,1,-3
1528184490681765,2,5,11,-58,30,75,16,3
1528184490681765,0,0,-1,-29,-37,-64,-11,-3
1528184490711723,1,1,2,13,16,-30,-9,-1
1528184490711723,-6,-2,-12,2,10,22,-1,-5
1528184490712722,1,-1,9,34,-15,7,5,2
1528184490712722,-1,-3,-12,-2,30,-7,7,8
1528184490718682,-6,10,40,-6,22,12,-10,-8
1528184490718682,-4,-5,-6,-16,-12,-82,-19,-3
1528184490718682,-5,-6,-12,-24,-128,65,-6,-11
1528184490718682,5,-1,-7,1,75,63,18,9
1528184490741605,2,-3,-5,41,38,0,13,2
1528184490741605,1,-1,-3,39,16,4,-8,-8
1528184490741605,-1,2,1,-21,-52,-104,-1,4
1528184490741605,-14,-7,-4,9,-71,-87,-61,-7
1528184490763547,-2,-4,3,-78,9,72,7,-6
1528184490763547,9,12,4,32,47,65,40,14
1528184490764563,-1,1,-18,14,19,-14,-1,0
1528184490764563,2,-2,5,-46,-10,14,9,-2
1528184490778507,-4,-2,-3,-12,9,-83,-21,-5
1528184490778507,-10,-8,12,20,-61,36,-11,-4
1528184490793467,2,0,3,14,63,13,10,-1
1528184490793467,5,5,-1,38,16,40,19,8
1528184490800449,-5,-7,-2,32,-45,-49,-13,-4
1528184490800449,0,-1,-37,-62,6,-4,-3,-4
1528184490801451,-2,2,10,14,-1,3,-2,0
1528184490801451,0,-1,22,-6,-28,3,1,-2
1528184490823387,1,-4,-38,-29,19,40,6,7
1528184490823387,-2,-1,-3,67,14,6,3,-3
1528184490824385,-3,-8,-6,-86,-14,-25,-6,1
1528184490824385,-4,-2,-46,18,-2,-17,-4,-5
1528184490837351,7,10,38,56,-2,21,5,2
1528184490837351,-4,0,19,-26,-4,-8,-6,-5
1528184490845328,0,4,41,64,-3,-17,-4,-5
1528184490845328,3,2,15,-20,24,8,0,1
1528184490860288,5,0,-33,-29,-2,-1,4,0
1528184490860288,-7,2,15,57,3,-8,-2,-1
1528184490861285,-2,-5,12,-44,-3,2,2,4
1528184490861285,-1,-3,8,39,1,-4,-18,-3
1528184490883227,2,-1,-12,-73,-37,-20,-1,0
1528184490883227,4,4,-6,18,30,15,-2,-3
1528184490884224,-1,1,-15,-38,3,11,9,-2
1528184490884224,0,-4,-29,29,-8,-3,7,1
1528184490906166,-9,-2,19,44,-3,-26,-6,-6
1528184490906166,0,-2,14,-16,-13,19,-4,3
1528184490907163,4,9,-22,-6,18,-2,-1,-2
1528184490907163,0,-6,-21,-18,-19,-14,0,-1
1528184490921125,0,3,-47,1,6,11,-4,1
1528184490921125,-6,-16,6,-25,11,-4,3,-5
1528184490921125,0,1,4,32,2,-3,-3,1
1528184490921125,0,-9,-9,-6,-14,-8,-4,-2
1528184490943068,-1,1,30,-12,-5,7,5,2
1528184490943068,-1,0,-12,-23,-6,-6,-3,-3
1528184490944513,-1,-4,-60,23,22,6,-2,-1
1528184490944513,-1,3,66,21,-7,5,7,0
1528184490957533,-3,-5,-1,36,10,-7,-26,0
1528184490957533,2,4,-7,-12,-12,-2,6,-5
1528184490965507,1,-10,-13,12,-5,-2,-1,1
1528184490965507,-9,2,-7,-55,-6,10,14,6
1528184490989396,-12,-6,-2,-5,2,2,3,-1
1528184490989396,18,9,21,-45,-7,-9,-5,4
1528184490989396,2,-6,-18,24,-1,4,4,0
1528184490989396,1,0,-7,27,23,1,-10,-5
1528184491003360,0,-1,-9,-40,-6,-3,5,0
1528184491003360,-11,-4,-7,53,2,-3,-8,-6
1528184491004358,-7,-3,3,-30,0,-3,0,-2
1528184491004358,1,10,39,14,-17,-3,-14,0
1528184491019317,1,-10,-2,14,-5,-4,23,-2
1528184491019317,-2,0,-6,47,28,8,3,2
1528184491025300,1,0,11,-31,-6,-2,1,-3
1528184491025300,-2,-3,-20,-35,6,-3,-6,-2
1528184491040261,3,4,25,15,-3,-1,-5,-1
1528184491040261,2,-10,-12,-51,-22,-3,2,1
1528184491041257,-6,8,40,60,-1,-9,-10,1
1528184491041257,0,-19,-22,5,7,-3,7,3
1528184491071177,0,-1,18,35,9,9,3,-3
1528184491071177,-5,2,2,-47,2,2,-18,-6
1528184491072175,-1,-4,-22,-29,-16,-8,-8,3
1528184491072175,4,4,-13,-59,-23,-3,4,2
1528184491077162,16,9,-7,1,17,-2,-11,0
1528184491077162,-15,-3,0,19,0,10,25,6
1528184491086138,8,-5,3,35,8,-4,-10,-4
1528184491086138,-11,4,2,-78,-15,-2,2,-5
1528184491101097,-3,-1,8,62,12,0,-5,4
1528184491101097,2,0,-12,-19,1,0,7,-1
1528184491101097,-5,0,7,-25,-5,-5,-4,-2
1528184491101097,2,-1,10,28,5,3,7,-1
1528184491131018,-1,-2,-14,-48,-15,-8,-17,-6
1528184491131018,0,0,12,-18,-5,-6,-6,-1
1528184491132015,-5,-6,-16,41,4,2,8,0
1528184491132015,5,6,17,5,-1,1,-9,-2
1528184491138000,-5,-1,7,-46,-8,-1,2,-2
1528184491138000,0,-5,-61,-7,-8,-4,-4,-5
1528184491145978,0,2,12,-14,12,-2,2,0
1528184491145978,-1,-2,-23,36,-3,-2,-6,-2
1528184491160937,-5,0,11,5,7,-1,15,-1
1528184491160937,6,15,14,6,2,0,-46,3
1528184491161935,-6,-23,-6,-30,-13,-2,22,-6
1528184491161935,0,0,-11,31,9,12,11,4
1528184491182879,-4,-6,-17,-28,-4,-5,2,-4
1528184491182879,-1,-2,-10,-8,-13,-12,-30,-1
1528184491183876,0,6,-8,17,5,0,-14,-1
1528184491183876,5,6,39,23,2,15,18,1
1528184491197839,-5,-7,0,12,-8,-7,3,-5
1528184491197839,-2,0,5,23,10,-2,1,-6
1528184491205817,0,2,1,-30,-9,-6,-17,5
1528184491205817,-1,-6,-11,-39,-4,-3,-2,-1
1528184491220833,-1,4,-7,25,6,10,2,-1
1528184491220833,1,-3,11,-52,-11,-7,10,-2
1528184491221776,-1,3,3,25,-2,0,-1,-2
1528184491221776,-3,-3,-16,15,6,-6,-5,-4
1528184491243774,2,4,44,-14,-12,0,-4,1
1528184491243774,-2,-4,1,36,-4,-2,5,-1
1528184491243774,1,-2,-6,-23,-6,0,9,1
1528184491243774,1,-2,-22,71,2,-3,-17,-1
1528184491268655,-2,5,-11,-71,-1,-3,-9,-4
1528184491268655,2,-5,5,7,4,2,18,2
1528184491269699,-3,6,23,3,4,5,-1,4
1528184491269699,-2,-4,-21,-4,-8,3,30,2
1528184491280647,-8,-4,18,21,7,6,-3,-1
1528184491280647,-5,-3,12,2,-8,-4,-4,-1
1528184491281615,23,10,-3,56,0,-3,1,-1
1528184491281615,-10,1,20,-43,1,-10,-44,-1
1528184491303555,-9,-5,-29,-29,-4,1,31,-1
1528184491303555,16,-2,8,28,10,18,13,2
1528184491304554,-13,-8,8,27,-8,-5,-8,-2
1528184491304554,2,2,-10,-37,9,-4,1,-6
1528184491326494,1,-5,-29,-2,8,-7,-20,-1
1528184491326494,-8,6,31,31,-2,-4,-11,-5
1528184491327492,3,-4,-26,-44,-4,13,36,11
1528184491327492,3,3,34,21,-8,-7,-15,-3
1528184491349688,-4,3,-2,-1,-10,-1,-5,2
1528184491349688,-1,-3,-15,14,18,5,9,1
1528184491349688,-1,-1,-7,-14,-4,-7,-13,-5
1528184491349688,-5,0,3,-11,3,1,-10,-3
1528184491362638,6,-2,-14,0,-6,-6,-4,1
1528184491362638,-1,-1,-8,4,0,7,18,0
1528184491379354,-1,-1,7,-21,5,7,15,-3
1528184491379354,-1,2,11,7,-9,-4,-1,-2
1528184491386335,3,-2,28,58,24,5,4,4
1528184491386335,0,2,-1,-2,-14,-5,-6,0
1528184491388329,-7,-1,5,-51,-6,-1,-3,0
1528184491388329,2,-3,-15,17,-6,-3,-12,-2
1528184491409567,0,-2,-23,1,-5,-6,-15,-3
1528184491409567,-5,-4,-6,-13,5,0,4,-1
1528184491410625,-1,1,24,-11,1,-4,-3,-2
1528184491410625,-1,-3,-11,26,11,2,10,0
1528184491432233,2,2,8,-34,-18,-7,0,2
1528184491432233,-3,-2,6,18,4,-2,-3,-1
1528184491433211,0,2,-12,8,15,-1,-15,-4
1528184491433211,-4,-6,-18,-59,-11,-1,8,1
1528184491447203,-6,2,18,14,-19,-3,17,-2
1528184491447203,0,-3,8,-25,0,2,-19,2
1528184491448169,-4,-2,-24,57,-6,-5,7,-5
1528184491448169,3,5,19,-2,0,-3,4,-2
1528184491468673,2,-4,-20,-25,-5,4,-17,-3
1528184491468673,1,-1,-12,31,30,2,10,4
1528184491470667,-1,-1,18,-11,-24,-10,-19,0
1528184491470667,-3,-5,-9,7,13,11,20,5
1528184491482635,-1,0,-13,-22,-3,-4,-8,-3
1528184491482635,-7,1,18,30,-10,-2,-11,-9
1528184491491611,1,-2,-11,-2,3,0,-7,4
1528184491491611,4,5,-1,-13,-3,-2,6,-3
1528184491505879,0,-4,-14,-22,8,-1,-11,-1
1528184491505879,-1,0,8,-28,-5,-1,11,3
1528184491512557,-8,-7,-13,19,5,-3,-3,-7
1528184491512557,-2,-3,-17,-34,-17,-5,-14,-2
1528184491529213,-1,-3,43,82,7,-1,9,-1
1528184491529213,-1,-1,-14,-18,0,-1,3,-1
1528184491530884,-1,1,2,-11,-13,-2,-4,-1
1528184491530884,2,-2,-6,2,-2,2,0,-1
1528184491543334,2,-3,-17,-53,13,3,-14,-1
1528184491543334,-2,-1,3,-30,-31,-10,14,-6
1528184491551520,1,0,3,20,3,-4,-16,-1
1528184491551520,-1,-2,-7,-16,7,9,32,2
1528184491574487,-5,-1,10,27,14,3,-18,-1
1528184491574487,4,0,2,-9,-11,2,21,5
1528184491575479,-1,1,-12,-34,-5,-5,-11,-4
1528184491575479,-5,-1,-2,-5,-3,-8,-9,-5
1528184491589443,4,2,8,22,-1,0,12,-4
1528184491589443,-3,-5,-14,-23,-2,-7,-10,-2
1528184491590438,-3,2,-3,32,6,3,6,-1
1528184491590438,-1,0,1,-26,-2,-3,-4,-3
1528184491602407,-2,-3,-21,31,12,-1,5,-3
1528184491602407,4,5,21,-8,-21,-3,-2,1
1528184491611417,-2,-13,-16,-10,3,3,5,0
1528184491611417,-4,0,15,12,6,-2,-8,1
1528184491625382,-1,-1,-23,-16,-5,-3,2,0
1528184491625382,1,2,-6,30,-5,-1,-8,1
1528184491632364,0,4,10,-34,-5,3,4,-2
1528184491632364,1,-2,-1,48,6,-1,-7,-1
1528184491656533,-3,-6,-18,38,10,1,4,0
1528184491656533,-1,0,20,-80,0,-4,-7,-4
1528184491658292,1,3,18,62,-7,-3,-4,2
1528184491658292,-2,-1,-5,-25,5,2,14,0
1528184491662809,0,-3,-5,-42,-17,-5,-5,-2
1528184491662809,-2,-2,-10,18,1,-4,-9,-2
1528184491671788,1,-3,2,0,9,4,5,0
1528184491671788,-1,-1,2,18,-9,-4,-18,0
1528184491685755,-1,-2,-14,-25,-16,-4,13,-4
1528184491685755,0,-1,1,12,5,-1,0,-2
1528184491692973,-2,-1,-4,-43,2,-1,-21,1
1528184491692973,-1,-2,1,52,3,2,0,1
1528184491708912,0,-1,8,-21,-3,6,2,4
1528184491708912,-3,-6,-13,-18,-1,-4,10,-2
1528184491710683,-1,1,6,40,-6,-11,1,-3
1528184491710683,-1,-2,-7,-45,-5,-4,-10,-2
1528184491723092,-6,-3,5,28,-3,-2,-14,-2
1528184491723092,-4,-3,3,53,12,4,-1,0
1528184491747946,0,1,2,-38,-8,2,6,0
1528184491747946,0,-2,-12,11,-4,-4,2,-2
1528184491748637,1,1,25,51,-2,-2,7,-2
1528184491748637,1,-3,-19,-26,-7,-3,-16,-3
1528184491752627,-2,-2,3,9,10,-3,-6,-1
1528184491752627,0,4,9,21,-6,-1,-6,0
1528184491768584,-2,-3,-1,-17,-5,0,24,-2
1528184491768584,-1,5,-4,17,3,0,0,4
1528184491770578,2,-2,-7,-43,-3,-5,3,-2
1528184491770578,-4,-8,1,44,-2,-6,-28,-3
1528184491791523,1,-1,-4,-47,7,9,22,2
1528184491791523,-6,-3,4,29,-2,-1,-10,-3
1528184491793517,2,6,5,-7,15,3,-8,1
1528184491793517,1,-3,-4,-23,-6,-3,10,1
1528184491806590,1,2,-1,-4,-7,-6,-8,-1
1528184491806590,-1,0,-9,-2,0,-1,11,-5
1528184491820445,-3,-4,-7,33,7,1,-8,0
1528184491820445,-5,-1,-3,-42,-11,5,22,-3
1528184491829687,6,3,11,-9,4,0,-8,4
1528184491829687,0,-2,11,36,-3,-2,2,-1
1528184491830419,-2,-3,-21,-24,-4,-1,-8,-3
1528184491830419,-1,1,12,32,0,-7,-10,-3
1528184491851605,-3,-4,-18,-11,-10,-6,-8,-2
1528184491851605,0,-2,-1,-20,11,3,2,1
1528184491853356,-1,-2,2,-22,-3,1,5,-1
1528184491853356,-2,2,-3,3,8,6,8,-1
1528184491865570,1,2,20,26,-6,-7,-6,4
1528184491865570,0,-3,-15,-42,-4,1,-17,3
1528184491874316,-1,-2,2,18,-4,-1,17,-2
1528184491874316,-1,0,-7,-6,-2,-2,-3,0
1528184491889262,-4,-3,9,14,8,1,-10,-1
1528184491889262,-1,-5,-6,-4,-2,0,15,0
1528184491891485,-1,0,-11,-21,-3,0,-9,-2
1528184491891485,-1,-1,2,38,-3,-2,-9,1
1528184491912216,-2,3,4,2,-2,-7,-2,-8
1528184491912216,1,-2,-7,-5,-1,2,9,1
1528184491913198,1,2,11,-11,-4,-2,2,-2
1528184491913198,-1,-1,-10,-25,2,3,1,-2
1528184491934386,1,-3,-11,-21,-6,-2,-11,-1
1528184491934386,-2,-2,6,15,1,-1,0,-2
1528184491935142,0,-1,-5,-9,-8,-1,5,-1
1528184491935142,0,-3,-4,-12,0,-2,-4,1
1528184491949362,-3,2,1,53,3,1,4,-1
1528184491949362,1,4,13,-15,-6,-4,-4,0
1528184491951315,0,0,1,11,-1,0,-1,0
1528184491951315,-5,-11,2,6,8,-4,0,-4
1528184491973338,-2,2,-28,-11,6,1,-2,0
1528184491973338,0,-3,13,-44,-31,-10,-4,-3
1528184491974346,0,0,2,21,13,4,-1,-2
1528184491974346,1,8,14,9,3,3,6,-1
1528184491986566,-1,-8,-7,-7,-1,1,-1,0
1528184491986566,-1,-3,-14,9,5,-1,-6,-3
1528184491993312,0,-2,7,7,-11,-7,3,-1
1528184491993312,-1,-4,-2,8,5,2,1,-2
1528184492016221,-1,3,4,-24,1,0,-2,-1
1528184492016221,0,2,-2,2,2,-1,-2,-1
1528184492018214,-2,-5,-2,39,-4,-1,0,-1
1528184492018214,-1,2,-2,-10,5,-3,0,-2
1528184492031498,-1,-1,-5,-18,-5,3,7,2
1528184492031498,-2,-3,-6,13,18,4,-1,-1
1528184492033223,1,2,14,12,-2,1,1,0
1528184492033223,-1,0,-15,-23,-7,-3,-4,-1
1528184492045509,0,-1,-6,-1,-2,-1,-3,-3
1528184492045509,1,-1,-3,7,1,-1,-2,0
1528184492054155,-4,-1,-10,-29,5,0,-1,-2
1528184492054155,-2,-3,11,46,-3,1,7,-1
1528184492069090,-1,-1,-3,-43,-7,-3,-2,0
1528184492069090,1,0,1,25,5,0,-2,-1
1528184492070075,1,1,-1,-18,-2,-6,-27,1
1528184492070075,-3,-5,3,-12,-5,-4,21,-4
1528184492099239,0,-4,-7,3,1,5,9,1
1528184492099239,-1,0,-8,2,-2,-2,0,-4
1528184492100992,1,-3,-2,1,6,5,2,3
1528184492100992,1,-1,1,-16,-5,-6,-16,-2
1528184492104985,-1,0,-4,18,0,-4,2,0
1528184492104985,-7,3,-7,-26,-10,-4,-13,-1
1528184492113957,4,-9,-6,2,0,5,11,-1
1528184492113957,3,-2,-5,-10,-1,1,-5,2
1528184492128918,-6,-4,-1,6,0,-5,-5,-4
1528184492128918,-1,5,24,17,1,-2,-1,-2
1528184492130913,-3,0,-21,-9,-5,-1,6,-2
1528184492130913,0,-1,0,-11,-2,-1,0,-2
1528184492151856,-1,-1,17,3,2,-1,-3,-2
1528184492151856,0,-3,-19,6,0,-3,0,0
1528184492152892,-4,2,34,8,-2,-1,1,-4
1528184492152892,1,-3,-7,-19,-6,0,-2,0
1528184492165847,0,1,0,17,7,-2,-9,-1
1528184492165847,-1,-5,-5,-11,-2,-2,1,-2
1528184492174012,0,-1,-2,6,-2,3,4,-1
1528184492174012,-1,1,-3,-12,1,-1,-4,0
1528184492189538,0,0,1,-15,-4,-1,-3,-1
1528184492189538,0,-3,-3,32,1,0,2,0
1528184492191480,-4,0,5,28,6,-1,1,-3
1528184492191480,-1,10,7,-65,-13,-3,-1,1
1528184492211816,-3,-12,-6,5,-3,-2,-3,-1
1528184492211816,6,-3,-4,-11,-3,-1,0,1
1528184492213504,-5,-3,-3,30,-1,-6,-4,-4
1528184492213504,-1,0,-4,10,1,0,-1,-2
1528184492225985,1,3,0,-16,-2,2,0,-1
1528184492225985,-2,-1,10,-2,0,0,-2,-1
1528184492234151,0,0,-4,-9,1,0,1,1
1528184492234151,1,0,5,26,2,-1,1,-1
1528184492249106,0,0,-17,-11,-3,-3,-2,-3
1528184492249106,-3,-3,-16,-3,1,0,-1,-3
1528184492251101,1,-1,-4,-15,-3,-3,3,3
1528184492251101,-3,-2,1,7,1,-1,-6,-1
1528184492272183,3,0,2,0,-2,-2,-4,0
1528184492272183,-4,0,12,5,2,3,13,-1
1528184492273055,-4,-5,-11,-40,-4,-2,-6,-3
1528184492273055,4,0,8,25,-1,2,14,0
1528184492293980,-1,-1,10,-3,0,1,-9,0
1528184492293980,-1,-1,-23,-2,-1,-2,-3,-2
1528184492295984,-1,0,-1,-14,-7,-1,-2,-1
1528184492295984,-1,-2,1,4,7,0,-7,0
1528184492309067,-6,-1,-6,11,0,-1,0,-4
1528184492309067,-4,-1,2,-17,-5,-2,-4,-1
1528184492310935,-1,-2,8,-8,0,0,1,0
1528184492310935,-1,-1,-6,-7,-1,-4,-4,-3
1528184492339176,0,2,1,9,-3,-1,3,1
1528184492339176,0,-4,-8,-9,2,-3,-1,0
1528184492340880,1,3,15,2,-5,-1,-8,-3
1528184492340880,-1,-1,4,8,-2,-1,7,0
1528184492344897,0,1,23,5,3,2,-1,-1
1528184492344897,1,-3,-16,16,-3,-3,-3,-1
1528184492353820,1,0,-23,-9,7,4,4,-1
1528184492353820,-2,-1,13,5,0,0,-6,-1
1528184492368781,-2,-4,-22,-11,-6,-4,-1,-3
1528184492368781,0,0,21,0,-3,-5,-9,0
1528184492374809,-2,-4,5,4,-1,0,8,-2
1528184492374809,-2,0,-8,5,2,4,-11,0
1528184492391773,-2,-2,3,5,-1,-3,7,-1
1528184492391773,1,1,-6,-9,3,6,-15,10
1528184492392771,-5,-4,-3,-3,-4,-5,6,-21
1528184492392771,-4,-7,-3,2,-1,-3,-1,-3
1528184492404741,2,1,-5,0,-3,-2,-6,1
1528184492404741,-4,1,1,0,4,1,-1,-1
1528184492413714,1,2,-4,-3,1,-2,-1,7
1528184492413714,-1,-3,-6,-16,-5,-2,-15,-3
1528184492428668,-3,-3,-6,8,0,-1,5,0
1528184492428668,-2,-2,2,5,-3,0,10,-2
1528184492435602,-1,3,27,31,3,-1,-30,0
1528184492435602,-1,-3,-52,4,0,-3,11,-4
1528184492458540,1,0,26,7,-1,1,9,2
1528184492458540,2,-1,-11,-31,-4,1,-13,1
1528184492460535,-2,-5,-6,-7,-4,-3,24,-4
1528184492460535,-4,2,5,1,2,0,-13,4
1528184492465521,-9,-6,-12,-8,2,2,11,-1
1528184492465521,7,6,5,11,3,-3,6,-6
1528184492474524,-1,-4,-4,-6,-6,-5,-18,1
1528184492474524,4,1,3,-7,-6,-2,-2,0
1528184492488493,-2,0,-9,-1,3,1,-2,-3
1528184492488493,-3,-4,17,3,-4,-2,-6,-1
1528184492495475,0,1,-19,-7,1,-1,3,3
1528184492495475,0,1,3,-1,3,2,14,1
1528184492511433,1,-1,4,-2,-4,-4,-36,-8
1528184492511433,-1,-1,0,1,-1,-2,4,-2
1528184492513421,1,2,3,-10,-4,0,1,1
1528184492513421,-2,-4,21,13,-4,-5,-1,-2
1528184492525395,1,3,8,5,1,1,1,0
1528184492525395,-2,-5,-45,-32,-4,-3,-5,-3
1528184492534337,-2,0,2,12,2,0,8,0
1528184492534337,0,-6,-9,-13,1,3,0,-1
1528184492548357,3,3,8,-7,-4,-4,-37,-1
1528184492548357,-2,0,10,0,-1,2,32,-4
1528184492555336,0,-1,12,11,6,6,22,4
1528184492555336,-4,-1,-27,-7,-1,-1,-2,-2
1528184492571294,-1,0,0,3,2,-6,-9,-4
1528184492571294,-9,3,0,2,-5,-2,-2,3
1528184492573235,7,1,-3,-3,-2,0,-1,-3
1528184492573235,-3,-1,14,6,-1,0,19,1
1528184492585201,-1,-4,-3,0,-2,-2,8,-1
1528184492585201,-1,-1,4,-2,1,-5,-9,-4
1528184492594178,0,2,5,-1,-1,-5,-8,0
1528184492594178,-3,-4,-2,-9,-5,-3,-8,-4
1528184492608141,1,0,1,3,1,10,48,5
1528184492608141,-1,-3,13,6,0,-2,3,-3
1528184492615176,-4,-1,-9,-4,-3,-2,-6,-1
1528184492615176,2,-1,-9,-4,-4,-10,-54,-3
1528184492631112,-3,-3,7,-4,-3,0,37,-2
1528184492631112,1,-1,0,2,4,1,2,1
1528184492633079,-1,-1,-4,8,-2,-3,-5,1
1528184492633079,-2,-1,20,5,-1,1,-20,-3
1528184492645095,0,-4,-52,-19,-4,0,13,3
1528184492645095,3,1,13,23,3,2,1,0
1528184492654018,-4,-4,-5,-34,-5,-2,0,-2
1528184492654018,-2,4,5,4,-3,-8,-4,-2
1528184492668249,0,-1,1,4,3,-3,-26,-2
1528184492668249,0,-7,-6,-4,-3,6,7,-1
1528184492683202,0,-4,-4,1,0,-2,3,0
1528184492683202,1,2,1,2,2,4,37,3
1528184492692152,-4,0,8,3,-3,-3,2,0
1528184492692152,1,-1,-5,-6,1,-3,-23,-3
1528184492692917,1,0,2,8,1,-1,-18,-3
1528184492692917,0,-4,0,-8,1,0,0,0
1528184492713889,-1,1,3,3,0,-3,-9,-3
1528184492713889,-2,-3,1,1,-2,-4,-3,-1
1528184492715853,-3,0,22,7,-2,-1,2,-2
1528184492715853,7,-3,-3,-1,-1,3,11,1
1528184492736852,-1,-1,-31,-5,-2,-1,-9,-1
1528184492736852,2,2,16,4,3,-1,4,0
1528184492737795,-5,-4,-35,-22,-4,-3,-3,-3
1528184492737795,-4,-2,1,-3,-5,1,-16,-6
1528184492751756,2,0,17,-6,-1,2,19,7
1528184492751756,3,1,-3,11,1,-2,-11,-2
1528184492752757,-3,1,2,6,1,-3,26,-1
1528184492752757,-2,-2,-6,-5,-1,-3,-5,-2
1528184492773965,-2,-1,-1,-11,-2,-3,-7,-5
1528184492773965,5,-2,-3,-11,-2,-1,11,2
1528184492775694,-3,-3,-5,-10,-2,-1,-11,-1
1528184492775694,0,1,-1,11,-1,0,1,-1
1528184492787930,-4,0,5,7,1,5,4,-1
1528184492787930,-9,-4,5,0,-1,-3,3,-1
1528184492796637,0,-4,-13,-2,-3,-2,-22,-2
