timestamp,emg1,emg2,emg3,emg4,emg5,emg6,emg7,emg8
1528450385822029,0,1,-1,-2,-1,1,1,-1
1528450385822029,-1,0,-1,-1,0,-1,-1,-2
1528450385829010,-1,-1,1,-1,0,1,-1,-1
1528450385829010,-1,-3,-1,-1,1,-1,0,-2
1528450385835992,0,-1,0,-2,-1,-1,0,-1
1528450385835992,0,0,0,0,-2,-1,0,-1
1528450385842972,-1,0,-1,0,-1,-1,-2,0
1528450385842972,-1,0,-1,-1,0,0,0,-2
1528450385853943,0,-1,-1,-2,0,-1,-2,-1
1528450385853943,-1,-1,0,-1,-2,0,0,0
1528450385865910,0,0,-2,0,-1,1,-1,-1
1528450385865910,-1,-2,-1,-2,-2,1,-1,1
1528450385872892,-1,1,-2,0,0,-1,1,-1
1528450385872892,0,0,-1,-1,-1,0,0,-1
1528450385887852,1,-1,-2,-1,-1,-1,-1,2
1528450385887852,-1,-1,-1,0,-1,-1,-1,0
1528450385898823,1,0,-2,1,1,0,-2,-1
1528450385898823,-2,-3,-1,-2,0,1,-1,0
1528450385910791,0,0,0,1,0,-1,0,-1
1528450385910791,-1,-1,0,0,-1,-1,-2,-1
1528450385917773,0,0,-2,0,-1,-1,-1,0
1528450385917773,0,1,1,1,-2,-1,-1,-1
1528450385932747,-1,0,-1,-1,-3,0,-1,-1
1528450385932747,0,0,0,0,-2,-1,0,0
1528450385940711,-1,-1,-2,1,0,-2,-1,-2
1528450385940711,-2,-1,-2,-1,0,0,-1,0
1528450385955671,0,1,1,-1,0,-3,-2,-2
1528450385955671,0,0,-1,-1,0,-1,-1,-1
1528450385962657,-1,0,-1,-1,-1,1,0,-1
1528450385962657,-1,1,-1,1,1,0,0,-2
1528450385970632,1,-2,-1,-1,0,-1,0,-2
1528450385970632,0,1,0,1,0,0,0,1
1528450385978610,-2,0,0,0,-1,-1,-1,1
1528450385978610,0,0,-1,-4,-1,0,0,-1
1528450385993571,0,-1,-2,-2,0,1,-1,-1
1528450385993571,-1,-1,-3,-2,0,-1,1,-1
1528450386003567,-2,-1,1,-1,0,-2,0,-1
1528450386003567,-1,1,0,1,-1,-1,-1,0
1528450386015527,-3,-2,-4,-3,-3,-1,-1,-1
1528450386015527,0,-1,0,1,-2,1,-1,-1
1528450386023507,-1,1,3,5,0,-1,0,0
1528450386023507,0,-3,-4,-2,1,-1,1,-2
1528450386030489,3,1,1,0,0,-1,2,2
1528450386030489,-2,-2,-2,-3,-2,-1,0,0
1528450386038487,2,-2,0,-2,-2,-2,-1,-1
1528450386038487,1,-2,1,1,-1,-1,0,2
1528450386054457,-2,-1,-2,-1,-1,0,-1,0
1528450386054457,-3,-2,-1,1,1,-1,-1,-3
1528450386060435,0,-1,1,-2,0,0,-1,0
1528450386060435,-1,0,-1,-1,0,0,0,-2
1528450386075368,-1,-2,-1,1,1,-2,-1,1
1528450386075368,1,0,0,-2,-2,-1,0,1
1528450386083348,-2,-1,-3,-4,-2,0,-2,1
1528450386083348,-1,1,4,0,-1,-1,-2,-1
1528450386099305,0,-1,-1,0,-1,0,1,0
1528450386099305,0,-2,-3,-1,-1,-2,-2,0
1528450386120276,1,0,-1,0,-1,0,0,1
1528450386120276,-1,0,-2,-1,-2,1,-1,-1
1528450386128260,-1,-1,-3,-1,-2,-1,-1,-2
1528450386128260,-1,0,0,0,-1,1,2,1
1528450386135209,1,-1,-3,-1,0,0,-2,-1
1528450386135209,-2,-2,1,-1,-2,0,0,0
1528450386158185,0,0,-1,-2,1,0,-2,1
1528450386158185,0,0,0,0,1,-1,-3,0
1528450386165128,-2,2,1,-2,-2,-1,3,0
1528450386165128,0,0,0,-1,-2,0,0,-1
1528450386180115,-2,-2,-1,-1,0,-2,-3,-3
1528450386180115,-2,1,-1,0,1,-2,1,1
1528450386196087,0,0,-1,-1,-1,-1,0,-1
1528450386196087,-2,0,-4,-1,-2,-1,-1,-2
1528450386203064,1,0,1,1,1,0,-2,-1
1528450386203064,1,0,1,-2,0,-1,0,-1
1528450386211005,-1,0,-2,-1,-1,-2,0,0
1528450386211005,1,0,-2,0,-1,-1,0,-1
1528450386217986,0,-2,-2,-3,-2,0,-1,2
1528450386217986,0,-2,-1,2,1,0,-1,0
1528450386232946,-3,0,0,0,0,1,-1,-1
1528450386232946,-2,-1,-1,-1,0,-1,-1,-1
1528450386247906,0,-3,0,1,-2,0,0,-1
1528450386247906,0,-1,0,0,-1,-2,-4,-2
1528450386255924,-1,0,0,-2,-1,1,1,0
1528450386255924,1,1,-2,-3,-1,-1,-2,0
1528450386270881,-1,-1,0,0,-1,0,0,0
1528450386270881,-3,-2,0,-1,0,1,0,-1
1528450386277841,1,-1,-1,1,-1,0,-3,1
1528450386277841,3,-1,4,0,1,0,1,-1
1528450386292787,-1,-1,-2,0,0,-2,0,-1
1528450386292787,-1,0,-3,-1,-1,-2,-1,1
1528450386307748,0,-1,0,-1,0,-2,-1,0
1528450386307748,-2,-2,1,0,-1,-1,-1,-1
1528450386315725,-2,0,-2,-3,0,-2,-1,-3
1528450386315725,-2,-1,-2,1,-1,-2,-2,-3
1528450386330725,3,0,0,-1,-1,0,-1,-3
1528450386330725,-4,0,0,0,-1,0,1,3
1528450386337704,4,-2,0,-1,0,-3,0,2
1528450386337704,-3,-1,-1,-2,0,0,-1,-3
1528450386352627,-3,-1,0,2,-2,0,0,-1
1528450386352627,3,0,-1,-2,-2,-1,-2,0
1528450386367588,-2,0,-1,-2,0,0,0,-2
1528450386367588,0,0,1,1,-1,-1,-1,-2
1528450386375566,-2,0,-1,-2,0,-2,-2,2
1528450386375566,1,-1,-1,-1,0,0,0,0
1528450386390525,2,-1,-1,-1,-1,0,-1,0
1528450386390525,0,-1,-3,-2,0,0,-1,-1
1528450386398561,1,-1,0,0,-1,-1,0,1
1528450386398561,-2,-1,-1,-1,0,0,1,-2
1528450386413503,-3,-1,0,1,1,0,0,-3
1528450386413503,0,-2,0,-1,-1,-1,-1,0
1528450386428457,0,0,-1,1,-1,0,-2,1
1528450386428457,-1,-1,-3,-3,-1,-1,-1,-2
1528450386435405,0,-1,-2,-3,-2,2,-1,-1
1528450386435405,-4,-1,0,-2,-2,0,-1,-1
1528450386450366,4,0,1,0,0,-1,-1,1
1528450386450366,-2,0,-1,1,0,-1,-2,-2
1528450386458344,0,-2,0,-1,-1,0,0,2
1528450386458344,-1,-2,-1,0,0,-2,1,0
1528450386473304,-1,-1,-2,-2,-1,-1,0,-4
1528450386473304,-1,1,1,0,0,-1,0,-1
1528450386488302,0,-1,-1,-1,-1,-1,0,-1
1528450386488302,2,-1,-1,-3,1,0,1,1
1528450386495247,-1,0,1,0,-1,-1,1,-2
1528450386495247,-1,0,-1,-1,0,-1,0,1
1528450386510205,-2,0,-1,-1,-1,0,-1,0
1528450386510205,-1,1,0,-1,-1,-1,1,-1
1528450386518185,-1,-2,-2,0,0,0,-1,-1
1528450386518185,4,2,0,0,2,1,-1,1
1528450386533371,0,0,1,0,1,0,-1,-1
1528450386533371,-3,1,-2,-2,-2,0,1,-1
1528450386548329,-1,-1,-2,0,-1,1,-1,-2
1528450386548329,0,0,-2,-1,-1,-2,1,-1
1528450386555311,0,1,0,1,0,-2,-1,-2
1528450386555311,0,0,1,2,-1,1,0,-2
1528450386570301,-3,-1,0,-2,1,-1,0,-1
1528450386570301,-2,-1,0,0,-1,1,0,-2
1528450386578249,1,1,0,0,-1,-2,0,-1
1528450386578249,-1,-3,-1,-1,-2,-1,-3,2
1528450386593210,-2,1,0,-1,0,-1,0,-1
1528450386593210,0,-1,-1,-1,-1,-1,-1,1
1528450386608169,-1,-1,0,-1,0,1,0,0
1528450386608169,-1,-2,-1,-4,0,-2,0,-1
1528450386615152,1,-2,-1,-1,-1,-1,-1,0
1528450386615152,-3,-1,0,-1,0,-2,-2,-3
1528450386631108,-2,-1,0,0,-1,-1,0,0
1528450386631108,1,1,0,2,0,1,-2,1
1528450386638092,-1,0,-1,-2,-1,1,-1,-1
1528450386638092,-2,0,-1,-1,-1,0,0,-3
1528450386653179,-1,-1,-1,1,0,0,-1,-1
1528450386653179,0,1,-1,-1,1,1,-1,0
1528450386668009,-2,0,0,0,-3,0,0,0
1528450386668009,0,0,-4,-2,0,0,-1,-2
1528450386676001,-2,-1,0,0,-2,-1,-2,-1
1528450386676001,0,-1,0,0,-1,0,0,0
1528450386698152,0,-2,-2,1,1,0,0,-1
1528450386698152,-1,-1,3,0,0,0,0,0
1528450386706102,-1,-1,-2,-1,-1,0,0,-1
1528450386706102,0,-1,-1,1,-1,0,0,0
1528450386721045,0,-2,0,-1,-1,-1,0,-3
1528450386721045,0,0,0,-1,0,-3,-1,0
1528450386736004,0,0,1,2,1,-2,-1,-1
1528450386736004,0,-1,-1,-1,0,-1,-2,-1
1528450386751111,-7,-1,-2,-2,-2,-2,-2,-8
1528450386751111,2,-1,2,2,1,-1,-2,1
1528450386757947,0,0,-2,-1,-1,-1,1,0
1528450386757947,0,0,0,0,-1,-1,0,0
1528450386773046,1,-1,-2,0,0,0,-1,-1
1528450386773046,0,-1,0,1,-2,1,-1,-1
1528450386781024,0,0,-3,-2,-2,-1,0,-2
1528450386781024,-1,0,-2,-1,-1,0,-1,-1
1528450386796061,2,1,0,1,-1,0,-1,3
1528450386796061,0,-1,0,-4,0,1,1,0
1528450386810363,0,-1,1,1,2,-1,-2,1
1528450386810363,0,0,-3,-2,1,0,-3,0
1528450386818405,-2,0,0,1,-2,-1,-2,-1
1528450386818405,0,-1,-1,-1,-1,0,1,-2
1528450386833575,0,-1,1,1,-1,0,-2,1
1528450386833575,-1,-1,-2,-3,0,-1,-2,-3
1528450386840557,0,-1,0,-3,1,-2,-2,0
1528450386840557,-2,-1,-1,2,-1,-2,0,-1
1528450386855518,1,-2,-2,-2,-1,0,0,1
1528450386855518,-2,-1,0,1,-2,-2,-1,0
1528450386870476,0,1,1,-1,-1,-1,0,-1
1528450386870476,-2,0,0,-2,-2,-2,-1,-2
1528450386878492,0,0,-1,1,1,-1,0,-1
1528450386878492,-5,0,-1,0,-1,-1,-1,-4
1528450386893415,2,1,0,1,0,-1,1,1
1528450386893415,-4,-1,-3,-1,0,-2,-1,-4
1528450386900443,2,0,0,-1,-1,0,-2,0
1528450386900443,-1,0,-2,-2,0,1,0,-1
1528450386915356,0,-1,-1,-2,-1,-2,0,-1
1528450386915356,0,0,0,1,0,0,0,-1
1528450386930361,-1,-1,1,0,0,0,-1,0
1528450386930361,1,-1,1,-2,1,1,-2,1
1528450386938323,-1,1,0,-2,-1,1,-2,-2
1528450386938323,2,-2,0,1,0,0,1,0
1528450386953284,1,-2,-1,-2,-1,-1,0,1
1528450386953284,0,-3,1,-1,-1,-1,0,2
1528450386960237,-1,-2,-1,0,1,0,0,-2
1528450386960237,0,-1,0,0,-1,-1,-1,-2
1528450386975235,0,0,0,-2,1,1,0,0
1528450386975235,-1,-1,-1,0,0,-1,-3,1
1528450386990157,-1,0,0,-2,-1,1,1,-1
1528450386990157,-1,0,-2,-1,1,-1,0,-1
1528450386998137,-2,0,-3,0,1,0,0,-2
1528450386998137,0,1,-3,0,0,-1,-1,-1
1528450387013105,0,1,0,1,0,0,0,-1
1528450387013105,0,1,-1,-1,-2,-2,-1,0
1528450387021087,-2,-2,-1,1,-1,-2,-1,-1
1528450387021087,0,-1,-1,-3,-1,0,1,-1
1528450387036033,0,-1,0,-1,0,-2,-2,0
1528450387036033,-2,-1,1,-1,0,-1,-1,1
1528450387051041,0,1,-1,1,-2,-2,-2,0
1528450387051041,-3,-1,0,0,-1,0,-2,-3
1528450387057976,-1,1,0,-1,-1,0,1,2
1528450387057976,-1,-1,-1,-1,-1,-1,0,-3
1528450387072962,-1,0,-2,0,-1,-2,0,0
1528450387072962,-1,0,-1,1,-1,-1,-2,1
1528450387080940,-2,-1,-2,0,-1,-3,-1,-2
1528450387080940,0,0,-1,0,-1,1,-1,1
1528450387095907,-1,-1,1,-1,-1,-2,0,-3
1528450387095907,1,-1,0,-1,1,0,1,0
1528450387110861,0,-1,0,-3,-2,-1,-2,-1
1528450387110861,-2,-1,1,0,-2,1,-1,-3
1528450387117815,1,0,-1,0,-2,1,-1,1
1528450387117815,1,0,0,-1,-1,-1,0,0
1528450387132824,0,0,0,0,-1,-2,1,-1
1528450387132824,-1,0,1,-2,0,-2,1,-1
1528450387140754,1,-2,-1,-1,0,-1,-3,1
1528450387140754,-1,-1,-2,-1,-2,-1,-1,-1
1528450387155714,-2,-1,-2,-1,-1,-1,-2,-2
1528450387155714,-1,-1,-1,0,0,-1,0,2
1528450387162696,-1,-1,-1,-2,1,1,1,0
1528450387162696,-1,1,1,0,0,0,0,1
1528450387170682,1,0,-1,-1,-1,1,-1,-1
1528450387170682,0,0,-1,0,1,-1,-3,0
1528450387177695,-3,-1,0,1,-2,0,0,-2
1528450387177695,0,-1,-1,1,-2,0,-2,0
1528450387193612,-2,2,-1,0,0,-1,0,-1
1528450387193612,0,-1,-1,1,-2,0,0,1
1528450387200597,-1,0,0,-2,0,0,0,0
1528450387200597,-2,0,0,1,0,-2,-1,-2
1528450387215596,-1,-1,-1,-2,1,0,0,1
1528450387215596,0,-1,0,-1,-1,1,-1,0
1528450387222544,1,0,0,-1,-1,-2,0,-2
1528450387222544,-5,-2,-2,-3,0,-2,-3,-2
1528450387230516,3,0,1,-2,0,-1,1,2
1528450387230516,2,0,-1,0,-1,0,1,1
1528450387238625,-2,1,-1,0,-1,0,0,0
1528450387238625,0,-1,-2,0,-1,0,-1,-1
1528450387253471,-2,0,-2,-1,-2,0,-1,-1
1528450387253471,-1,-1,-2,-1,1,-2,-2,-1
1528450387268415,-1,-1,0,0,0,0,-2,0
1528450387268415,0,0,-2,0,1,-1,0,0
1528450387283375,-2,-3,-1,0,0,1,0,-1
1528450387283375,0,-1,-1,0,-1,1,-1,-1
1528450387290551,-2,1,0,-1,-2,-1,0,-1
1528450387290551,-1,-1,-2,-1,2,1,0,1
1528450387298503,0,-1,-1,0,-2,-1,-1,0
1528450387298503,0,-1,-1,-1,0,1,1,-1
1528450387305622,-1,-3,-3,-1,-2,-1,-1,-2
1528450387305622,2,-1,0,-1,0,-1,0,0
1528450387320571,3,1,0,0,-2,0,2,2
1528450387320571,1,-1,0,-1,-2,0,0,-1
1528450387335404,-1,-2,-2,0,-2,-1,-2,-1
1528450387335404,0,-2,0,0,0,0,-1,1
1528450387343383,-1,0,-1,-2,-1,0,-2,-1
1528450387343383,0,-1,0,0,-1,0,-1,0
1528450387350361,1,-1,1,-1,0,0,0,0
1528450387350361,0,-1,0,-1,0,-2,-1,-1
1528450387358339,0,-2,0,0,0,-1,-1,0
1528450387358339,-1,0,2,-3,0,-1,-1,-4
1528450387373310,-1,0,-1,-1,-2,0,1,1
1528450387373310,-1,-1,-1,0,-2,-3,-2,0
1528450387388268,-2,-1,0,0,-1,-1,0,-1
1528450387388268,-3,0,-3,0,-2,-1,-1,-3
1528450387403352,2,0,-1,0,0,0,-3,1
1528450387403352,-2,-1,-2,-2,-1,1,1,0
1528450387410202,-1,0,-1,1,0,1,-1,-1
1528450387410202,-3,0,0,-1,0,-3,0,0
1528450387418323,-1,-2,0,-1,0,-1,-1,-4
1528450387418323,1,-1,-1,0,-1,0,1,1
1528450387425401,0,0,1,0,0,0,0,-1
1528450387425401,1,0,1,-2,-1,-1,0,-2
1528450387433338,0,1,0,1,0,-1,-1,2
1528450387433338,-1,1,0,-2,-2,0,-1,-2
1528450387440485,-2,-1,-2,0,-2,-1,-1,-2
1528450387440485,0,-2,0,0,-1,0,0,-1
1528450387456206,-2,0,-1,0,-2,0,0,-2
1528450387456206,0,-1,-1,-1,0,-1,-2,0
1528450387463348,0,0,0,0,0,-1,1,-1
1528450387463348,-1,-1,-1,1,-1,-1,-2,1
1528450387471205,-6,-2,-1,-2,-1,-2,-2,-7
1528450387471205,2,1,1,1,0,1,2,4
1528450387478312,0,0,0,-2,0,-1,1,1
1528450387478312,-1,-2,0,-1,0,-1,1,0
1528450387493110,1,1,0,-1,-1,-1,0,-1
1528450387493110,-3,0,-1,0,-1,-2,-1,-2
1528450387501149,0,-1,-1,-1,-2,-1,-2,1
1528450387501149,-2,0,0,-1,0,0,1,1
1528450387516152,1,-4,0,0,-1,-2,-1,0
1528450387516152,-1,-1,-1,0,-1,-2,0,-1
1528450387523252,-1,-1,-1,-1,-2,0,-1,1
