timestamp,emg1,emg2,emg3,emg4,emg5,emg6,emg7,emg8
1528282398970738,1,-1,-1,0,-1,-1,0,0
1528282398970738,-1,-2,0,-2,-1,0,1,-1
1528282398970738,0,-3,-4,0,-3,0,0,-2
1528282398970738,-5,-3,-2,-1,-1,1,-3,-3
1528282398971735,0,-2,-2,1,-1,-2,-3,-4
1528282398971735,-1,0,0,0,1,-1,-1,-1
1528282398973758,0,-5,-1,-1,-1,-2,-1,0
1528282398973758,-2,-1,-1,-3,-1,-2,-1,0
1528282398981707,-1,2,0,-3,0,1,1,0
1528282398981707,-2,0,-1,-1,0,-1,0,-1
1528282398983730,-3,2,-3,0,-3,-1,1,1
1528282398983730,3,0,1,2,-3,-2,0,-1
1528282398999687,3,4,1,0,-3,-2,-2,-2
1528282398999687,-5,-5,-3,0,-3,-1,0,-2
1528282399006642,-5,0,0,-2,-2,-1,-1,-2
1528282399006642,2,-1,0,-1,1,1,-1,1
1528282399014620,-1,-2,0,0,-2,-1,-1,2
1528282399014620,1,0,-3,-2,-1,-1,-1,-3
1528282399029580,-1,-1,-2,-1,2,-2,0,-2
1528282399029580,-1,-2,-1,0,-2,-2,0,-2
1528282399039553,-2,-1,1,0,-1,-3,0,-1
1528282399039553,-1,-1,-1,-1,-2,1,-2,0
1528282399051521,-2,0,0,-2,-1,-1,-1,-1
1528282399051521,1,0,-1,-2,-2,-6,-5,-1
1528282399091414,1,0,0,0,5,13,3,0
1528282399091414,0,1,-1,1,-1,0,3,-1
1528282399092412,-1,-2,-1,-1,0,1,-1,-3
1528282399092412,-2,-1,-1,-3,-9,-10,-3,-3
1528282399093409,-3,-3,0,-2,-2,-4,-2,-3
1528282399093409,-3,2,-1,1,0,3,1,0
1528282399096401,-1,2,-3,1,0,-1,-1,1
1528282399096401,-1,-1,-1,1,1,3,-1,1
1528282399102385,-1,-4,-3,-5,-7,-13,-4,-2
1528282399102385,-2,-4,-3,-3,-2,2,-2,-3
1528282399111362,-1,-1,0,1,1,-1,-1,-4
1528282399111362,-1,-1,0,-2,-5,-5,0,-2
1528282399117346,-2,-3,0,2,4,7,1,1
1528282399117346,-3,-3,-1,-2,0,-2,0,-1
1528282399134301,-2,2,-2,-4,-4,-1,-2,-2
1528282399134301,0,1,2,2,4,5,3,2
1528282399140284,-1,2,1,-1,-3,-4,-1,-1
1528282399140284,-1,0,-1,-2,0,-3,-3,-2
1528282399163222,-2,-1,-1,-3,-1,-1,-5,-2
1528282399163222,0,-3,-2,0,0,-1,-3,-2
1528282399164220,-1,0,1,1,-1,2,1,3
1528282399164220,0,-2,0,-1,-3,-5,-2,3
1528282399180177,3,-1,-1,-2,1,-3,1,-1
1528282399180177,-8,-11,-2,-4,1,-7,-5,1
1528282399180177,-6,10,0,-3,-2,12,-1,-4
1528282399180177,1,1,1,1,4,19,4,1
1528282399214085,0,-1,1,0,-5,-7,-1,0
1528282399214085,0,1,0,1,4,-9,-1,-2
1528282399214085,1,-6,-4,-6,-20,-61,-23,-2
1528282399214085,-3,-2,-2,-3,-1,23,10,-2
1528282399223062,-1,4,3,11,24,53,21,7
1528282399223062,3,0,0,-3,-7,-4,1,-1
1528282399224060,-2,-1,-3,-1,2,0,-7,-3
1528282399224060,-3,-1,-2,-2,-12,-47,-22,-7
1528282399238024,-5,-4,-3,-5,-10,-26,-14,-4
1528282399238024,-1,0,1,3,8,44,20,3
1528282399245004,1,-1,0,0,-1,11,10,-1
1528282399245004,-3,-2,0,-3,-1,-6,-1,-1
1528282399260962,1,-1,6,4,-1,-7,-2,-1
1528282399260962,-1,1,1,-3,-24,-37,-9,-5
1528282399261959,-1,-2,-1,3,26,36,3,1
1528282399261959,-1,-2,-5,-2,-3,-4,-1,-1
1528282399282903,-3,-3,-9,-4,-5,-2,-3,-3
1528282399282903,0,2,-5,0,7,8,-5,-2
1528282399283901,-2,-1,-2,-1,-9,-13,-4,-4
1528282399283901,-4,-4,-4,-6,-5,-27,-21,-6
1528282399297864,-2,-4,-2,1,10,63,28,1
1528282399297864,-2,-3,-5,-5,-13,-22,4,-3
1528282399298861,1,-1,-1,0,3,9,5,3
1528282399298861,3,0,-2,4,-7,-12,-7,2
1528282399320830,1,1,-2,-7,-10,-12,2,5
1528282399320830,-1,-2,-6,-11,-7,14,4,2
1528282399321831,-2,-3,-6,2,2,-9,3,-1
1528282399321831,4,0,-2,-3,11,3,0,0
1528282399342788,-2,-5,-6,-15,-32,-30,-17,-9
1528282399342788,-1,-1,-3,16,43,30,1,-5
1528282399343742,3,4,0,4,-20,-19,-5,3
1528282399343742,-3,1,-4,-1,6,7,-3,-1
1528282399358737,3,3,4,14,10,-19,0,2
1528282399358737,-3,-3,-6,-12,-15,16,7,1
1528282399358737,-1,-2,0,-6,0,20,8,2
1528282399358737,-6,0,4,11,6,1,0,-2
1528282399380646,8,-1,-6,-19,-20,-23,-14,-2
1528282399380646,-4,-4,-4,-3,-13,-45,-27,-8
1528282399381639,-3,-4,-7,-10,-8,-12,-1,-5
1528282399381639,6,5,0,9,14,36,22,7
1528282399403580,-2,1,-2,9,28,13,1,2
1528282399403580,1,5,10,12,13,12,0,-1
1528282399404577,-2,-1,-4,-6,-8,-5,-1,-5
1528282399404577,-2,-4,0,-13,-11,-8,-4,0
1528282399418580,-4,-1,2,3,-7,-15,-9,-3
1528282399418580,0,1,2,2,2,16,9,2
1528282399425558,-1,-2,5,1,10,-4,0,-3
1528282399425558,1,-1,2,-3,-4,2,-2,-2
1528282399440528,-1,1,3,3,4,9,4,3
1528282399440528,1,0,5,8,3,4,-2,1
1528282399441478,0,-6,-14,-22,4,2,2,3
1528282399441478,1,2,-1,-19,-18,0,5,0
1528282399463475,-7,-5,-6,-11,-8,-9,-6,-4
1528282399463475,-4,-3,1,-5,-6,-21,-11,-5
1528282399464459,2,5,4,13,4,-2,-3,0
1528282399464459,0,-5,-4,4,12,14,1,-1
1528282399477387,1,0,0,-7,-9,-5,-5,-1
1528282399477387,-5,-2,-5,-2,-5,-7,-3,0
1528282399485415,0,-3,3,5,0,1,-1,-1
1528282399485415,6,3,-2,-4,-11,-11,-2,-3
1528282399500357,-1,1,4,7,3,-2,0,-1
1528282399500357,-1,0,1,3,0,2,3,0
1528282399501340,-4,4,4,-6,2,13,5,1
1528282399501340,-4,-3,5,3,0,-6,-1,1
1528282399523260,1,-3,-1,5,8,5,3,0
1528282399523260,3,2,-2,-6,-1,-8,-2,-1
1528282399524257,-2,-4,0,-1,-5,0,-5,-2
1528282399524257,-2,2,-5,4,0,-2,-3,-5
1528282399537223,-3,-2,-1,-3,-2,-4,-3,-3
1528282399537223,1,0,-3,-4,-4,1,0,-3
1528282399545213,-1,2,0,1,1,3,-3,-6
1528282399545213,-1,-2,0,3,0,1,1,-1
1528282399561158,-4,-2,1,2,4,-2,-2,-4
1528282399561158,7,2,-4,-5,-6,-7,-4,2
1528282399561158,1,-5,2,2,0,3,0,3
1528282399561158,-6,0,-1,4,1,0,0,-2
1528282399583127,11,-7,-2,-4,0,8,1,5
1528282399583127,-3,-5,1,1,1,-4,0,-1
1528282399584105,0,8,0,-1,-2,-3,-2,-3
1528282399584105,-8,-6,0,-1,-4,-5,-1,-2
1528282399597117,-10,-1,-5,-1,-5,-3,-1,-4
1528282399597117,-2,-2,-1,-2,0,-1,-3,-1
1528282399605095,-4,-2,-1,-1,-1,-2,-1,0
1528282399605095,-2,-2,6,5,-1,-3,-3,-2
1528282399620999,-2,0,2,-6,-2,-1,1,-2
1528282399620999,1,-2,-5,0,9,7,3,-1
1528282399621998,-1,-6,-4,-2,-3,-5,-2,-2
1528282399621998,1,-1,2,-3,-1,1,0,1
1528282399642993,1,0,0,5,-2,-6,0,0
1528282399642993,-2,-2,-3,-7,-4,-5,-3,-1
1528282399643951,-1,1,-1,3,-2,-2,0,0
1528282399643951,0,-2,-2,0,3,6,4,-1
1528282399657900,0,5,1,1,1,0,-2,-1
1528282399657900,-12,-3,2,-1,-2,-2,-2,-4
1528282399664883,10,5,-1,1,-2,-5,-4,1
1528282399664883,1,0,0,-1,-1,-4,-4,2
1528282399680874,-2,-1,-4,-6,-6,0,1,-1
1528282399680874,-5,0,-3,0,0,6,1,0
1528282399681871,-6,-10,-3,-1,-6,-11,-7,-5
1528282399681871,6,8,-7,-5,-4,7,0,-2
1528282399702799,2,7,4,3,4,-1,1,2
1528282399702799,0,-17,1,7,-2,-4,-1,-2
1528282399703793,-12,-2,-2,-12,1,-1,0,-3
1528282399703793,1,-1,-1,-2,-3,-7,0,-2
1528282399717771,-7,-7,-8,3,-2,4,-2,-4
1528282399717771,-3,3,-7,9,0,-5,0,0
1528282399724740,-1,0,4,-16,-9,-3,-6,0
1528282399724740,-4,-7,-9,-7,-6,-6,-2,-2
1528282399742676,2,1,1,-4,4,4,1,1
1528282399742676,0,4,-1,0,1,0,0,0
1528282399742676,-2,-2,0,10,2,4,1,-2
1528282399742676,-1,-2,-2,-3,-2,-4,-4,0
1528282399771637,-3,-4,-1,-2,-3,-5,-2,0
1528282399771637,-1,-2,-8,-29,-19,-24,-10,-4
1528282399772633,-2,-4,6,45,17,6,6,-4
1528282399772633,2,-1,-11,-23,3,-1,0,0
1528282399777582,2,0,-1,-11,20,14,4,1
1528282399777582,-4,-1,3,27,3,7,-6,-4
1528282399784563,1,-4,-11,-50,-33,-15,-6,-6
1528282399784563,8,5,-5,-30,-22,-17,-4,1
1528282399800519,-7,-11,11,60,6,-7,-1,-1
1528282399800519,6,10,7,-5,8,12,2,3
1528282399801517,6,5,0,16,8,1,-3,7
1528282399801517,-9,-9,-10,24,-2,-18,-8,-21
1528282399831438,0,-2,-15,-25,-21,-6,1,-5
1528282399831438,6,6,4,1,-8,12,2,6
1528282399832434,3,-2,-4,10,5,15,3,3
1528282399832434,-15,-11,-5,-4,1,17,4,-4
1528282399837420,-5,-3,-7,4,-1,-4,0,-3
1528282399837420,1,3,13,12,15,3,-3,-5
1528282399845400,2,0,-11,-16,-4,-1,2,-3
1528282399845400,3,4,7,-9,-14,-9,-4,5
1528282399861365,1,-1,-3,-4,0,-6,-7,-3
1528282399861365,0,-7,-13,-20,-8,1,5,3
1528282399861365,1,3,5,17,17,-9,-2,2
1528282399861365,-2,-3,1,17,19,12,3,3
1528282399883317,-8,0,5,2,-17,-3,-3,-1
1528282399883317,-3,0,-9,-7,-10,-10,-4,-2
1528282399884420,-6,-3,0,5,1,-5,-1,-5
1528282399884420,-5,-2,7,-5,-17,-1,3,-1
1528282399906365,7,3,0,3,8,5,5,2
1528282399906365,-2,-3,-5,-12,-2,0,1,0
1528282399906365,-1,0,3,2,-4,0,-1,-2
1528282399906365,0,0,9,8,17,11,5,3
1528282399922222,0,5,5,-10,-4,-9,-8,-2
1528282399922222,-8,-13,1,8,-3,-7,-2,0
1528282399923191,25,23,8,-5,3,8,3,5
1528282399923191,-41,-5,-3,4,0,-4,-7,-7
1528282399951153,6,1,1,-16,-1,-3,-1,-5
1528282399951153,4,5,3,11,4,0,3,-4
1528282399952150,1,-3,-1,-6,-1,3,2,5
1528282399952150,9,6,2,-5,-1,-2,-3,-1
1528282399966130,-2,3,4,-3,1,-4,-5,-2
1528282399966130,-27,-13,-14,-1,7,3,1,-6
1528282399966130,9,-10,-9,-2,-10,-14,-10,-3
1528282399966130,14,4,-1,2,6,10,3,4
1528282399981079,-6,4,6,-12,-3,0,3,-1
1528282399981079,10,-2,-4,2,-4,-8,-2,-1
1528282399981079,-12,-8,-3,-5,-4,0,-2,-4
1528282399981079,6,-4,0,7,7,-5,-3,1
1528282400002978,1,-4,-7,4,0,7,0,2
1528282400002978,3,2,3,-4,-2,0,-1,0
1528282400003976,5,12,15,2,1,2,1,2
1528282400003976,5,-1,6,2,-2,-8,-2,3
1528282400025917,-32,-6,10,4,1,5,-2,-2
1528282400025917,28,-11,-7,-4,-5,-9,-5,-5
1528282400026915,-8,-8,-7,-1,4,4,3,0
1528282400026915,8,18,18,-5,0,4,0,-2
1528282400048856,0,-9,-30,-2,1,-1,-3,0
1528282400048856,-13,-8,4,-1,-2,-2,-3,-3
1528282400049853,-15,-16,-25,-5,-4,1,-3,-6
1528282400049853,-3,-13,-7,3,-1,0,-2,-1
1528282400062871,0,3,2,-2,-3,-6,-2,-3
1528282400062871,-2,0,-8,-9,-4,0,-2,1
1528282400077778,1,1,0,-2,3,-3,-1,-3
1528282400077778,-1,1,-2,2,11,4,3,1
1528282400085813,10,-1,-4,-8,-3,1,0,1
1528282400085813,4,5,2,0,7,6,0,1
1528282400086753,-3,0,3,-5,-14,-5,-1,-4
1528282400086753,0,-3,-3,0,7,-2,-3,-2
1528282400108748,-1,-4,-1,-6,1,-3,0,-2
1528282400108748,0,7,12,9,-4,-5,-2,0
1528282400109693,-7,-4,-6,-12,4,10,4,-1
1528282400109693,2,-2,-7,20,-11,2,0,0
1528282400122712,5,-4,-18,-48,-3,-3,2,3
1528282400122712,-5,5,3,5,-12,-21,-1,3
1528282400138668,0,-2,0,-13,-30,-18,-4,-7
1528282400138668,-1,-3,-3,14,-7,-10,-2,-3
1528282400145651,6,7,17,45,47,42,16,7
1528282400145651,9,0,-8,-28,-24,-11,-6,8
1528282400146594,-11,-9,-2,-8,10,28,10,3
1528282400146594,3,4,18,42,6,-4,-5,0
1528282400168594,0,0,-8,-30,-21,-19,-10,-6
1528282400168594,-4,-3,-7,-27,-13,-17,-15,-11
1528282400169561,15,18,12,40,22,8,3,14
1528282400169561,-7,-6,-10,-34,-6,11,3,0
1528282400182553,1,-3,1,18,-1,2,2,-4
1528282400182553,-2,7,16,14,-6,-6,-1,-6
1528282400190532,-9,-11,-26,-41,-28,-17,-5,-9
1528282400190532,-18,-2,-1,0,1,0,2,-2
1528282400205437,-7,3,-5,3,-1,-6,-5,1
1528282400205437,30,-2,-13,-5,7,13,5,5
1528282400206455,-22,1,11,18,11,-1,-3,-7
1528282400206455,61,5,-3,-12,5,3,1,12
1528282400229373,-10,0,5,-3,-14,-10,-4,-4
1528282400229373,-13,-6,-8,12,13,9,6,-4
1528282400229373,-9,0,0,2,6,0,-5,-5
1528282400229373,-8,-6,-5,-9,-3,-4,-1,-4
1528282400242478,-3,-3,8,9,-9,-10,-5,-2
1528282400242478,-1,4,-5,-8,4,6,3,1
1528282400250475,4,-1,10,7,4,-4,-3,-2
1528282400250475,-15,-2,-7,-14,-4,5,-3,-4
1528282400265509,8,-1,0,7,1,-2,-3,-1
1528282400265509,-12,0,14,5,6,1,0,-2
1528282400266482,1,-5,-8,-11,-7,-2,-2,-3
1528282400266482,-5,2,1,9,18,6,0,-1
1528282400296911,3,-1,0,-13,-8,2,0,2
1528282400296911,-3,1,1,14,13,11,5,1
1528282400297841,6,4,6,0,-6,-7,-4,-1
1528282400297841,-4,-4,-5,-4,-4,-6,-1,-4
1528282400302736,-4,-4,-7,-12,-5,-10,-6,-1
1528282400302736,1,1,4,2,-2,-2,-3,0
1528282400310715,4,-7,-6,0,2,-4,-3,2
1528282400310715,-4,0,-3,-5,-4,-7,-3,1
1528282400325826,2,-5,0,4,-1,-1,1,-1
1528282400325826,-7,-4,-6,-3,-2,-4,-1,-3
1528282400326672,-2,-6,-3,1,0,3,0,-2
1528282400326672,2,2,-1,-2,-7,-1,1,-4
1528282400356753,-1,0,-4,-3,-6,-6,-2,-4
1528282400356753,-5,0,7,1,3,4,0,-1
1528282400357748,0,-2,-4,3,-2,-3,-3,0
1528282400357748,-17,-12,-11,-8,-9,-4,-4,-5
1528282400362738,2,-2,4,5,-2,-3,1,-1
1528282400362738,2,9,-3,-4,-3,4,0,-2
1528282400370696,2,2,1,0,-1,3,2,1
1528282400370696,-2,-3,1,0,-7,-7,1,0
1528282400385674,-3,-2,-2,3,2,4,1,-3
1528282400385674,9,-9,-7,-1,0,1,0,1
1528282400386513,-5,3,1,-3,-1,-2,-1,-4
1528282400386513,0,-1,-1,-3,-3,-3,0,-2
1528282400416861,9,6,1,1,-2,-3,-3,0
1528282400416861,-11,-4,-1,-6,-4,-3,-1,1
1528282400416861,17,0,0,2,-1,-2,-3,3
1528282400416861,10,5,0,-3,1,1,1,0
1528282400432042,-5,-6,-5,0,1,2,1,-4
1528282400432042,-15,-1,-1,-1,1,0,0,-4
1528282400432042,-10,-3,-3,-1,1,-2,-1,-1
1528282400432042,-1,-3,0,-2,-1,-5,-2,0
1528282400446144,3,3,-1,-1,0,0,-2,0
1528282400446144,-3,-2,0,-3,0,4,0,-4
1528282400447177,-5,-6,1,0,-1,-14,-3,-2
1528282400447177,11,2,-3,-4,-4,7,3,2
1528282400476696,-11,-3,1,0,0,-7,-1,2
1528282400476696,-1,-4,-1,-2,1,1,-2,1
1528282400477603,2,10,2,-1,-1,1,4,0
1528282400477603,-3,-2,1,0,4,1,-1,-2
1528282400491939,-2,-5,-2,-2,-2,-3,-2,-1
1528282400491939,-3,-7,-4,0,-5,-3,-3,-2
1528282400491939,-1,-4,-1,-2,2,11,8,-1
1528282400491939,-3,4,2,0,-3,-4,-1,-4
1528282400504897,-1,4,1,-2,-1,1,-1,-1
1528282400504897,1,-1,-4,-1,-3,-7,-4,-1
1528282400513925,14,-2,1,-1,-2,-2,-5,1
1528282400513925,-13,-8,0,-5,-10,-29,-15,-5
1528282400529037,-1,-2,-1,0,5,33,13,-1
1528282400529037,5,7,2,2,3,-4,5,4
1528282400530872,-3,-2,0,2,2,4,3,1
1528282400530872,-1,2,-4,-2,0,1,1,1
1528282400551820,-2,-2,-4,-4,-8,-21,-11,-3
1528282400551820,-3,-2,-2,-4,-3,-2,-1,-3
1528282400552817,-4,0,1,-2,0,15,5,-1
1528282400552817,0,0,1,-2,-6,-19,-9,-2
1528282400564818,-5,-1,-4,0,3,12,4,0
1528282400564818,2,5,2,1,3,13,9,2
1528282400573858,-2,-5,-4,-2,-10,-38,-14,0
1528282400573858,-4,-2,1,-1,8,26,8,2
1528282400596735,2,-4,-3,-3,-10,-21,-14,-3
1528282400596735,-2,-6,-1,4,10,19,-3,-1
1528282400597733,-3,-1,2,3,0,-6,9,2
1528282400597733,-1,9,-1,2,1,2,1,-2
1528282400611868,4,3,2,1,2,0,3,1
1528282400611868,-2,-1,-3,-5,-11,-16,-8,-3
1528282400612866,-2,-4,-2,-3,-5,-17,-15,-6
1528282400612866,-2,-4,-3,0,-1,31,9,-1
1528282400634010,1,-1,4,0,3,-2,3,0
1528282400634010,0,-1,0,-2,-3,-10,-1,-4
1528282400635007,-4,-2,-1,-2,-2,6,-1,-1
1528282400635007,0,-4,-2,-4,-6,-20,-7,-4
1528282400649117,-1,-2,-3,0,2,3,-3,-4
1528282400649117,-2,-3,-1,-1,-1,1,-2,-2
1528282400650998,-2,2,-1,0,-1,2,-3,-3
1528282400650998,-1,-2,-2,0,0,6,4,1
1528282400671451,-1,1,-3,0,-7,-15,-7,1
1528282400671451,-2,2,-1,0,-1,7,-2,0
1528282400673282,0,0,-4,0,-4,11,8,0
1528282400673282,0,0,-1,1,3,-3,-4,-2
1528282400685407,0,-3,2,4,11,33,5,1
1528282400685407,4,1,1,3,1,-5,5,3
1528282400701207,-2,-4,-1,-1,-2,0,1,-1
1528282400701207,2,-6,2,-2,-8,-6,-1,-1
1528282400709188,0,-5,-4,-3,-10,-19,-3,0
1528282400709188,0,-4,2,-3,-3,-8,-8,-2
1528282400710183,-3,-2,1,-1,-1,2,-4,-2
1528282400710183,-2,-2,-2,-1,0,-6,-1,-1
1528282400731126,0,9,2,-2,1,-6,-6,-3
1528282400731126,-1,2,-2,-1,0,0,-1,-3
1528282400733135,-2,2,0,-1,3,1,1,-7
1528282400733135,-2,-1,-3,-2,3,0,-1,0
1528282400745232,-1,-1,-4,-2,-3,-7,0,2
1528282400745232,-3,-2,-5,-2,-2,5,1,0
1528282400754065,-3,-3,-8,1,-6,-9,0,3
1528282400754065,2,-2,-6,1,-1,18,4,3
1528282400769160,0,1,0,1,4,9,8,2
1528282400769160,-5,-6,-10,-1,-12,-29,-10,-4
1528282400770024,0,-2,-1,-3,5,20,6,0
1528282400770024,-2,-3,0,0,-4,-18,-3,0
1528282400791969,0,0,3,-3,-5,-8,-3,-1
1528282400791969,0,-3,1,0,5,19,1,-1
1528282400792961,0,-1,2,-4,-2,-5,-7,-1
1528282400792961,0,1,2,-3,2,-3,-4,0
1528282400805087,1,-4,-1,-4,1,-6,-6,-1
1528282400805087,3,6,5,-3,0,-9,-2,-2
1528282400814103,0,2,-2,-2,-2,1,0,-3
1528282400814103,0,2,-2,-4,0,1,3,0
1528282400829064,-3,-2,-7,-3,-5,-7,0,-4
1528282400829064,-3,0,-6,0,-2,3,7,1
1528282400831059,0,1,-6,-4,-1,1,3,1
1528282400831059,-1,-2,-5,-1,-1,-1,2,-4
1528282400852082,-1,-2,0,1,-1,2,0,-1
1528282400852082,-2,-2,0,-1,-1,3,2,1
1528282400853021,-1,0,2,3,4,-3,-3,-1
1528282400853021,-2,1,3,0,-6,-2,-3,-1
1528282400864994,-4,-2,-2,3,0,2,-2,-3
1528282400864994,-2,4,3,3,1,-1,-1,-1
1528282400875313,-2,-1,-5,-2,-1,-4,-6,-2
1528282400875313,1,2,6,3,1,3,-1,-1
1528282400889314,-1,-6,-1,1,0,3,-2,-2
1528282400889314,1,-4,6,1,3,2,-1,1
1528282400890311,-1,-2,4,0,-3,0,-3,-2
1528282400890311,-2,-3,6,1,0,1,-2,-1
1528282400911639,0,0,1,-2,-3,-4,0,0
1528282400911639,2,1,1,-2,-2,-6,-4,1
1528282400913492,-1,-1,3,-1,0,-3,-2,-2
1528282400913492,-5,-2,-1,0,-2,-1,-3,-2
1528282400925460,1,1,1,-1,-3,-1,-1,0
1528282400925460,-3,-2,-3,-4,-3,0,2,-1
1528282400934436,3,0,0,0,-1,0,-1,1
1528282400934436,-2,-1,-2,-3,-2,-3,0,-1
1528282400949418,-4,-3,-3,-3,-2,0,1,0
1528282400949418,7,0,-2,-2,-3,0,-2,0
1528282400950392,-10,-2,2,1,0,-1,-1,0
1528282400950392,0,-8,-3,0,-1,-3,-2,0
1528282400971693,1,5,0,0,-2,0,-1,-1
1528282400971693,1,0,-3,0,-2,-2,-1,0
1528282400973679,-8,-11,0,1,2,-3,-2,-2
1528282400973679,3,0,-6,-2,0,-1,-1,0
1528282400985648,-5,-5,-2,-1,-1,0,-2,-2
1528282400985648,1,-1,-2,0,-2,-4,-2,-3
1528282401000625,1,4,0,-1,-2,-2,0,-2
1528282401000625,-4,2,-2,-2,-2,-2,-1,0
1528282401008599,0,-3,-2,0,-1,0,-2,-2
1528282401008599,-10,-4,-3,-2,-1,-1,0,-3
1528282401010598,4,-3,-3,-1,-2,0,-2,-1
1528282401010598,0,0,0,-1,-2,-1,0,0
1528282401031538,0,0,-3,-2,-3,-3,0,-2
1528282401031538,1,-1,0,0,-3,-1,-2,-1
1528282401033529,0,0,-2,-1,-1,-1,1,0
1528282401033529,-2,-1,-2,-1,-1,0,-2,-3
1528282401045501,-1,-4,-4,0,1,1,-1,-2
1528282401045501,-2,-3,-2,-1,-1,-2,1,-2
1528282401059798,4,2,0,1,-1,0,0,1
1528282401059798,-1,-2,-3,-1,0,-2,-2,-1
1528282401068968,-1,-3,0,-3,0,1,-2,1
1528282401068968,-3,0,1,-1,0,1,0,0
1528282401070804,-2,2,-1,-3,-1,-1,-1,-1
1528282401070804,1,2,-1,-1,0,-2,-1,0
1528282401091914,0,-1,1,2,-2,-2,-1,0
1528282401091914,0,-5,-1,1,-2,-2,-1,-1
1528282401092847,-1,-2,-2,-2,-1,-3,0,1
1528282401092847,-3,2,3,2,1,0,1,-2
1528282401104871,-1,2,-5,-3,-2,-3,-1,-2
1528282401104871,0,2,-2,-2,0,0,-2,-3
1528282401114114,0,-1,-4,-2,-2,0,-2,-3
1528282401114114,-2,0,1,0,0,0,0,0
1528282401129410,-4,-2,1,0,-2,-1,-1,3
1528282401129410,-4,-4,-4,-1,-2,0,-2,1
1528282401130262,4,2,-1,0,0,1,1,2
1528282401130262,-2,-2,-2,-2,-1,1,0,-1
1528282401159291,-1,-1,1,-2,1,-1,0,-3
1528282401159291,-5,-2,-1,-2,-1,-2,-1,-3
1528282401160247,3,0,0,-1,1,-3,-2,-1
1528282401160247,1,-3,-3,1,-1,-1,-2,-1
1528282401165256,0,-1,-2,-2,-2,-1,0,-1
1528282401165256,1,0,-1,-3,-3,0,-1,-2
1528282401174201,-3,-2,0,0,-2,0,-3,-1
1528282401174201,-1,-3,-2,-3,-2,-2,-2,-3
1528282401188527,4,2,-2,0,-2,-1,-3,0
1528282401188527,-3,-6,-1,0,0,0,-1,1
1528282401195361,-2,0,-1,1,0,0,1,0
1528282401195361,-1,-3,-2,-1,1,-1,0,-1
1528282401211348,0,-1,1,-1,1,1,0,-2
1528282401211348,-1,1,1,0,-1,-1,-1,-1
1528282401213331,-3,-2,-2,-2,-2,-1,-3,-1
1528282401213331,0,0,0,-1,-2,-1,1,-3
1528282401225412,-4,-2,-1,-1,0,1,0,-2
1528282401225412,1,2,0,-2,1,-3,-3,0
1528282401234248,-4,-2,-3,-1,-2,-2,-1,-2
1528282401234248,-2,-1,-1,-1,0,-2,-1,2
1528282401249349,-1,-2,-3,-1,0,-2,-1,-1
1528282401249349,-1,-2,-2,-2,0,-1,0,-2
1528282401250213,-1,1,-2,0,-2,0,-2,0
1528282401250213,-3,0,-3,-3,-2,1,-2,-1
1528282401271149,-3,-4,-1,-1,0,0,-1,0
1528282401271149,2,4,0,-2,0,-2,1,-1
1528282401278949,0,-2,0,-1,0,-3,0,-3
1528282401278949,0,-2,-2,0,-1,-1,0,0
1528282401284878,-2,-1,1,0,-2,-1,-2,-2
1528282401284878,-2,-2,-1,1,-1,-1,-2,-2
1528282401293851,0,-2,-1,-1,-3,-1,-2,-2
1528282401293851,-3,-4,-4,-1,-1,-3,-1,-1
1528282401308975,0,-2,-1,0,2,-3,0,-2
1528282401308975,-1,0,-5,0,0,0,0,-1
1528282401310805,-1,-1,-1,-3,1,0,-2,-2
1528282401310805,-1,1,-2,-2,0,-2,-1,-1
1528282401330964,-1,0,-1,-1,-3,0,-2,-2
1528282401330964,-1,-2,1,-1,-2,0,-1,-1
1528282401332959,-1,-2,-2,-2,0,1,-2,-1
1528282401332959,-1,-1,0,-2,-3,0,1,-3
1528282401353906,1,0,-2,-1,-1,-1,1,1
1528282401353906,-1,-2,-4,-2,0,0,-1,-2
1528282401355898,-1,-2,0,-3,-3,-1,1,0
1528282401355898,-2,-2,1,0,-2,-3,0,-2
1528282401369212,-1,-2,0,1,-1,-3,-1,-2
1528282401369212,-1,-2,-2,-2,-2,-2,-1,0
1528282401371184,-2,-2,-1,-1,0,0,-2,-2
1528282401371184,-1,-1,-2,-1,1,-1,-3,0
1528282401392042,-2,1,-1,0,-2,0,-1,1
1528282401392042,2,0,0,0,-1,0,-1,1
1528282401393005,-2,-5,-3,-1,-1,0,2,-3
1528282401393005,0,-1,0,-1,-2,1,-2,-1
1528282401414547,-2,-1,-3,-3,-1,1,0,-1
1528282401414547,-3,-5,-1,-2,-2,-1,-2,-4
1528282401415442,0,-1,-1,-1,-1,-2,-2,-2
1528282401415442,0,-1,-1,0,-2,-2,0,-1
1528282401428680,-2,-1,0,0,2,-2,-1,0
1528282401428680,1,-2,1,0,-1,-2,0,0
1528282401435614,0,-3,-1,1,-2,0,0,0
1528282401435614,0,-1,-1,-1,-3,-1,-2,-1
1528282401451790,0,1,-1,-2,-1,0,-2,-1
1528282401451790,-3,2,-2,-2,-2,0,-1,-3
1528282401452847,-4,2,-2,-1,2,1,-1,1
1528282401452847,-1,0,-2,-1,-3,-2,-1,-1
1528282401473856,-1,-1,-2,1,-2,-3,-1,-2
1528282401473856,0,-2,-3,-2,-1,-2,-2,-1
1528282401475854,3,-1,-2,-2,-1,-1,-2,1
1528282401475854,1,-1,-1,-1,2,1,0,-1
1528282401489962,-1,-1,1,-1,0,0,-2,-3
1528282401489962,-4,-2,-1,-2,-2,-1,0,1
1528282401490962,-1,-3,-3,1,-3,-1,2,1
1528282401490962,-1,-1,-1,1,0,-2,-1,2
1528282401511963,1,-3,-1,1,1,-1,-2,-1
1528282401511963,-1,0,-1,-2,-2,-1,-2,0
1528282401512963,1,1,-1,-3,-2,0,0,-1
1528282401512963,0,1,-1,-2,-3,-1,0,-1
1528282401534109,0,0,-3,-3,-4,-1,-1,-2
1528282401534109,0,0,-1,1,0,-1,0,-1
1528282401536107,-2,-1,1,0,1,-2,-1,-1
1528282401536107,-1,-1,-2,-2,1,1,-4,-1
1528282401548417,0,-2,1,-2,-2,-2,-2,1
1528282401548417,-1,-1,0,0,-1,-1,-1,0
1528282401555419,-2,-1,-1,0,-1,-1,0,-1
1528282401555419,-2,-1,2,1,-1,-4,0,-2
1528282401571377,1,-3,0,1,-2,1,-1,1
1528282401571377,0,-3,-2,0,0,-1,-1,-2
1528282401573212,-2,-1,-4,-3,-2,-1,-1,-3
1528282401573212,-1,-2,-2,-1,2,0,0,-3
1528282401594176,-4,0,1,-4,-2,0,-1,-1
1528282401594176,0,-1,0,1,-1,-2,-2,-1
1528282401595163,-4,0,-1,-2,-1,-3,-1,-2
1528282401595163,-2,-1,-2,-1,1,-1,-1,-1
1528282401608610,-3,-1,-4,-2,-1,-2,0,0
1528282401608610,-2,-1,-1,0,-2,0,1,0
1528282401615665,1,0,-1,0,-2,-1,-2,0
1528282401615665,2,-3,-3,-1,-2,-2,-1,1
1528282401631720,-2,0,-1,1,0,-2,0,0
1528282401631720,-1,0,-3,0,0,0,0,-1
1528282401633558,0,-1,0,0,-1,0,2,0
1528282401633558,-1,1,1,-1,-1,0,1,-1
1528282401654534,2,-1,1,-1,-1,1,-1,-5
1528282401654534,-3,-4,1,-2,0,-3,-1,-2
1528282401655512,-4,0,-1,0,-2,-1,-2,-2
1528282401655512,-2,-4,-2,-1,-3,0,-1,0
1528282401668611,-2,-2,-2,-2,1,-2,-4,1
1528282401668611,-1,0,-1,-2,-1,-1,-2,-1
1528282401675601,0,-2,-5,-2,-2,-1,-2,1
1528282401675601,-2,0,1,-1,-1,-2,-2,-1
