timestamp,emg1,emg2,emg3,emg4,emg5,emg6,emg7,emg8
1529307497226842,-2,0,2,-1,-1,-8,35,-1
1529307497226842,1,-2,-3,-7,-3,-8,-41,-4
1529307497227839,-1,0,-3,-4,-4,2,12,-2
1529307497227839,0,0,-2,-4,-5,-1,-15,-5
1529307497228837,0,1,0,14,5,12,13,1
1529307497228837,-1,1,-1,-9,1,1,17,0
1529307497229839,-3,0,1,1,0,0,-12,-2
1529307497229839,-1,-2,0,-2,1,0,3,-1
1529307497239806,-2,-1,-2,-3,-5,-6,-3,0
1529307497239806,-1,-1,-2,2,3,3,-2,1
1529307497250778,0,-1,-1,3,1,1,10,1
1529307497250778,0,-1,0,0,0,-3,9,4
1529307497256760,-1,-2,-1,-3,1,-4,-15,0
1529307497256760,-3,-2,0,4,0,0,8,2
1529307497272719,-1,-3,-2,-7,-2,-3,-7,0
1529307497272719,-1,-2,0,1,1,0,9,-1
1529307497278703,0,-3,-1,20,-2,-4,-41,-3
1529307497278703,-1,2,0,-21,1,1,20,-5
1529307497287678,-2,-1,-2,-7,-10,-3,2,-3
1529307497287678,-3,1,0,0,1,-2,-6,-1
1529307497301642,-2,-2,-2,-5,-2,3,4,-1
1529307497301642,-2,0,4,17,3,1,-2,-1
1529307497307626,-2,1,2,16,5,1,-4,-2
1529307497307626,0,0,-6,-23,-9,-8,40,1
1529307497354499,-1,-3,1,3,3,3,0,-3
1529307497354499,1,-3,2,-1,-1,-14,6,2
1529307497355509,0,1,1,6,4,21,48,3
1529307497355509,-1,0,-2,-20,-14,-10,-14,-2
1529307497356493,1,3,4,77,31,6,-3,-1
1529307497356493,-1,4,-5,-63,-35,-5,-11,-3
1529307497359485,1,-1,-5,-52,-4,-7,11,0
1529307497359485,0,1,2,59,35,6,5,-1
1529307497367465,0,-2,-7,-65,-28,-1,-3,-3
1529307497367465,-2,-4,-1,19,0,-9,-3,-5
1529307497376441,3,3,9,18,22,-12,-17,0
1529307497376441,1,-2,-9,21,6,11,29,11
1529307497382424,3,4,8,32,-14,23,-5,1
1529307497382424,-3,-3,5,-61,43,21,6,-3
1529307497398383,-1,0,-8,2,-46,-13,-7,2
1529307497398383,0,2,-2,42,3,-33,-28,-8
1529307497404378,3,0,2,-15,-3,11,14,7
1529307497404378,-1,-1,-10,-57,-30,8,5,0
1529307497419326,2,2,4,84,34,13,-4,1
1529307497419326,-2,-2,7,-96,-14,-4,2,-2
1529307497428302,-2,0,3,20,1,7,-8,-3
1529307497428302,-1,-3,-1,88,5,-21,-12,-6
1529307497436281,0,2,-2,-25,5,-5,4,-3
1529307497436281,-8,-5,9,-2,-16,-16,-17,0
1529307497442267,3,-3,-9,-34,34,-19,-1,6
1529307497442267,-10,-6,-12,20,-1,-16,-21,-10
1529307497458222,12,8,0,49,-3,17,7,1
1529307497458222,-15,-21,-32,-69,-77,-28,0,-13
1529307497464206,2,3,5,-57,-7,25,-10,0
1529307497464206,2,-6,0,7,44,2,5,14
1529307497480165,-1,8,11,21,-11,-6,-8,-4
1529307497480165,9,14,19,98,51,37,1,0
1529307497487146,-5,-3,-2,-70,-111,-68,-9,-7
1529307497487146,4,-1,0,84,56,36,-18,1
1529307497496120,-9,-4,-27,-97,6,-1,-23,-1
1529307497496120,6,6,17,-24,-27,6,-6,2
1529307497502104,-3,-3,-12,5,47,-20,23,4
1529307497502104,6,22,46,121,9,8,7,9
1529307497519061,-5,-15,-34,-114,21,-5,15,-2
1529307497519061,-1,-4,8,117,-7,-10,-13,-6
1529307497525043,-19,-29,-8,45,-17,6,-1,-5
1529307497525043,11,10,-8,14,-34,12,12,5
1529307497540003,5,3,12,53,-28,13,25,17
1529307497540003,-3,1,27,-95,79,7,21,-6
1529307497546985,-2,-3,-34,81,34,-3,-20,-3
1529307497546985,-3,32,-9,3,-13,7,6,-3
1529307497555960,0,-7,3,-1,-21,-16,-11,-5
1529307497555960,-15,-9,10,-10,-19,6,1,4
1529307497569923,14,-2,6,-26,9,20,4,-1
1529307497569923,-1,8,-23,-50,-38,8,25,3
1529307497578899,6,31,28,56,-3,2,20,-1
1529307497578899,-8,-37,-5,-30,-13,-56,-13,-9
1529307497584883,10,28,2,-117,89,37,-7,12
1529307497584883,-19,-38,-41,30,-113,-25,0,-12
1529307497599896,-14,-2,1,5,19,5,16,-8
1529307497599896,11,-84,-24,-32,26,34,-7,16
1529307497606876,-3,93,1,59,-36,-34,-10,-22
1529307497606876,1,15,55,-77,21,13,-7,-2
1529307497615828,-10,-90,-13,44,-25,-2,-2,1
1529307497615828,6,42,-96,76,7,5,7,2
1529307497621784,30,68,82,-65,57,15,8,6
1529307497621784,8,49,-4,61,-4,-24,4,-8
1529307497638740,-2,-70,32,63,23,-2,-25,-3
1529307497638740,6,80,-17,-36,-66,-9,0,-5
1529307497644722,-14,-92,-21,34,-22,15,18,6
1529307497644722,-7,-48,-31,-1,58,2,26,-5
1529307497660682,-10,12,4,-101,-16,-26,-96,-17
1529307497660682,-2,9,-22,-19,34,56,23,7
1529307497667662,3,19,56,94,-2,-42,16,-1
1529307497667662,-17,-65,-31,-12,16,38,0,-2
1529307497676638,22,13,-99,-21,-22,-18,43,9
1529307497676638,0,6,43,23,4,13,-43,3
1529307497681625,28,95,28,-29,-3,3,-15,-4
1529307497681625,3,-64,25,7,-16,-15,-13,0
1529307497698579,-30,2,-19,20,16,6,9,-7
1529307497698579,10,84,46,-4,-16,-16,28,10
1529307497704584,-59,-128,-50,-57,-11,4,7,-3
1529307497704584,25,105,-94,-10,-14,-7,-13,8
1529307497719550,-20,-80,90,57,-22,-13,-7,-3
1529307497719550,-57,80,-65,49,-17,-23,-14,-18
1529307497727530,26,-67,-36,-68,-43,-16,-22,-10
1529307497727530,-67,-80,6,-3,36,19,14,-5
1529307497736481,-98,-74,-84,28,13,-14,-26,-8
1529307497736481,99,-128,-102,0,13,45,79,38
1529307497742462,97,117,52,84,-9,10,-48,42
1529307497742462,127,-78,127,-7,57,38,39,36
1529307497758419,-6,-67,-57,4,-53,-5,-28,-16
1529307497758419,-123,-128,-47,-41,19,-33,-25,-48
1529307497764404,-128,-110,-128,-127,-59,-15,71,-26
1529307497764404,-17,-69,-44,46,-6,-64,-90,-28
1529307497779363,-31,127,97,-86,37,8,-16,10
1529307497779363,-65,-91,-26,-74,-21,21,21,-1
1529307497787377,111,32,2,127,12,11,5,17
1529307497787377,-64,-23,0,-86,-20,-11,11,0
1529307497796326,31,24,-16,27,41,25,20,3
1529307497796326,9,55,53,-67,16,-13,-20,-15
1529307497809284,23,0,12,46,-36,22,27,23
1529307497809284,-10,31,-3,-11,30,-33,-3,0
1529307497820254,57,23,-30,-27,8,48,13,8
1529307497820254,51,33,77,67,33,14,58,19
1529307497825241,-93,-49,-45,-14,-4,-15,-55,-25
1529307497825241,43,47,-9,51,-24,-23,39,-15
1529307497839230,6,4,-6,-80,51,12,-74,11
1529307497839230,24,25,45,127,-75,-22,10,4
1529307497847183,-41,-19,-2,18,68,15,19,-8
1529307497847183,34,14,-15,20,-31,-7,-22,0
1529307497856159,-30,-4,51,99,26,-2,48,-2
1529307497856159,6,9,-60,-60,-88,-8,-39,2
1529307497870160,1,-18,24,89,73,-7,-15,-1
1529307497870160,4,23,14,5,8,25,0,2
1529307497879136,26,-2,26,107,29,61,32,-3
1529307497879136,-1,8,4,-54,-1,-58,-27,4
1529307497885081,4,-4,4,56,-22,-1,13,-4
1529307497885081,-54,-7,3,-67,2,7,-1,-2
1529307497900041,14,2,-44,-7,-28,-30,11,2
1529307497900041,7,-4,5,-25,45,-9,-16,-4
1529307497907059,-15,5,16,25,3,18,-3,0
1529307497907059,-101,0,-3,33,5,-1,52,-11
1529307497916008,108,7,-1,92,-16,-38,-9,12
1529307497916008,43,3,0,-82,-46,49,-27,1
1529307497929962,-48,-22,-4,61,23,-19,-4,-11
1529307497929962,98,29,8,-128,6,19,10,22
1529307497938981,-51,-13,-13,4,-11,-25,53,-9
1529307497938981,-45,30,35,-24,25,-1,-53,-4
1529307497944963,37,2,-14,-31,-31,0,12,-7
1529307497944963,-77,-19,-22,15,0,5,-11,-5
1529307497960136,-1,3,22,-41,-38,-15,-8,0
1529307497960136,9,-7,-10,52,34,6,15,2
1529307497967901,-32,-17,-4,-38,-41,9,-6,-7
1529307497967901,51,-4,-20,-42,15,-12,-20,0
1529307497976101,-19,2,-10,-64,-28,8,-5,-7
1529307497976101,-49,-18,-20,-26,-8,-27,5,-5
1529307497990046,-2,32,23,-75,22,26,0,10
1529307497990046,47,-4,-4,42,0,-31,-9,-3
1529307497998793,13,-6,-28,-128,-59,19,0,-3
1529307497998793,-7,5,28,55,12,-1,6,3
1529307498004796,55,1,1,-22,49,2,0,2
1529307498004796,-35,-21,-14,-128,-41,5,-1,4
1529307498019732,-40,12,-1,-7,9,-17,-11,-8
1529307498019732,3,8,42,107,48,14,1,4
1529307498027006,-47,2,-23,-57,-8,-17,1,4
1529307498027006,12,2,25,47,-6,22,2,5
1529307498036668,-42,-36,-36,-6,5,-40,-17,-14
1529307498036668,34,-9,-16,66,-15,12,74,2
1529307498049962,-73,-20,10,22,-82,-24,-63,-4
1529307498049962,43,27,6,18,61,13,8,12
1529307498058892,-86,-14,-13,22,-21,1,0,-12
1529307498058892,108,24,4,-62,-5,18,15,25
1529307498064896,-46,-15,-26,-83,-17,-18,20,-9
1529307498064896,-29,7,26,125,0,-4,-5,-3
1529307498079840,-11,6,5,-46,-24,8,-2,5
1529307498079840,66,6,-3,18,37,-3,18,-1
1529307498086817,16,1,41,22,-4,-2,-8,-1
1529307498086817,-47,-16,-52,-63,-44,-17,-13,-11
1529307498095793,26,11,5,-43,14,13,8,7
1529307498095793,-65,-12,3,-17,47,-4,-8,-15
1529307498109794,36,-3,-19,-85,-53,8,14,3
1529307498109794,-38,8,13,76,32,-3,-6,-3
1529307498118732,94,9,-3,-10,7,3,12,9
1529307498118732,-6,-8,15,-90,17,18,-17,0
1529307498124716,-88,-18,-33,124,-70,-16,4,-24
1529307498124716,44,9,13,-37,41,1,-20,3
1529307498139889,9,0,9,15,28,15,5,15
1529307498139889,-71,-6,5,32,-26,-2,-6,-11
1529307498146657,97,11,-19,-61,35,6,1,14
1529307498146657,-58,-12,6,-29,3,-22,5,-14
1529307498156633,-12,4,9,117,23,10,-5,1
1529307498156633,-24,-10,-23,-101,-47,-7,-3,0
1529307498169853,-18,26,31,43,-38,5,4,-1
1529307498169853,-24,0,0,-32,-31,-3,-2,-5
1529307498178828,14,14,16,-4,-34,0,-12,6
1529307498178828,23,-4,-16,126,123,20,5,-3
1529307498184810,1,-15,-12,-55,-17,20,25,-4
1529307498184810,-16,8,6,47,-24,-16,-7,6
1529307498200139,8,2,15,-58,-15,35,49,-1
1529307498200139,-64,-5,-10,21,-65,-46,-44,-12
1529307498207530,24,6,9,65,94,15,6,2
1529307498207530,62,12,-12,-67,-46,-23,-15,16
1529307498223740,-29,-7,4,-23,13,38,12,-5
1529307498223740,-27,-5,-11,-8,44,7,15,-3
1529307498230006,15,-10,8,44,23,-26,-4,-1
1529307498230006,-33,-8,0,54,-8,21,-2,-11
1529307498238707,4,1,-7,-84,-14,-27,-12,0
1529307498238707,-14,0,11,-36,-28,19,5,3
1529307498244952,56,14,-9,-52,-2,-16,-25,9
1529307498244952,-21,6,8,66,-4,-4,-1,-4
1529307498259923,20,18,15,69,66,19,7,5
1529307498259923,7,8,18,58,-7,-42,-20,-3
1529307498267800,-67,-13,-6,-70,-47,-6,8,-4
1529307498267800,59,8,-1,-51,0,12,7,9
1529307498275757,-38,-4,11,69,23,-5,-2,-12
1529307498275757,27,3,7,-36,-4,36,-4,4
1529307498289720,-11,-2,5,95,6,-26,4,-6
1529307498289720,17,-13,-27,47,13,-1,-10,-1
1529307498306675,-23,-4,-9,-51,12,-12,-20,0
1529307498306675,-7,0,-10,26,-14,7,2,0
1529307498307672,25,12,9,-98,-36,-1,4,0
1529307498307672,-66,-31,-15,37,51,23,6,-5
1529307498319941,-4,4,19,60,-60,-30,-11,-9
1529307498319941,57,9,-6,43,5,-29,-3,3
1529307498327146,-15,0,-13,53,75,4,36,3
1529307498327146,-10,-4,-6,-113,-9,16,-61,-5
1529307498344365,3,-12,-14,75,-8,-6,-30,-1
1529307498344365,-3,10,12,-20,-27,3,-11,-1
1529307498349426,15,-3,4,65,15,-3,7,-12
1529307498349426,15,6,0,20,-23,4,27,1
1529307498365647,-7,-1,7,-52,23,7,6,-2
1529307498365647,-28,3,-9,-14,-55,-37,-12,-8
1529307498366382,50,5,-1,-21,57,30,-12,12
1529307498366382,-2,2,20,24,-48,7,26,3
1529307498380657,-1,-10,-24,-86,55,-22,-12,-6
1529307498380657,-25,-9,-7,-14,-6,19,25,-4
1529307498387985,-68,-6,0,5,4,17,9,8
1529307498387985,27,10,1,-32,-28,-8,11,-4
1529307498402210,16,1,-9,107,7,-3,-9,4
1529307498402210,-72,-3,28,-22,60,15,-5,-12
1529307498410189,-2,-9,-12,-120,-37,-9,-16,7
1529307498410189,2,-1,-1,9,35,1,3,1
1529307498426068,-11,-13,-9,-62,-89,-6,53,3
1529307498426068,55,14,17,97,29,-1,-62,5
1529307498426941,-9,1,13,97,-33,-25,-44,-9
1529307498426941,-20,-9,-19,-42,3,-11,5,-1
1529307498439581,-1,-2,-7,16,-47,-5,-3,-11
1529307498439581,9,-1,-7,-128,-15,15,22,7
1529307498446969,-5,-4,1,60,30,21,18,-8
1529307498446969,25,3,14,55,-6,-35,-17,8
1529307498462800,-61,-2,2,-10,35,-8,-10,-11
1529307498462800,-2,-14,-28,78,-12,10,24,3
1529307498469784,16,1,14,-23,63,-26,-32,-2
1529307498469784,-14,-15,-13,40,-37,19,27,-3
1529307498486009,10,3,-14,-20,3,-4,-11,-1
1529307498486009,-13,2,23,-47,4,10,16,4
1529307498486009,-52,-7,-16,-28,10,1,10,-2
1529307498486009,42,-2,-15,0,-2,3,-3,-4
1529307498499704,1,5,19,82,32,-4,-13,6
1529307498499704,37,-3,-17,-110,-28,4,13,5
1529307498515662,2,1,11,124,24,6,12,4
1529307498515662,-5,12,10,-128,-5,1,5,-2
1529307498522642,30,6,9,87,31,-1,-11,1
1529307498522642,-58,-16,-14,-17,-42,-10,1,-14
1529307498529892,24,-2,-10,-17,16,-9,0,2
1529307498529892,-87,-21,-1,63,20,4,0,-13
1529307498553559,19,17,23,-48,1,-1,8,8
1529307498553559,-13,-15,-41,-21,-19,-1,-10,-6
1529307498554557,19,2,15,7,-30,34,2,0
1529307498554557,-41,-14,-1,73,-33,-41,2,-10
1529307498559575,-3,-16,-44,-42,3,14,0,1
1529307498559575,-1,-2,8,80,7,5,2,-1
1529307498567556,-1,16,20,-22,9,-4,11,3
1529307498567556,-43,-7,-10,-40,-17,11,2,-1
1529307498582773,42,14,35,51,21,2,12,5
1529307498582773,13,-5,-8,7,19,-23,-19,7
1529307498589958,40,-6,-12,-19,-32,5,6,4
1529307498589958,-14,21,28,-7,48,16,-2,-1
1529307498604919,-23,-30,-18,-12,-11,-21,-1,-2
1529307498604919,31,7,15,68,0,15,17,-2
1529307498605922,-42,13,1,33,13,3,1,-4
1529307498605922,74,2,1,-86,-7,-26,-12,1
1529307498619916,-7,-8,-14,68,13,18,-3,-4
1529307498619916,9,-14,-22,-47,-39,9,4,3
1529307498626920,-23,-15,-18,-22,-1,-36,-4,-11
1529307498626920,9,-1,5,105,26,16,7,1
1529307498641874,-5,27,32,-82,-56,-6,-6,3
1529307498641874,54,-30,4,54,48,3,81,6
1529307498657832,33,19,-36,-68,-14,12,-58,-23
1529307498657832,21,5,2,-8,-35,-14,-4,1
1529307498665799,-15,5,15,-40,-4,-12,4,6
1529307498665799,-29,22,31,100,24,17,13,10
1529307498665799,-61,5,-9,12,17,-5,14,5
1529307498665799,-56,-30,-11,71,58,4,-9,-18
1529307498679733,69,33,13,-47,-39,15,2,20
1529307498679733,-33,-24,-26,-34,14,-9,-32,-9
1529307498687697,7,8,15,30,-44,-18,16,8
1529307498687697,-40,9,-3,5,-15,19,-6,-5
1529307498701675,-34,-6,12,-11,14,-15,1,1
1529307498701675,60,13,-9,-68,-9,7,-12,-7
1529307498709693,73,17,14,30,0,21,4,12
1529307498709693,37,25,16,-57,12,-9,16,6
1529307498724651,-10,-42,-25,42,-40,-21,-7,-15
1529307498724651,-54,37,11,-51,-43,14,11,-2
1529307498732630,32,7,14,6,11,-23,-34,0
1529307498732630,-13,-12,-17,-16,23,7,12,7
1529307498739612,-24,6,8,43,-11,15,0,-1
1529307498739612,41,-8,0,21,25,-27,-22,-2
1529307498747538,-12,-17,-10,-33,-15,38,23,7
1529307498747538,30,6,-3,-83,-25,10,-4,-2
1529307498762552,-93,-53,-56,-99,-11,-20,14,-9
1529307498762552,71,70,42,37,24,6,2,10
1529307498769533,-2,-7,3,-63,-25,-2,22,1
1529307498769533,21,1,4,-13,27,-8,-13,9
1529307498784493,-7,0,23,127,-24,13,15,-4
1529307498784493,-35,-30,-47,-112,-24,-25,-20,-5
1529307498792472,-30,-15,-8,-5,-33,-31,-14,-2
1529307498792472,-9,29,29,3,-19,3,35,-2
1529307498799457,26,2,-12,9,24,10,-21,-4
1529307498799457,-16,5,16,57,-23,-4,-7,3
1529307498807435,-7,-20,-10,-10,-31,-1,1,-7
1529307498807435,-35,-20,-12,-91,47,-4,-7,-9
1529307498822393,21,3,-9,30,60,24,0,5
1529307498822393,10,-8,6,21,0,-20,-5,-3
1529307498829373,-8,8,12,29,1,23,-27,2
1529307498829373,54,2,-25,-24,7,-18,-13,3
1529307498844333,19,14,6,12,21,20,4,2
1529307498844333,-40,-3,2,-65,-24,-35,1,-4
1529307498853274,-113,-30,-11,0,19,-8,4,-11
1529307498853274,92,2,-11,-49,4,12,11,22
1529307498859291,14,9,4,32,40,-7,-21,-1
1529307498859291,-40,-30,-38,2,-61,2,8,-9
1529307498867272,12,3,5,-21,80,21,19,3
1529307498867272,-49,-7,22,68,-26,-25,14,-7
1529307498882232,-2,0,3,20,4,-3,32,-4
1529307498882232,-4,-7,1,31,26,19,0,5
1529307498890192,18,1,-9,-18,-12,-26,-7,-3
1529307498890192,-8,-5,-22,-13,-48,19,0,2
1529307498905117,17,6,11,36,8,-6,14,4
1529307498905117,-36,-11,13,-25,20,-17,-5,-7
1529307498913204,30,17,13,-19,-12,34,21,4
1529307498913204,-2,19,-2,34,71,3,-12,2
1529307498928307,-49,-10,-10,-74,-52,-11,-15,-10
1529307498928307,54,22,17,8,24,2,-9,1
1529307498935283,-5,-9,-11,64,-36,-3,-5,-2
1529307498935283,-27,-15,-1,-42,-25,-13,-10,-6
1529307498942264,6,4,2,-46,13,-4,-11,-1
1529307498942264,-20,10,4,12,-22,15,-4,-1
1529307498950029,7,-12,-5,-24,29,-9,12,2
1529307498950029,27,28,55,105,-37,4,-14,3
1529307498965219,-37,-27,-83,-117,-45,-14,-3,-12
1529307498965219,25,-4,12,78,37,-28,-1,1
1529307498973198,27,5,1,-50,54,25,7,8
1529307498973198,-28,0,7,21,-30,-10,1,-2
1529307498988508,-13,9,23,-10,10,2,-7,-1
1529307498988508,-8,-3,-10,-13,8,9,-4,-1
1529307498988508,-11,-4,0,44,-15,2,15,-4
1529307498988508,-23,-6,-13,59,9,5,-15,-2
1529307499002734,50,9,27,-56,-25,6,0,0
1529307499002734,7,4,-16,-15,37,-12,34,2
1529307499010468,-4,-1,12,50,16,-9,-30,-3
1529307499010468,-53,-14,-9,-69,-29,27,11,-5
1529307499025455,50,8,21,69,21,-20,-5,2
1529307499025455,-13,-2,-5,-24,-72,9,2,-3
1529307499033597,-19,-1,-4,-26,-20,-11,0,-6
1529307499033597,3,-8,-18,-68,7,-1,7,1
1529307499048638,-15,2,7,92,-15,1,-3,2
1529307499048638,-33,-13,-6,-4,43,10,-5,1
1529307499048638,-2,9,3,5,-17,-7,-7,3
1529307499048638,8,-3,0,-3,46,8,-4,-6
1529307499062432,-9,12,13,2,-3,9,6,1
1529307499062432,2,-6,-6,45,11,17,-15,2
1529307499069450,-25,11,1,6,-19,-12,22,-4
1529307499069450,-2,-8,-12,-60,12,-6,8,2
1529307499085289,-12,-1,-1,6,-11,2,-9,8
1529307499085289,39,2,10,-16,-1,-8,2,-7
1529307499093518,22,-5,-10,-59,-67,4,-14,-5
1529307499093518,11,-7,-13,6,29,-19,-3,1
1529307499108222,11,-7,-3,20,77,10,1,-9
1529307499108222,-25,8,12,-90,-26,1,-6,5
1529307499109316,-5,1,8,88,14,-1,4,3
1529307499109316,69,3,1,54,6,15,10,3
1529307499122500,7,-7,-13,-49,-8,-27,-10,-5
1529307499122500,7,-2,4,81,-14,-11,-6,-1
1529307499129469,13,-3,-5,-2,66,10,4,-1
1529307499129469,-24,-7,-13,-36,-48,-10,-8,-2
1529307499144750,-15,-1,1,-36,8,6,7,3
1529307499144750,59,9,11,31,-17,17,-8,-1
1529307499153461,12,-2,1,25,12,-24,0,-1
1529307499153461,-38,-7,-26,1,34,11,-1,3
1529307499168422,-35,-3,28,71,-30,-3,-3,0
1529307499168422,-110,2,-11,-117,45,13,2,-13
1529307499168422,13,2,-1,24,-40,-2,-5,-2
1529307499168422,-29,9,8,64,-18,14,1,-3
1529307499182416,31,-4,-19,-60,0,-9,3,7
1529307499182416,-55,-17,-18,-46,-35,-10,-12,-4
1529307499189363,-32,6,12,45,44,-3,5,0
1529307499189363,-37,-13,-2,-29,25,-8,-7,-12
1529307499213614,-33,-4,-7,8,-37,11,4,1
1529307499213614,2,-4,5,82,63,16,24,6
1529307499214577,-24,-3,-13,-120,-43,-10,-15,-4
1529307499214577,65,-7,-8,-35,-73,3,1,15
1529307499227762,-6,4,12,19,26,-22,-16,-8
1529307499227762,20,-2,-6,53,-56,-5,12,11
1529307499228540,55,10,12,0,74,31,8,5
1529307499228540,-13,-3,6,34,-15,-2,-5,-1
1529307499242741,-2,-2,-22,-58,-15,2,8,2
1529307499242741,16,-1,5,17,20,-2,-5,2
1529307499249726,19,16,15,-66,-13,-18,0,6
1529307499249726,-2,9,6,-8,-23,1,-7,-3
1529307499264444,35,-4,-5,32,16,-2,6,1
1529307499264444,4,-5,1,-56,-5,5,-5,-5
1529307499273484,-28,5,-7,3,-34,-9,2,-2
1529307499273484,15,12,19,40,33,14,11,7
1529307499287682,12,-7,-22,20,-10,-1,-6,-1
1529307499287682,4,-9,0,-10,12,-11,-6,0
1529307499288682,-25,-13,-8,-42,-6,12,-5,-7
1529307499288682,-8,10,5,58,-13,-15,4,-2
1529307499302669,17,-1,-1,-70,-1,-4,-6,-2
1529307499302669,-16,0,-1,-7,-20,-5,-12,-6
1529307499309886,46,-2,3,94,-27,-20,5,3
1529307499309886,-32,3,-2,-67,-4,-12,-15,-5
1529307499324586,-27,-26,-11,-11,10,10,12,2
1529307499324586,32,24,3,-29,-9,0,25,7
1529307499333592,-25,14,23,1,21,-3,-25,4
1529307499333592,12,-3,-3,21,66,21,4,1
1529307499347527,17,2,-4,-6,-52,-17,-10,-3
1529307499347527,-12,-7,-1,14,19,20,9,3
1529307499348536,-43,-15,-9,-42,12,4,7,-6
1529307499348536,96,16,15,50,-21,-3,5,10
1529307499362537,-14,5,12,-84,32,9,-2,-4
1529307499362537,6,-10,-26,21,-23,-16,-13,-3
1529307499369728,18,12,-2,-4,-40,0,0,-2
1529307499369728,-7,-13,-8,12,25,3,-5,-7
1529307499385505,-15,15,7,17,13,-6,6,2
1529307499385505,2,-6,14,71,11,6,-4,0
1529307499393569,-7,-11,-16,-30,-2,-4,-1,-1
1529307499393569,-17,-7,-3,-15,-20,-5,4,-3
1529307499408524,10,3,8,89,8,-3,-3,1
1529307499408524,-4,0,-5,-63,-3,-4,-9,-4
1529307499409441,-17,-9,-8,-7,2,8,9,2
1529307499409441,25,-14,-8,28,-6,-5,-2,-2
1529307499423008,-5,7,7,-19,17,3,-3,-1
1529307499423008,0,10,9,43,17,-3,-5,1
1529307499429972,0,-13,-15,-17,-18,-1,-2,-5
1529307499429972,-26,-1,-6,-70,-40,-29,-12,1
1529307499444824,35,5,5,70,4,19,5,3
1529307499444824,53,8,3,-50,11,-3,4,15
1529307499452577,18,5,19,75,18,3,5,-2
1529307499452577,-24,-7,-17,-4,7,-3,5,-4
1529307499468175,-4,-3,-4,-5,-40,-4,-1,0
1529307499468175,-14,8,11,-40,39,3,-17,-8
1529307499468815,46,-9,-7,73,-19,-16,-9,-1
1529307499468815,8,-2,12,111,-41,14,4,-1
1529307499491036,-9,-6,-20,-107,61,-10,7,-6
1529307499491036,-63,10,15,79,-5,21,-3,2
1529307499491036,10,-10,-7,-23,-9,-19,18,3
1529307499491036,-8,16,11,-7,-26,-3,29,1
1529307499505272,-5,-3,1,-21,-6,6,-17,1
1529307499505272,-17,-15,-11,10,-10,-9,-4,-8
1529307499512935,-15,-4,-11,-51,8,-10,-5,5
1529307499512935,-9,4,2,31,6,11,9,-1
1529307499527529,-85,-7,-2,-45,-56,1,-1,-10
1529307499527529,102,12,8,60,-38,-4,13,15
1529307499535477,-4,11,13,-24,88,19,2,-1
1529307499535477,12,-7,-26,-49,-51,-38,-19,-1
1529307499542457,-6,6,10,78,11,11,-1,-1
1529307499542457,-39,-10,-7,-3,-35,-9,-2,-9
1529307499549465,-6,-3,-2,-19,16,14,3,0
1529307499549465,10,0,0,14,32,7,-4,2
1529307499564398,7,2,14,39,-4,3,-7,-2
1529307499564398,22,13,9,-51,-1,-12,1,2
1529307499572419,-19,2,9,79,-6,16,6,-2
1529307499572419,16,-8,-19,-113,47,-9,-1,-3
1529307499587375,6,5,5,9,-19,-3,-3,7
1529307499587375,47,0,-1,60,23,6,-5,0
1529307499588381,-57,-8,-16,-126,-65,-3,-14,-10
1529307499588381,74,12,24,98,15,1,-9,13
1529307499602299,37,7,-4,-4,74,6,7,5
1529307499602299,-34,-10,-9,32,3,-5,-1,-1
1529307499609278,28,-4,-3,4,-2,1,11,0
1529307499609278,-29,3,7,-10,-4,1,-12,-5
1529307499624239,12,-5,-6,-52,-16,-17,-3,-4
1529307499624239,-27,-14,-16,59,-25,-3,-9,-8
1529307499633216,31,-7,-5,39,10,5,1,0
1529307499633216,4,11,13,44,24,6,46,1
1529307499648177,11,-9,-22,-78,-24,-5,-52,-8
1529307499648177,-24,-1,2,22,-23,-15,27,-2
1529307499648177,8,2,-4,16,18,-14,11,3
1529307499648177,-29,-1,14,24,10,13,-14,-2
1529307499662520,5,5,1,11,-6,7,25,4
1529307499662520,-13,17,16,50,18,2,0,2
1529307499670116,10,14,27,-89,-40,-3,-14,3
1529307499670116,20,-9,-26,-4,-55,-7,2,-6
1529307499685402,-2,-4,-9,13,12,0,6,0
1529307499685402,-34,-13,-19,-50,-13,-6,-2,-3
1529307499693567,32,8,12,50,17,8,0,6
1529307499693567,-25,4,10,0,11,-3,-7,-2
1529307499707566,-2,-4,-2,-3,-12,8,10,1
1529307499707566,8,-2,-2,44,7,-12,-14,-3
1529307499715281,-14,-6,4,-67,-12,3,1,-1
1529307499715281,-43,-18,-28,-13,20,6,-9,-9
1529307499722266,0,2,2,-46,-18,-11,4,2
1529307499722266,4,-3,-1,-31,44,15,13,-2
1529307499729281,5,6,-1,52,7,1,1,-1
1529307499729281,-26,-8,8,-15,10,-4,-25,-4
1529307499744509,57,10,12,24,-7,-3,22,2
1529307499744509,-42,-4,-2,-40,8,-2,-6,-7
1529307499752539,47,-3,-1,77,-17,0,37,7
1529307499752539,10,-13,-29,-90,25,-2,-53,-3
1529307499767502,-12,5,21,119,27,18,40,4
1529307499767502,4,6,12,-11,-25,-19,-62,-10
1529307499783791,-23,-6,-22,-24,-14,-15,3,-4
1529307499783791,-28,-2,20,62,24,0,14,-9
1529307499785453,-38,-6,-18,-83,-47,-1,3,-6
1529307499785453,50,2,0,-43,10,-4,20,11
1529307499789809,-23,-2,-2,20,26,10,-22,-7
1529307499789809,-5,-2,1,71,-8,5,6,-4
1529307499805082,-34,4,-3,-64,1,-3,-20,-7
1529307499805082,42,-1,8,34,4,3,14,0
1529307499813220,-16,-11,-13,-5,5,4,-10,2
1529307499813220,16,4,5,-71,-10,-1,20,2
1529307499827557,-23,-8,-3,8,-34,-3,-15,-3
1529307499827557,-12,-7,-14,-75,-47,-5,1,-3
1529307499835530,16,3,-1,-9,18,4,3,3
1529307499835530,-10,-6,-6,31,-7,-1,-2,-1
1529307499850868,14,5,7,27,27,-3,0,3
1529307499850868,-3,-4,-5,-44,-32,6,4,-3
1529307499851489,-20,-4,-5,15,18,3,-9,-3
1529307499851489,-12,1,3,-13,1,-2,6,0
1529307499865188,13,-1,-1,19,4,-5,-4,1
1529307499865188,-17,-7,-4,39,26,10,8,-1
1529307499873166,-7,3,-2,-13,-18,-1,-8,-4
1529307499873166,4,10,9,43,9,-1,7,6
1529307499886868,9,-6,-2,0,-5,-2,-1,2
1529307499886868,6,4,-1,-55,-12,1,-3,-1
1529307499896038,-2,-6,-7,7,5,-10,0,-1
1529307499896038,-10,4,2,-53,-8,-14,13,2
1529307499910959,4,0,-3,32,11,-1,2,4
1529307499910959,35,4,1,-4,3,0,-13,1
1529307499910959,-38,-1,2,10,-6,-4,-2,-5
1529307499910959,16,1,1,-4,3,3,3,2
1529307499925416,-1,-8,-2,22,13,0,-4,-1
1529307499925416,-6,1,-4,-5,4,1,7,2
1529307499932807,-3,3,5,57,1,-1,0,-1
1529307499932807,2,8,11,-40,0,8,-3,-1
1529307499946811,-3,-6,-16,-52,-8,-3,-1,-3
1529307499946811,-12,0,8,-24,4,-1,1,-1
1529307499955817,8,-4,-5,15,-13,0,-3,1
1529307499955817,0,-1,-2,4,1,6,1,2
1529307499970762,2,-4,-2,23,20,-3,-4,-5
1529307499970762,-5,6,0,-18,-40,-6,0,0
1529307499971844,8,-2,-3,12,8,5,-1,-2
1529307499971844,6,1,-7,75,-5,-10,-1,0
1529307499984967,-5,-1,14,-81,-9,-2,-2,-3
1529307499984967,2,0,-9,56,9,7,0,2
1529307499993269,4,0,-2,-34,1,2,3,0
1529307499993269,2,-2,-4,12,-11,-2,1,-2
1529307500007628,1,2,0,-38,-17,-3,-13,-1
1529307500007628,-8,-5,-2,3,8,1,3,-1
1529307500024266,-2,2,7,9,-9,0,1,-2
1529307500024266,-5,0,0,-21,2,5,-1,0
1529307500031509,4,1,0,33,4,4,5,0
1529307500031509,-4,2,8,41,9,0,3,-1
1529307500032509,-3,-2,-5,-25,-12,-3,-1,1
1529307500032509,1,0,6,-7,-2,2,-2,-1
1529307500046463,-5,1,-1,16,-2,3,2,1
1529307500046463,-9,-5,-3,10,10,2,0,-1
1529307500052708,-3,-2,-4,-10,-4,-3,1,-2
1529307500052708,10,-2,0,34,5,-1,-3,-1
1529307500067011,26,-1,-4,16,-9,0,-1,0
1529307500067011,13,1,-3,-10,4,1,2,1
1529307500075542,9,2,3,-13,3,-1,-2,-2
1529307500075542,-8,2,0,-4,-4,0,-2,-1
1529307500091078,-18,0,0,26,9,-2,-1,1
1529307500091078,-16,-12,-4,-18,11,1,0,-2
1529307500091078,-9,6,-6,-24,-14,-7,0,0
1529307500091078,-2,1,8,40,9,-1,-1,-2
1529307500105111,4,-1,-3,-3,-3,-1,1,-2
1529307500105111,1,1,-1,-17,1,-2,-1,0
1529307500113092,-1,-3,3,9,5,3,0,2
1529307500113092,-6,-5,-7,-33,-6,0,0,-2
1529307500127053,0,2,1,47,6,-3,-2,-1
1529307500127053,-8,0,6,-21,0,0,6,-3
1529307500135032,-5,-1,-3,-11,-5,-5,-8,2
1529307500135032,-12,0,-5,-24,-7,-3,-11,1
1529307500150593,-11,-1,2,26,3,2,-1,-2
1529307500150593,-4,3,-5,-9,1,0,0,0
1529307500151590,1,1,2,11,0,1,3,-4
1529307500151590,5,0,1,-8,-9,1,-3,3
1529307500164595,5,-2,-1,22,6,9,15,0
1529307500164595,7,1,-3,-51,-9,27,-9,-2
1529307500173531,5,-1,6,74,22,27,1,-1
1529307500173531,1,-4,-10,-23,-17,37,0,-21
1529307500187493,4,1,1,4,-1,12,-4,26
1529307500187493,0,0,2,29,19,-16,5,2
1529307500195808,-4,-5,-2,4,-8,-27,-1,-4
1529307500195808,1,0,-2,-35,-9,-8,0,7
1529307500210575,-5,-2,-3,-2,4,-14,-3,-8
1529307500210575,-3,-1,-2,8,-3,8,-8,0
1529307500218285,0,-1,4,2,8,27,-1,-7
1529307500218285,3,-1,1,17,8,-34,4,7
1529307500224510,0,0,-2,-22,-6,-31,52,-2
1529307500224510,0,1,0,12,-2,-46,-37,8
1529307500233505,1,-1,-1,-25,-16,-18,-12,-11
1529307500233505,2,-1,0,-7,-4,-18,-9,2
1529307500247204,-2,0,4,45,-5,-17,9,-1
1529307500247204,0,-2,-3,-27,-8,-17,14,-4
1529307500256181,1,3,1,17,-10,-1,20,4
1529307500256181,1,0,-3,-30,9,4,31,0
1529307500269453,-1,-2,-1,-8,-14,-4,-73,-6
1529307500269453,1,-1,1,24,9,10,7,-2
1529307500278753,-2,-3,-3,-14,-1,-1,-8,1
1529307500278753,6,3,1,17,3,1,-24,6
1529307500284978,-1,-1,-2,-16,-7,6,14,-2
1529307500284978,-1,-1,-1,9,18,26,9,-4
1529307500300936,-20,-6,0,-3,-3,2,-6,15
1529307500300936,12,0,-1,-1,-4,7,67,-20
1529307500307896,10,1,-3,-14,4,4,-56,3
1529307500307896,4,-2,-2,7,-3,5,22,1
1529307500316652,1,-1,-3,-13,5,1,53,3
1529307500316652,-13,1,2,2,-2,-2,-68,-2
1529307500338096,-3,-1,2,-3,4,9,10,-6
1529307500338096,3,1,-1,2,-5,0,-8,0
1529307500340101,-1,-1,-3,-12,-1,-5,-22,-4
1529307500340101,-1,-1,1,3,-1,0,11,3
1529307500345321,2,2,0,0,2,6,18,-4
1529307500345321,-3,-2,0,3,-4,-2,-5,-1
1529307500354054,9,-1,0,-10,0,-3,-21,-2
1529307500354054,7,-3,0,5,3,3,19,2
1529307500367922,5,-2,-2,-2,6,5,-5,-1
1529307500367922,-1,-1,1,2,-3,1,10,0
1529307500376155,8,3,-1,-5,2,-1,10,2
1529307500376155,-3,-1,1,2,2,0,11,1
1529307500390229,-6,1,0,-4,3,0,1,-2
1529307500390229,-1,-3,-2,0,-3,-2,-7,-2
1529307500398843,1,0,0,-4,2,-2,-6,0
1529307500398843,-6,-1,1,2,3,1,-15,3
1529307500405172,-3,-3,1,-2,1,3,5,1
1529307500405172,0,0,1,0,-2,0,3,1
1529307500413807,0,0,-2,-5,2,-1,-5,1
1529307500413807,-4,0,-1,-1,2,2,-2,0
1529307500427935,-3,1,0,-2,0,1,11,-1
1529307500427935,2,-1,-2,1,-3,-1,-4,1
1529307500436098,2,0,0,-2,0,-2,-2,-2
1529307500436098,2,-1,0,0,0,-1,-8,0
1529307500450021,2,-1,-1,0,-2,0,2,-2
1529307500450021,-1,-2,-1,-1,-1,-1,-3,-2
1529307500458721,5,-1,-1,-1,-1,-2,-1,-2
1529307500458721,1,1,-2,1,-2,-1,0,0
1529307500464665,0,-2,-2,1,0,2,-1,0
1529307500464665,0,0,0,0,-2,-2,4,-3
1529307500473705,2,-3,0,-2,1,-1,0,-1
1529307500473705,-2,0,0,0,-1,-2,-6,-1
1529307500487365,0,-1,0,-1,0,-1,-2,0
1529307500487365,-2,2,-1,0,-3,-1,-3,0
1529307500496373,-3,1,0,-1,-1,0,1,-2
1529307500496373,-3,-1,0,-1,1,-1,-2,-1
1529307500510445,-9,-1,-2,-2,1,-1,3,-1
1529307500510445,-4,0,2,-1,0,0,3,-1
1529307500518652,-1,1,-1,-3,0,-1,10,4
1529307500518652,2,-2,-1,-2,1,0,-15,-2
1529307500525021,3,-1,-1,-2,-1,-1,2,-1
1529307500525021,1,-2,-1,-1,-2,-1,0,0
1529307500534094,1,-3,-1,1,-3,-1,-1,-1
1529307500534094,-2,0,0,2,-2,0,1,-1
1529307500547031,-1,-3,-3,-3,-1,0,2,-1
1529307500547031,-4,-1,-1,0,-2,-1,-3,-3
1529307500562300,0,0,0,0,-2,-2,-4,-1
1529307500562300,0,-1,-2,1,-1,-2,3,-1
1529307500569724,1,1,-1,-1,0,-1,-2,-1
1529307500569724,-2,1,-1,-1,0,-2,0,1
1529307500579393,0,-1,-3,-2,-3,-2,0,1
1529307500579393,1,-2,-3,-1,-2,-1,0,-1
1529307500585447,0,-1,-1,1,0,1,1,1
1529307500585447,1,-2,-1,1,-1,-1,-2,0
1529307500601181,-1,-3,-1,0,1,-1,-2,-2
1529307500601181,-2,0,0,-2,0,0,-1,2
1529307500607403,-2,0,0,0,0,-1,1,-1
1529307500607403,-1,-1,-2,-1,0,0,0,0
1529307500616180,-3,0,0,-1,-1,0,-5,-1
1529307500616180,-2,0,-1,0,0,-1,2,0
1529307500629406,-1,-1,1,0,-1,-1,-1,-2
1529307500629406,-1,0,-1,-3,-2,0,0,1
1529307500638492,1,0,-3,1,-2,0,0,-2
1529307500638492,-1,-1,0,-2,-2,0,-1,-2
1529307500653674,1,-1,-2,-2,-1,-1,-2,1
1529307500653674,1,-1,0,-1,0,0,0,-2
1529307500655267,1,0,-1,-3,0,-1,-1,0
1529307500655267,0,-3,0,1,0,-1,-2,0
1529307500667595,-3,-2,-3,-3,0,-1,-2,0
1529307500667595,1,-3,-2,0,-2,0,-1,-1
1529307500676183,1,-2,6,-1,1,-5,7,1
1529307500676183,3,-4,-13,-3,0,-3,-9,0
