timestamp,emg1,emg2,emg3,emg4,emg5,emg6,emg7,emg8
1529290178017259,0,0,0,-1,1,-5,-1,0
1529290178017259,-1,-1,0,-1,1,-5,-1,-1
1529290178022246,-1,-1,1,0,1,-3,1,0
1529290178022246,-2,-1,-1,-1,-2,0,-1,0
1529290178030225,-2,-1,-1,0,0,0,0,1
1529290178030225,-1,1,-2,1,2,-1,0,1
1529290178046185,0,0,-1,-1,-1,-6,-1,-1
1529290178046185,0,-1,-1,0,3,1,0,-2
1529290178060146,-1,-1,0,-2,-5,-1,-2,-2
1529290178060146,0,0,0,-1,-1,0,0,0
1529290178068125,-2,0,-1,-1,-2,0,-1,0
1529290178068125,-2,-1,0,0,-2,-1,0,-1
1529290178085080,-1,-1,-2,-2,1,2,-1,-1
1529290178085080,-2,-2,-1,-2,0,2,0,-3
1529290178090098,0,-1,-1,-2,1,1,-1,-2
1529290178090098,-1,0,1,-1,0,-2,-1,-1
1529290178108017,0,-1,-2,0,5,1,-1,0
1529290178108017,-1,-1,-2,-3,-7,-3,-2,0
1529290178119986,-1,0,-2,-2,-3,-2,1,-1
1529290178119986,-1,-1,0,1,1,-2,-1,-1
1529290178127963,-1,-2,-1,-1,-2,-2,-1,-1
1529290178127963,1,0,0,0,0,-2,-2,-1
1529290178143922,0,-1,-1,0,-3,-1,0,-2
1529290178143922,-1,-2,-2,-1,-3,1,-1,0
1529290178149905,-1,2,-1,1,-1,-2,0,-1
1529290178149905,0,-2,0,0,1,0,0,1
1529290178164868,-2,-3,-2,-1,-3,1,-3,-1
1529290178164868,-1,0,-1,-1,1,-1,-2,-1
1529290178179826,-2,-1,-1,-1,0,0,-1,0
1529290178179826,-1,-1,-1,-1,0,-1,-1,0
1529290178187804,-1,-1,-1,-2,-1,0,0,0
1529290178187804,-1,1,-1,-2,0,-2,-1,-1
1529290178202801,0,-1,0,-1,1,-1,-2,-1
1529290178202801,-1,-1,-1,0,0,1,0,-1
1529290178211740,0,-1,0,1,-1,2,-1,2
1529290178211740,-3,-1,0,-1,-1,1,-1,1
1529290178225702,-1,-1,-2,-2,-1,-2,0,0
1529290178225702,1,0,-1,-1,0,-1,0,0
1529290178240662,-2,-2,1,-1,0,1,1,-1
1529290178240662,-1,0,1,-1,-2,-1,-2,-2
1529290178247645,1,-1,0,-1,0,1,-2,-1
1529290178247645,-1,0,-1,0,2,1,-2,-1
1529290178265596,-1,-1,-1,1,-1,2,-2,0
1529290178265596,0,0,-2,1,1,-2,-1,0
1529290178270582,-1,-1,-1,-1,1,0,-1,-2
1529290178270582,0,1,-1,0,1,0,2,-1
1529290178285542,0,1,-1,0,-1,-3,-1,-2
1529290178285542,0,0,0,1,0,-1,1,0
1529290178300502,-1,0,-1,-1,-1,-1,1,0
1529290178300502,-1,-2,0,0,0,-2,1,0
1529290178307484,0,0,0,-2,-2,-1,1,-1
1529290178307484,0,-1,1,0,-2,1,-1,0
1529290178330423,-1,-1,-1,-1,0,-2,-1,-2
1529290178330423,-2,0,-1,1,-1,0,-2,-1
1529290178337404,-2,0,-1,0,0,-3,-2,-1
1529290178337404,-1,0,0,-3,0,-1,-2,-1
1529290178345382,0,0,-1,-1,-1,2,-1,0
1529290178345382,-2,0,-2,-2,-2,-1,-1,0
1529290178352364,-1,-1,0,-2,0,0,-1,0
1529290178352364,1,0,-1,1,-2,-2,-1,0
1529290178367324,-1,2,0,-1,0,-1,0,0
1529290178367324,0,0,-1,-1,-1,-1,1,0
1529290178375308,-2,0,-2,-1,-1,2,1,0
1529290178375308,0,-1,-1,4,6,-1,-1,0
1529290178382287,0,0,-2,-4,-6,1,0,-1
1529290178382287,-1,-2,0,-1,0,-2,-2,-1
1529290178390265,1,-2,-2,0,0,-3,-2,-1
1529290178390265,-1,-2,-1,-1,0,0,-2,-2
1529290178405225,-1,0,0,2,1,-3,-3,-1
1529290178405225,0,0,-2,-1,0,-1,-1,0
1529290178412204,-1,1,0,-2,-3,-4,-1,-1
1529290178412204,-1,0,0,0,1,1,1,0
1529290178435143,-1,-1,0,-3,-5,-1,2,-1
1529290178435143,0,-1,0,-1,0,4,0,0
1529290178443121,0,-2,0,0,1,3,1,-1
1529290178443121,0,0,-2,-2,-3,1,0,0
1529290178450104,0,0,-2,-1,1,0,-1,-1
1529290178450104,0,-1,-2,-2,0,-2,-1,-2
1529290178458081,-1,-1,-1,-1,-1,-1,-2,0
1529290178458081,-1,-1,1,-1,-3,0,0,-1
1529290178473077,-1,-1,0,-1,2,1,-1,0
1529290178473077,1,0,1,1,1,-2,2,-2
1529290178488049,0,0,-1,-1,0,-2,-3,0
1529290178488049,-2,0,1,1,5,1,-1,-1
1529290178495030,0,0,-1,-2,-6,0,-1,-2
1529290178495030,-2,1,-2,-1,0,-1,-2,-1
1529290178503010,-2,-2,-1,-1,-2,-2,-1,0
1529290178503010,0,-1,0,-2,-4,-1,-1,-1
1529290178509943,0,-2,0,1,-1,2,-1,1
1529290178509943,0,-1,-1,-2,-4,-2,-1,0
1529290178524903,0,0,-2,0,2,1,1,-2
1529290178524903,1,0,0,-2,-2,0,-3,1
1529290178532887,0,-1,-1,0,-1,-1,-2,0
1529290178532887,-2,-1,-1,0,1,0,-2,-1
1529290178547874,-3,0,-1,1,1,-2,-1,-1
1529290178547874,-2,-1,-1,0,-1,-2,0,1
1529290178554858,-2,-1,-2,1,2,-1,0,-1
1529290178554858,-2,-2,0,0,3,-2,-2,-1
1529290178562801,0,-2,-1,-2,-3,-3,0,-1
1529290178562801,0,0,-1,0,-3,-1,0,-2
1529290178569783,-1,0,0,1,0,2,0,-2
1529290178569783,0,-1,-1,-1,-2,-2,1,-2
1529290178584743,0,-1,0,0,-1,-2,0,-1
1529290178584743,-1,1,1,-2,-1,-1,-2,0
1529290178592721,0,-1,-1,-1,1,-2,0,1
1529290178592721,-1,-2,-1,1,-1,-1,-1,0
1529290178607682,0,-1,-1,-2,0,-2,-1,-1
1529290178607682,1,-2,-3,0,-1,-3,1,-1
1529290178615673,0,0,0,-1,0,-3,-1,-1
1529290178615673,0,-1,-1,-1,-1,2,0,-1
1529290178622642,0,-1,1,0,-1,0,-1,1
1529290178622642,-3,0,-1,2,1,0,0,-2
1529290178630621,-3,-2,0,-3,-7,-1,0,0
1529290178630621,0,-1,-2,-1,-1,1,-1,-2
1529290178645580,1,-1,-1,-1,-1,-1,0,-1
1529290178645580,-3,1,0,1,1,0,-1,-3
1529290178652562,0,0,1,-1,-1,-2,0,-1
1529290178652562,-1,-1,0,-1,-1,-3,-1,2
1529290178667521,0,0,-2,0,1,0,-1,1
1529290178667521,-1,0,-1,-2,-1,-2,-2,1
1529290178675500,0,2,-1,0,4,-1,-3,-1
1529290178675500,0,-1,0,-2,1,0,0,-1
1529290178682481,0,-1,1,0,1,-1,-1,-2
1529290178682481,1,-1,0,1,0,0,0,-2
1529290178690459,-2,-1,0,1,0,2,0,-1
1529290178690459,-1,-1,-1,-2,-5,0,-1,-1
1529290178705419,0,0,-1,0,1,1,0,-1
1529290178705419,1,-1,0,-3,-2,0,-1,0
1529290178712401,-1,0,0,1,1,0,-1,-1
1529290178712401,0,2,-1,-1,0,0,0,0
1529290178727361,-2,-2,1,-1,-3,0,-2,0
1529290178727361,0,-1,0,0,-1,-3,-1,0
1529290178735341,0,0,0,-1,0,-3,-1,0
1529290178735341,0,0,1,1,0,0,-1,0
1529290178742322,-1,0,0,-1,-1,0,-2,1
1529290178742322,0,0,0,-1,2,0,-1,-1
1529290178750301,-1,-2,0,0,0,2,-2,0
1529290178750301,-1,-1,0,-1,1,-1,-2,-3
1529290178765262,-2,-2,-1,0,0,-1,-1,-1
1529290178765262,0,-1,0,-1,-2,0,-1,0
1529290178772243,0,-2,-2,-1,2,-1,1,0
1529290178772243,0,1,1,-2,-1,-1,2,-2
1529290178787234,-1,0,-2,0,0,-2,-1,-1
1529290178787234,-3,-1,-2,-1,-3,-1,0,-1
1529290178795228,-1,-2,-2,-2,-2,1,0,-1
1529290178795228,-1,-1,0,5,6,2,-1,2
1529290178802161,0,0,0,-4,-3,1,1,-1
1529290178802161,0,0,-1,-2,0,-1,-1,-1
1529290178810140,-1,1,1,0,-2,-1,0,-1
1529290178810140,-2,-1,-1,-2,-2,-1,0,-1
1529290178825100,1,0,1,2,2,0,0,0
1529290178825100,1,1,-2,0,0,0,-1,-1
1529290178833081,1,0,0,1,-2,0,-3,-1
1529290178833081,0,0,-2,0,-1,-2,-2,0
1529290178848046,-2,-2,0,-1,-1,-2,-1,-2
1529290178848046,0,-2,0,-1,1,-1,1,-2
1529290178855068,-1,-1,0,1,2,-2,0,0
1529290178855068,0,0,0,-2,-2,-1,-2,0
1529290178863042,-1,1,-3,-1,2,0,0,0
1529290178863042,-1,-1,0,-2,-2,1,-2,0
1529290178870028,-1,0,-1,-1,0,-1,-1,0
1529290178870028,-1,-3,-3,0,-3,-1,-2,1
1529290178884987,0,0,0,-1,-1,-1,-1,0
1529290178884987,1,1,2,0,0,-1,-1,-1
1529290178892920,2,1,1,0,-1,0,2,-1
1529290178892920,-1,-3,2,4,-1,0,-2,-1
1529290178907926,0,-6,-9,-6,0,-2,-3,-1
1529290178907926,-2,-2,-2,-5,-9,1,-1,-1
1529290178914870,0,2,2,-1,-2,1,0,0
1529290178914870,2,4,3,2,1,1,2,2
1529290178922887,2,2,6,5,0,1,-1,0
1529290178922887,1,-2,-5,-4,0,-1,1,-1
1529290178929821,-1,-2,-3,-2,-2,0,-1,-2
1529290178929821,-2,-5,-4,-5,-1,-2,0,-1
1529290178944827,-1,-1,1,0,-1,0,-1,-2
1529290178944827,-1,1,0,2,3,-1,-1,2
1529290178952805,0,-1,-1,-3,-4,-2,-2,0
1529290178952805,1,2,-1,1,1,-1,0,-3
1529290178967756,-1,0,0,0,-3,-1,0,1
1529290178967756,-2,-1,1,1,-1,-1,2,-1
1529290178974701,0,-1,-2,1,3,1,0,0
1529290178974701,0,0,-2,-4,-6,-1,0,-1
1529290178982698,-1,-2,1,2,1,1,-1,-1
1529290178982698,-2,1,-1,-1,-7,-2,-1,-2
1529290178997639,1,0,-1,0,-4,-3,0,-1
1529290178997639,0,-1,1,5,2,0,-2,0
1529290179004639,0,0,-1,0,3,-2,1,0
1529290179004639,-2,-5,-3,-5,1,-3,0,-2
1529290179020578,0,-2,1,3,4,-2,1,0
1529290179020578,0,1,-2,-2,-1,-1,-2,0
1529290179027740,0,-1,1,2,-1,0,0,-1
1529290179027740,1,-2,0,3,3,1,-1,2
1529290179042520,0,0,-3,0,2,0,-1,1
1529290179042520,0,-2,-3,-5,-6,-2,-1,-1
1529290179057660,0,7,9,9,7,-1,-1,0
1529290179057660,-1,0,4,5,1,1,0,-1
1529290179065845,-3,-3,-9,-22,-13,-5,-3,-1
1529290179065845,-2,0,-2,-2,2,-1,-1,-2
1529290179080632,-1,-3,-3,1,-2,0,-2,-1
1529290179080632,-1,1,-2,-13,-5,-3,-3,-1
1529290179087793,-1,-1,0,6,4,3,1,-1
1529290179087793,-2,-3,-1,3,0,0,-1,-1
1529290179102792,2,3,1,1,7,3,1,1
1529290179102792,-2,2,1,3,3,-1,1,-1
1529290179110805,-1,-4,-2,-7,-8,-1,-2,2
1529290179110805,-3,-3,-2,-4,-1,-1,-3,-1
1529290179125772,0,0,3,2,2,-1,0,0
1529290179125772,0,2,3,6,3,-4,2,1
1529290179141002,0,-2,-3,-6,-4,2,0,-1
1529290179141002,-4,-4,-2,-4,-10,-4,-3,-3
1529290179148295,5,7,9,11,7,0,0,2
1529290179148295,4,3,2,3,2,4,8,1
1529290179163053,-5,-3,0,4,2,-4,-3,-5
1529290179163053,2,4,5,9,5,-1,0,0
1529290179178146,-2,0,-5,-19,-16,-4,-5,-1
1529290179178146,0,-4,-1,3,11,7,12,7
1529290179185384,-4,-7,-2,5,8,6,4,-8
1529290179185384,-1,7,0,-3,4,-5,-4,1
1529290179200168,-5,1,0,-1,-11,-1,-2,-15
1529290179200168,3,2,5,7,2,3,-3,-1
1529290179208151,0,1,-1,-3,-2,2,1,2
1529290179208151,-1,-4,-3,2,3,2,1,2
1529290179222924,-1,5,4,0,-6,5,22,-2
1529290179222924,4,4,4,6,9,4,-4,-1
1529290179237883,-2,-3,-6,-9,-13,-8,-10,0
1529290179237883,-1,-4,-2,-5,1,-1,16,7
1529290179244864,-3,-8,-7,-5,0,-3,-5,0
1529290179244864,-1,-5,-6,-10,-9,-6,-2,1
1529290179259979,2,-2,-3,3,5,2,5,5
1529290179259979,0,1,3,6,4,4,-1,-7
1529290179268035,4,7,5,6,4,2,-1,4
1529290179268035,-5,-7,-5,-11,-11,-1,-1,-2
1529290179283348,1,1,-3,-2,-4,-10,-9,-3
1529290179283348,3,2,4,4,6,3,-5,-4
1529290179298078,1,1,2,7,11,6,10,2
1529290179298078,-4,-3,-3,-4,-2,1,-9,-7
1529290179305240,-1,-1,-1,0,3,8,5,8
1529290179305240,-1,-4,1,6,0,2,-1,0
1529290179320019,-2,0,0,-8,0,-2,-20,-14
1529290179320019,-5,-3,-6,-9,-8,-5,-4,-4
1529290179328001,2,2,-2,-3,0,-1,1,7
1529290179328001,-6,-2,0,-1,-2,0,12,-9
1529290179342961,1,2,1,8,7,2,-3,0
1529290179342961,-1,1,2,1,1,-3,-1,-5
1529290179350979,0,1,2,-5,-10,-15,-11,-7
1529290179350979,-2,-3,-5,-4,-4,-7,8,4
1529290179364901,1,-3,-1,0,1,-10,0,6
1529290179364901,-2,-2,-2,0,-4,3,4,2
1529290179379860,-1,-2,-2,-5,-1,8,-6,-2
1529290179379860,0,-1,-1,-2,-2,4,0,3
1529290179388013,-4,-2,-4,-6,-4,3,2,-13
1529290179388013,2,5,2,5,11,4,-16,-6
1529290179403026,-3,0,1,6,11,13,3,1
1529290179403026,1,2,0,-6,-10,17,2,3
1529290179417990,2,2,2,8,1,6,-3,2
1529290179417990,-6,-6,-12,-29,-33,-2,-13,-3
1529290179432987,-2,-1,0,3,6,0,5,-1
1529290179432987,-4,-6,2,3,1,-18,3,-2
1529290179447170,-1,3,0,-3,-5,-5,-1,3
1529290179447170,0,-3,-6,-4,1,-6,-7,1
1529290179455150,-2,-2,1,1,3,15,6,1
1529290179455150,1,-4,0,4,11,26,15,7
1529290179470799,-2,1,4,2,7,-26,-8,-8
1529290179470799,3,4,3,0,2,-35,5,7
1529290179485627,-3,-4,-1,4,2,-24,1,-5
1529290179485627,10,8,5,2,-1,5,-2,2
1529290179500939,2,1,2,1,-3,-25,-10,0
1529290179500939,-9,-5,-2,1,6,-3,12,-3
1529290179507901,-1,-2,-4,-9,5,11,-8,0
1529290179507901,-7,-6,-8,-3,9,30,-5,-12
1529290179522713,2,1,1,-4,-3,16,0,3
1529290179522713,0,2,5,3,-1,-15,0,1
1529290179529886,4,7,4,14,11,-30,2,1
1529290179529886,-2,-5,-9,-18,-21,-46,-3,0
1529290179546003,0,0,-2,-4,-10,-36,5,0
1529290179546003,-8,-11,-12,-10,-19,-96,-9,-7
1529290179567953,6,3,3,3,4,36,-7,-5
1529290179567953,-12,-13,-10,-9,-9,97,15,5
1529290179575818,-4,-8,-8,-3,-7,61,0,0
1529290179575818,4,10,8,11,8,32,4,-11
1529290179590345,15,26,23,15,14,25,5,6
1529290179590345,9,13,9,7,-7,16,-13,-1
1529290179598314,-6,-12,-7,-6,-4,16,10,1
1529290179598314,-8,-11,-10,-10,-1,10,-6,3
1529290179613122,-26,-9,-10,-1,-4,20,7,-13
1529290179613122,17,-5,-13,-1,1,-4,-18,-13
1529290179635271,-14,-18,-17,-4,3,37,-3,-11
1529290179635271,12,18,23,20,10,-10,-10,-5
1529290179650430,7,15,12,2,5,-17,9,7
1529290179650430,-1,1,1,-5,-8,7,2,-3
1529290179658408,2,1,-4,-2,5,6,1,5
1529290179658408,-13,-13,-1,18,1,10,1,-2
1529290179680348,3,4,9,13,-31,-9,-3,0
1529290179680348,-3,-2,0,2,12,29,-1,-2
1529290179687724,5,9,11,8,7,23,12,5
1529290179687724,3,3,0,5,-26,-4,2,4
1529290179702681,-3,-11,-4,13,11,11,-5,-3
1529290179702681,-3,4,4,-1,2,2,9,0
1529290179710665,5,5,-9,-5,-9,-37,-7,-1
1529290179710665,3,0,-4,-24,-28,-11,0,1
1529290179725200,0,-5,-1,-3,6,5,6,5
1529290179725200,-2,-1,1,1,-15,-13,-3,-1
1529290179740197,-3,-6,-6,0,-3,-5,-2,-4
1529290179740197,-2,-3,0,2,-1,3,-1,1
1529290179747601,0,2,4,-2,-15,-11,3,1
1529290179747601,-2,-3,-7,-8,-1,-9,-17,-14
1529290179762746,0,-1,2,-1,5,1,11,12
1529290179762746,-4,-2,0,0,9,-15,-10,-9
1529290179770822,2,-2,-5,-7,4,-7,19,10
1529290179770822,-3,-3,-2,1,14,5,1,6
1529290179785790,-1,-2,0,1,12,11,-10,1
1529290179785790,1,2,-2,-6,-6,-7,-2,-10
1529290179800766,13,4,0,1,7,-13,-2,-11
1529290179800766,-6,-7,-4,2,26,2,8,10
1529290179808124,7,5,2,-3,-7,-7,-10,-6
1529290179808124,13,16,14,10,14,-7,8,5
1529290179822981,-2,-5,-1,-1,2,-9,-8,1
1529290179822981,0,-1,1,5,4,-16,0,-2
1529290179829965,-19,-13,-9,6,21,5,4,-4
1529290179829965,0,-4,-9,-26,-34,1,-2,5
1529290179845107,4,6,6,3,-5,5,12,11
1529290179845107,9,9,8,1,-7,-13,6,6
1529290179859912,-2,-6,-10,-12,-14,-6,3,-4
1529290179859912,-2,-7,-6,-3,-7,2,-8,-8
1529290179868044,1,2,4,0,3,-7,8,5
1529290179868044,8,3,2,1,3,-7,-11,6
1529290179890360,-2,1,3,4,1,-4,-3,-6
1529290179890360,-6,3,1,2,2,-3,-16,-6
1529290179898480,5,-2,-5,-12,-18,-5,-6,-5
1529290179898480,3,-4,-3,-2,6,-11,-15,-7
1529290179912909,-7,-3,-3,-4,-10,-2,-8,-4
1529290179912909,3,0,-2,-6,1,2,-1,4
1529290179935180,5,2,-7,-2,-6,-3,2,3
1529290179935180,3,-2,3,2,-4,-7,-7,-9
1529290179942986,5,10,7,2,-3,3,4,8
1529290179942986,5,0,3,2,0,4,6,3
1529290179950785,-15,-12,-7,-3,0,17,-1,-10
1529290179950785,0,3,1,1,9,6,1,8
1529290179965554,-4,9,6,4,14,9,-13,-8
1529290179965554,15,-4,-4,-3,1,-21,9,5
1529290179988087,2,-5,-6,1,1,3,-7,8
1529290179988087,-14,-19,-12,-2,-2,15,-2,-15
1529290179995070,5,4,2,-5,-9,5,-3,0
1529290179995070,-1,8,10,8,3,8,13,3
1529290180010029,5,4,3,2,4,2,0,0
1529290180010029,5,4,4,5,-2,5,7,11
1529290180025036,-3,2,3,0,-13,-5,-2,-3
1529290180025036,6,-2,-8,-21,-25,2,-5,1
1529290180039951,-3,8,8,6,15,0,4,-2
1529290180039951,10,8,4,-3,-1,8,8,11
1529290180047974,4,-2,-3,-3,9,2,-1,5
1529290180047974,-6,-1,2,3,-5,1,4,-1
1529290180062887,0,-2,3,11,14,8,8,-3
1529290180062887,-2,-2,-5,-10,-19,-19,-1,1
1529290180069871,5,10,10,8,5,-2,1,0
1529290180069871,-3,-8,-14,-26,-20,-5,-1,-1
1529290180084876,-1,1,2,6,-4,-6,7,-1
1529290180084876,-6,-6,-4,2,0,-1,2,1
1529290180099829,3,1,2,-2,2,-2,0,-2
1529290180099829,0,1,-2,-3,-2,-12,3,2
1529290180107807,-2,-6,-6,-3,-7,-3,-2,0
1529290180107807,1,3,3,4,10,-6,0,2
1529290180129710,1,0,-2,-8,-5,-16,-2,-2
1529290180129710,0,0,2,8,-2,-22,0,0
1529290180137736,-2,-5,-6,-8,-17,-7,-1,-2
1529290180137736,0,2,2,4,-5,1,0,0
1529290180152699,-3,-1,-1,-2,-7,-5,-1,-2
1529290180152699,0,-2,-2,0,0,-20,0,0
1529290180160633,2,0,-2,0,14,-2,-2,1
1529290180160633,2,3,2,1,15,-1,-4,1
1529290180182621,-1,2,0,-4,-5,-12,6,-3
1529290180182621,5,8,6,5,4,-4,-20,-6
1529290180190593,7,3,2,11,16,-8,3,0
1529290180190593,-5,-6,-5,-5,1,-2,-1,-2
1529290180205553,-6,-6,-7,-8,-4,7,-4,-4
1529290180205553,-4,-1,-2,-3,5,-1,2,2
1529290180212535,0,1,0,6,11,-6,2,3
1529290180212535,-1,-1,-5,-2,5,6,0,0
1529290180227495,-3,-1,-2,3,12,5,1,1
1529290180227495,-1,0,1,-1,-12,-10,2,-7
1529290180250386,1,2,1,-2,0,-8,2,1
1529290180250386,-5,-8,-6,-5,-5,-4,-7,0
1529290180257368,-1,-1,-1,1,-3,-7,20,3
1529290180257368,6,3,-1,-4,-9,-16,-7,1
1529290180272328,1,1,4,7,-2,5,-5,0
1529290180272328,-4,2,3,-10,-2,-5,26,3
1529290180280307,-10,-12,-10,9,5,-3,-5,-11
1529290180280307,-6,-6,-3,-1,-3,1,-4,-5
1529290180295268,5,5,3,-4,5,-3,-8,4
1529290180295268,-6,-4,-5,0,4,10,5,-4
1529290180302294,-5,-10,-9,-7,-5,7,-16,-5
1529290180302294,-5,0,-3,1,8,22,0,1
1529290180310273,7,-6,0,-2,-4,-1,-13,-11
1529290180310273,2,3,5,5,6,1,-3,7
1529290180325234,1,1,-1,-3,-1,14,3,0
1529290180325234,-4,-5,-6,-4,-1,7,-6,-8
1529290180333165,-15,-2,-2,-2,-2,6,-7,-15
1529290180333165,4,0,0,3,7,7,6,6
1529290180348271,-2,-6,-4,-2,1,11,5,10
1529290180348271,-4,-7,-6,-5,-11,-5,-3,-7
1529290180362498,3,3,5,6,3,-6,1,5
1529290180362498,1,7,3,-2,-10,-4,-2,-1
1529290180370472,2,3,3,-13,-21,-11,-8,-2
1529290180370472,0,-2,-3,-5,-10,9,-1,-3
1529290180385616,-5,-7,-8,-3,-2,1,1,-1
1529290180385616,-2,-10,-3,6,12,6,-8,-2
1529290180400912,2,4,2,1,-6,-3,-4,-1
1529290180400912,-1,-1,-1,2,7,6,10,14
1529290180422867,-1,4,2,-2,2,-10,4,-22
1529290180422867,-10,-5,-1,2,1,6,3,-7
1529290180438178,0,-3,-3,-4,0,-2,-5,0
1529290180438178,1,0,-4,-4,0,0,2,6
1529290180445874,-4,1,-2,3,-1,3,33,4
1529290180445874,3,4,4,1,1,-10,-7,-1
1529290180467975,-2,-3,-1,-1,-2,2,5,8
1529290180467975,3,0,2,-3,-11,-10,-10,-2
1529290180490727,-3,-3,-2,-2,-4,-5,-9,0
1529290180490727,7,2,0,-1,-6,0,12,14
1529290180497972,-1,-1,-2,1,2,-11,5,2
1529290180497972,-2,-2,-2,-4,-12,-6,-6,0
1529290180512927,-4,-6,-6,-4,-4,4,0,-6
1529290180512927,-3,-1,0,2,6,-5,8,1
1529290180520056,-2,-1,-2,-4,-6,-6,-9,-3
1529290180520056,3,3,1,0,2,-3,1,4
1529290180527857,-5,-1,-1,0,1,-4,1,-1
1529290180527857,6,5,2,0,1,4,-4,4
1529290180542997,3,1,1,-2,-3,-9,-2,-1
1529290180542997,-10,-5,-3,-3,3,-3,-11,-17
1529290180550822,9,4,1,2,-2,-3,7,9
1529290180550822,1,2,4,0,4,-9,-7,-1
1529290180565332,1,2,-1,-2,0,5,9,9
1529290180565332,-6,-6,-6,-5,-3,-3,-2,-1
1529290180572958,-3,-6,-2,0,3,-5,1,-3
1529290180572958,3,9,6,2,2,-11,-2,0
1529290180579937,1,-2,-1,1,0,-3,-2,5
1529290180579937,0,-1,-1,-1,-6,-8,-3,-5
1529290180587919,-1,-1,-2,-5,-4,2,0,0
1529290180587919,0,-3,-2,-1,2,-4,-5,3
1529290180603035,-1,1,0,-1,-3,-13,5,-6
1529290180603035,1,-3,0,-2,-5,3,6,3
1529290180610871,1,0,-1,-1,-2,-3,0,5
1529290180610871,-5,-3,-2,-2,0,-3,1,-13
1529290180625879,4,2,0,-3,-1,-1,-6,-1
1529290180625879,-2,-3,-3,-1,6,2,2,0
1529290180633150,-2,-1,3,-3,-5,-1,6,2
1529290180633150,-1,1,0,-1,-2,-2,-1,3
1529290180640234,-1,-3,-2,-1,-1,-5,-1,5
1529290180640234,-3,-3,-2,-2,1,-1,6,-2
1529290180647213,2,2,-1,-2,-4,-2,-15,-8
1529290180647213,-3,-1,-1,1,2,-6,-20,-18
1529290180662172,-1,-1,0,-3,-3,-13,16,8
1529290180662172,4,6,4,6,2,1,-7,2
1529290180678130,-3,-4,-2,-6,-6,0,-2,-4
1529290180678130,-1,-4,-3,-2,3,-1,3,4
1529290180693091,1,-2,-3,-1,1,6,-11,-2
1529290180693091,-8,-5,-5,-4,-5,11,3,-3
1529290180700075,-1,-1,-1,0,2,5,6,5
1529290180700075,8,2,3,4,4,2,3,2
1529290180708217,1,0,1,-4,-7,5,-3,4
1529290180708217,0,2,1,1,3,1,7,-2
1529290180715397,-5,0,-3,-4,-5,1,-3,-5
1529290180715397,-2,-9,-4,-3,1,7,1,9
1529290180730202,-2,1,1,1,1,2,-1,0
1529290180730202,-5,-1,2,-2,0,-4,-2,-5
1529290180745544,12,7,5,1,0,-2,15,21
1529290180745544,4,1,1,-1,-3,6,-8,-4
1529290180752344,-5,-3,-2,1,4,-5,1,-15
1529290180752344,-7,-3,-2,0,0,1,3,-6
1529290180760766,-4,-5,-3,-4,-6,6,-1,1
1529290180760766,0,0,-1,-4,-2,-5,-2,-2
1529290180768026,4,0,2,-1,0,-9,-8,2
1529290180768026,0,0,-2,1,5,-1,3,2
1529290180783228,-6,-2,-3,-2,3,-1,-8,-10
1529290180783228,-1,-2,-2,0,-1,-6,-1,-2
1529290180790948,-1,0,0,-3,0,4,-4,1
1529290180790948,1,0,0,1,-1,-7,4,4
1529290180805754,-3,-2,-2,3,1,0,-5,-4
1529290180805754,4,-2,-1,-2,-4,-3,-5,5
1529290180812733,-3,-3,-4,-1,-4,-6,7,2
1529290180812733,2,-3,-3,-4,0,-1,3,11
1529290180828229,0,2,2,0,1,-2,0,2
1529290180828229,-1,-2,-1,-2,2,-3,-5,5
1529290180843195,0,-1,0,-1,1,-8,5,8
1529290180843195,-3,-1,0,-2,1,6,2,4
1529290180850336,5,-2,-3,-4,-1,1,-3,7
1529290180850336,1,0,2,0,-1,2,-1,-1
1529290180865309,3,3,2,1,1,-1,5,1
1529290180865309,-1,4,4,4,10,-7,-2,-5
1529290180872290,-2,0,3,-1,-6,-2,0,-1
1529290180872290,-5,-2,-1,-1,0,4,12,7
1529290180887675,-1,-6,-4,-6,-2,-3,-10,-8
1529290180887675,-1,-3,-2,-4,-10,-4,3,-1
1529290180903345,-4,-2,-2,1,1,-5,-9,-4
1529290180903345,-1,0,0,-2,-3,-9,9,5
1529290180910372,0,-1,0,0,-2,-2,3,3
1529290180910372,-1,-3,-1,-2,-5,-10,-3,-4
1529290180925330,-1,-2,-3,-2,-1,3,1,1
1529290180925330,-3,-1,1,2,1,-2,-14,-11
1529290180933307,-2,-1,-1,1,-10,2,15,3
1529290180933307,5,0,-1,-2,-6,-2,-1,0
1529290180955097,-1,-2,-1,0,8,-5,-6,-7
1529290180955097,0,1,-2,-3,-3,0,-4,5
1529290180970032,-1,-3,-4,-6,-10,7,5,2
1529290180970032,-2,0,3,4,0,7,-6,-6
1529290180978373,1,0,1,0,7,0,1,7
1529290180978373,-1,0,1,-1,11,-7,4,3
1529290180992971,-1,1,0,0,5,-27,0,-6
1529290180992971,-1,-3,-4,-2,1,-17,-1,1
1529290181000838,8,1,-1,1,1,-3,-5,8
1529290181000838,-1,1,1,-2,-4,9,2,-1
1529290181007965,5,3,1,1,-4,10,-4,2
1529290181007965,-4,-3,-4,-5,-5,7,1,-11
1529290181023292,5,3,3,2,-2,-9,-4,7
1529290181023292,-2,-1,-1,1,-2,-8,26,-1
1529290181030088,-4,-4,-1,-4,-6,7,7,6
1529290181030088,5,2,-1,3,-2,3,-3,5
1529290181045390,-3,-3,0,0,-2,-1,-4,0
1529290181045390,5,2,1,1,2,8,-9,3
1529290181053318,0,0,-4,-5,1,-2,-13,-4
1529290181053318,-20,-13,-9,-6,-1,-6,-5,-5
1529290181068148,19,7,5,2,1,2,-2,5
1529290181068148,-7,-3,6,4,7,1,-2,4
1529290181083261,-9,-7,-8,-6,8,17,0,-10
1529290181083261,1,1,-4,-7,-4,5,-3,1
1529290181090439,0,1,2,0,-4,87,-4,10
1529290181090439,6,-1,-2,0,-10,109,4,-9
1529290181105271,-9,-6,-1,1,-8,125,9,1
1529290181105271,-1,1,-1,0,-7,127,0,-7
1529290181112931,-6,-2,-2,-2,0,114,-2,-5
1529290181112931,3,3,-1,0,6,-37,1,5
1529290181128317,-7,-1,1,2,4,-39,-9,-9
1529290181128317,0,-1,-1,-1,3,-95,2,3
1529290181135355,0,0,0,-1,5,-121,-3,-5
1529290181135355,1,-2,-1,1,13,-108,2,2
1529290181143248,-4,-3,-2,-2,8,-128,-5,-3
1529290181143248,4,3,1,1,7,-128,-5,2
1529290181150334,-1,0,2,3,9,-124,1,-1
1529290181150334,4,2,1,-3,-5,-126,2,2
1529290181164718,-3,-2,-2,-1,2,-128,6,1
1529290181164718,-2,-5,-7,-4,3,-122,1,1
1529290181172982,1,-1,-4,-1,2,-110,0,-1
1529290181172982,4,1,1,1,1,-57,-2,2
1529290181187818,-5,-1,3,2,-6,48,-2,-3
1529290181187818,-1,2,4,2,-6,85,1,2
1529290181195777,0,-3,-1,-1,-11,102,-2,-2
1529290181195777,-2,-1,-1,-3,-12,82,-3,-2
1529290181202616,-2,-2,-3,-4,-8,48,-1,-2
1529290181202616,4,-1,1,2,-2,36,0,0
1529290181210836,-3,-3,-4,-6,-10,21,0,-1
1529290181210836,0,-2,2,-4,-6,17,1,-3
1529290181225629,3,1,-1,-1,-7,-4,3,-1
1529290181225629,-3,-1,-3,-1,-2,-7,0,-1
1529290181233447,-1,1,0,2,1,5,0,-2
1529290181233447,-2,0,1,1,-1,14,0,-2
1529290181255354,-1,1,0,0,-1,6,-1,-2
1529290181255354,0,-2,-2,2,2,1,2,0
1529290181262338,-2,0,-1,-3,-5,12,-4,1
1529290181262338,-1,1,1,2,-3,15,1,-3
1529290181270131,-2,-2,-4,-18,-20,-1,-2,0
1529290181270131,0,-1,-1,0,-1,12,-7,-3
1529290181278139,-1,-2,-1,1,-2,2,-4,-2
1529290181278139,1,-1,-1,2,2,5,-1,1
1529290181293329,1,0,0,4,7,5,1,2
1529290181293329,1,-1,-1,-1,-4,5,-4,-1
1529290181308320,-1,0,0,3,4,6,3,0
1529290181308320,2,0,-1,-2,-2,0,2,2
1529290181315821,-1,-2,-2,1,4,-4,-1,-3
1529290181315821,-2,-1,-2,-3,-1,3,-2,-1
1529290181322840,0,1,1,2,1,8,-1,1
1529290181322840,-1,1,0,-3,-1,3,1,0
1529290181330657,1,0,-1,0,-2,-5,0,-2
1529290181330657,0,0,-1,-2,-2,-10,-1,-2
1529290181345351,0,1,-1,0,1,-11,-2,-2
1529290181345351,-2,0,0,-2,1,-5,1,-2
1529290181353171,-1,-2,-1,-1,0,1,0,-1
1529290181353171,-1,-1,0,1,3,4,-2,-1
1529290181367973,-2,-2,-1,1,3,1,-1,1
1529290181367973,-2,-2,0,-2,-1,1,0,2
1529290181374958,1,0,0,0,0,-3,1,1
1529290181374958,2,2,0,-1,1,1,0,-2
1529290181383215,0,-1,-2,-1,-2,3,0,-2
1529290181383215,0,-1,-1,-2,0,1,-1,-1
1529290181389915,-2,-3,0,1,-1,-3,0,-2
1529290181389915,-2,-2,-3,-1,2,-2,-3,0
1529290181404878,-1,0,-1,0,0,-1,0,0
1529290181404878,-2,-1,0,0,-1,-3,-1,-1
1529290181412859,0,1,1,0,0,-2,-2,0
1529290181412859,-1,-1,0,0,4,1,0,-1
1529290181443158,-1,-1,-1,-6,-8,0,-1,-3
1529290181443158,-2,-1,-2,0,-2,2,0,-1
1529290181450729,-1,-1,1,0,0,1,0,0
1529290181450729,0,-3,-1,0,-2,7,-2,1
1529290181458428,0,-2,-1,4,3,11,1,0
1529290181458428,1,-2,-1,0,0,8,0,0
1529290181465466,-1,0,0,-4,-7,1,0,0
1529290181465466,0,2,0,0,1,-7,-2,-1
1529290181480246,-1,-5,-4,-1,3,-6,4,2
1529290181480246,0,2,-1,0,-1,-8,0,-1
1529290181488329,0,-1,-1,-1,1,-2,0,-1
1529290181488329,-1,-4,-3,-3,-1,5,2,1
1529290181495206,-2,3,2,0,2,4,-4,-1
1529290181495206,0,-2,-2,0,-2,9,3,1
1529290181502186,-1,-1,0,0,4,12,-2,0
1529290181502186,-1,-1,-1,1,-1,16,0,0
1529290181510165,0,0,-1,0,2,14,-1,-1
1529290181510165,0,-1,-2,-2,0,10,3,-1
1529290181525397,2,0,1,0,5,3,0,-1
1529290181525397,1,0,2,-1,3,4,-1,0
1529290181533105,2,-1,-2,0,2,7,-2,-1
1529290181533105,0,1,-1,0,5,-17,-2,-1
1529290181547869,1,1,0,-1,14,-36,-2,0
1529290181547869,0,2,0,-1,13,-34,-2,-2
1529290181555743,-1,-2,-2,-2,12,-11,0,0
1529290181555743,-1,-1,0,-1,2,39,1,-1
1529290181562768,-2,-4,1,-2,-3,52,-2,-2
1529290181562768,1,-5,-1,-1,-4,56,-4,-4
1529290181570788,-2,-4,-2,0,-3,33,0,-1
1529290181570788,0,-3,-1,-2,-5,11,-4,-2
1529290181585777,-2,1,0,-1,-8,-4,-2,-2
1529290181585777,-2,-1,-3,-1,-8,-23,-1,0
1529290181592735,-5,-1,-3,0,-4,-31,-1,-1
1529290181592735,-2,0,0,0,-6,-37,-1,1
1529290181608022,-3,-1,0,1,-7,-27,-2,2
1529290181608022,-1,-2,1,-1,-7,-31,1,0
1529290181615146,-2,-2,1,0,-5,-26,1,1
1529290181615146,-2,-1,-3,-1,-4,-19,0,5
1529290181623264,0,-1,-1,-2,-6,-17,2,2
1529290181623264,-1,1,-1,0,-6,-17,2,3
1529290181630160,1,-2,-1,0,-5,-4,0,1
1529290181630160,0,0,0,0,-6,7,1,0
1529290181645121,1,0,-2,2,-5,21,0,-1
1529290181645121,0,2,0,-1,-6,16,-2,-3
1529290181653099,0,0,-2,-2,-6,-13,-1,0
1529290181653099,1,-1,1,-1,-6,-21,2,-1
1529290181668241,1,-2,-2,1,-8,13,1,-1
1529290181668241,2,-2,-1,-1,-6,-8,2,0
1529290181675194,0,0,0,-1,-8,-3,0,0
1529290181675194,1,-2,0,0,-5,-21,-3,-3
1529290181683017,-1,-1,0,-2,-4,-18,-2,-1
1529290181683017,-2,0,-2,1,-2,-19,-1,-3
1529290181690179,-1,-1,-1,0,-4,-7,-1,0
1529290181690179,-1,0,0,-1,-4,-15,-1,-2
1529290181705189,1,-1,0,0,-4,-19,2,-2
1529290181705189,0,-1,-2,0,-4,9,-1,1
1529290181712171,-1,-1,0,-1,-1,15,1,-2
1529290181712171,-2,-1,-3,-2,0,27,0,-1
1529290181727690,-1,-2,-1,-2,2,12,0,-1
1529290181727690,0,0,0,-1,3,10,-1,0
1529290181735524,-1,-2,0,0,5,8,-1,1
1529290181735524,1,-2,0,-1,4,17,0,-2
1529290181742469,-1,2,0,0,1,11,-2,-1
1529290181742469,0,1,0,0,2,8,-1,-1
1529290181750095,-3,1,1,1,0,10,-1,-1
1529290181750095,-1,1,-1,-2,4,11,-1,1
1529290181765104,0,0,-1,-2,6,-1,-2,-2
1529290181765104,-1,-2,-1,-2,3,4,0,0
1529290181773273,1,0,-1,-1,1,-1,-1,0
1529290181773273,-1,-1,0,0,5,-1,-1,1
1529290181788286,-1,-2,0,-1,3,-6,1,-2
1529290181788286,-1,-1,-1,-1,3,2,-1,-2
1529290181795443,-1,-1,-1,-2,4,1,0,0
1529290181795443,-2,-2,-1,-1,1,-5,-3,-1
1529290181803371,0,-1,-1,1,4,-2,0,0
1529290181803371,0,-2,-1,-1,2,1,0,0
1529290181810404,0,1,-1,-2,2,7,-1,0
1529290181810404,-1,-1,-1,0,1,7,-1,0
1529290181825370,0,0,0,-1,4,2,-2,1
1529290181825370,0,-1,-2,0,3,-3,1,-1
1529290181833416,1,0,0,-1,1,-5,-1,-3
1529290181833416,1,1,-1,-1,2,-4,0,-1
1529290181848346,0,-1,-2,-1,0,-3,-1,-1
1529290181848346,1,1,-2,0,0,-4,0,1
1529290181855453,-1,-1,-2,-1,-1,-2,1,1
1529290181855453,1,-1,1,0,-1,0,1,-2
1529290181862433,-1,0,-1,1,0,0,-1,-2
1529290181862433,-1,0,1,2,2,1,-1,-1
1529290181870659,0,0,-3,-3,-3,-2,0,-1
1529290181870659,-2,0,-1,2,0,-2,-3,-1
1529290181885623,1,-1,-1,0,-1,-1,0,0
1529290181885623,0,-1,-1,-1,-3,0,-2,-2
1529290181892781,0,-2,-1,0,1,0,-1,-2
1529290181892781,0,-1,-2,0,-1,2,1,0
1529290181907568,0,0,-3,-1,-1,0,-2,1
1529290181907568,-1,-2,1,0,0,1,-1,1
1529290181915718,-1,1,1,0,-1,0,0,1
1529290181915718,-2,0,1,-2,-1,-2,1,0
1529290181922937,-2,2,1,-1,-2,-2,1,0
1529290181922937,-2,-2,-1,-2,-2,-4,0,0
1529290181930762,-1,-2,-1,0,-2,-1,-3,-2
1529290181930762,-2,-1,-2,-1,-2,-1,-1,-1
1529290181945843,-1,-3,-1,-2,-2,0,-4,-2
1529290181945843,-2,-1,-2,-2,-1,0,0,0
1529290181953008,-1,-2,-1,0,2,-1,0,0
1529290181953008,1,-2,-2,0,0,-2,-1,1
1529290181967965,0,0,-1,-2,0,-1,1,-1
1529290181967965,-1,0,1,-1,-1,1,-1,-1
1529290181975818,0,-2,1,0,0,0,0,0
1529290181975818,-2,0,1,-1,0,-1,1,-1
1529290181983149,0,0,0,0,0,1,1,-1
1529290181983149,0,0,-1,-1,0,1,0,-1
1529290181990182,-1,0,0,-1,1,-1,-2,-1
1529290181990182,-1,0,-1,1,0,0,-1,0
1529290182005513,-2,0,-2,1,0,-2,0,0
1529290182005513,-1,-1,-1,0,-1,-3,0,-1
1529290182012495,1,0,-1,-1,-1,-1,1,0
1529290182012495,-1,-2,0,-1,-2,-1,0,-1
1529290182027832,-1,0,-1,-2,-2,0,0,0
1529290182027832,-1,1,-1,-1,0,-1,-1,-1
1529290182035634,-2,1,-2,0,-1,-1,-1,-1
1529290182035634,0,-2,1,1,-1,1,-1,-2
1529290182042814,1,-1,1,1,-3,-1,0,0
1529290182042814,-1,-3,0,-2,-3,0,0,0
1529290182050970,0,-2,-1,-1,-2,1,1,0
1529290182050970,1,-2,-2,-2,-4,-1,-1,0
1529290182065740,1,-1,0,-1,1,0,-1,-2
1529290182065740,-2,0,0,0,-1,-1,-1,-1
1529290182072718,-2,0,-1,1,3,2,0,-1
1529290182072718,0,-1,-2,-2,1,-1,-1,0
