timestamp,emg1,emg2,emg3,emg4,emg5,emg6,emg7,emg8
1528875588236445,-5,-4,4,-7,-4,-5,-3,-2
1528875588236445,0,0,-1,-1,-1,0,0,0
1528875588237442,0,0,2,12,-21,-9,-5,-2
1528875588237442,-2,-2,-7,-23,26,8,0,-1
1528875588238440,1,0,-2,7,2,0,0,0
1528875588238440,-1,1,8,-1,-3,-3,-3,-1
1528875588239435,-1,-1,-8,0,17,5,1,0
1528875588239435,-2,1,11,9,-15,-6,-1,-1
1528875588246417,0,0,-6,-10,-8,-3,-2,1
1528875588246417,-1,-2,-3,-1,2,0,-1,-1
1528875588249408,0,1,-1,-2,-9,-5,-3,-1
1528875588249408,0,-1,-2,2,-1,-5,-8,-3
1528875588266363,1,0,-4,-3,5,7,11,4
1528875588266363,-3,-3,-5,6,-3,-1,-1,-1
1528875588274342,-3,-6,-14,-17,-6,-6,-4,-4
1528875588274342,0,1,3,3,-4,-3,-1,-1
1528875588281337,1,0,5,8,10,8,0,-1
1528875588281337,-2,0,-4,-9,3,2,-2,0
1528875588304262,-1,-2,0,2,2,3,0,-1
1528875588304262,-2,-2,-5,-1,-7,-5,-1,-1
1528875588342162,0,0,2,6,20,7,1,0
1528875588342162,0,-4,1,-3,-5,-1,0,0
1528875588343160,0,-1,-6,-4,-5,-5,-3,-2
1528875588343160,-2,0,-2,-3,-10,-7,-4,-2
1528875588344157,-2,-7,1,5,0,5,1,1
1528875588344157,-1,2,6,11,15,5,1,1
1528875588347148,1,0,-5,-20,-4,1,1,1
1528875588347148,-2,-2,4,6,-4,-3,-3,0
1528875588356123,-2,1,-10,-6,-11,-13,-5,-4
1528875588356123,0,-1,0,-5,1,7,5,1
1528875588363105,0,-2,7,8,4,2,-6,-5
1528875588363105,0,-2,-12,-11,-3,-3,-2,-1
1528875588369089,-1,0,2,11,-5,-5,-4,-2
1528875588369089,0,-2,-3,-31,-11,-9,-2,-1
1528875588386044,-2,2,7,18,6,0,0,1
1528875588386044,1,-1,1,-2,1,3,1,-2
1528875588392028,0,1,-3,-11,3,6,0,0
1528875588392028,-2,-1,0,18,-2,-3,-1,-3
1528875588406987,0,-2,-5,-7,-7,-3,8,3
1528875588406987,-2,-2,-3,0,5,0,-9,-3
1528875588415963,0,2,6,9,-7,-9,4,0
1528875588415963,2,3,2,2,10,14,-3,0
1528875588429927,0,-2,-7,-13,1,-3,-13,-6
1528875588429927,0,-1,5,13,2,-2,17,10
1528875588430929,1,-3,-7,-11,-9,-4,-17,-7
1528875588430929,-3,-3,0,11,-8,-6,23,4
1528875588452866,-1,-1,0,4,6,4,-6,0
1528875588452866,1,0,3,-2,4,1,2,-1
1528875588453864,-2,-2,4,-5,-7,-3,-7,-4
1528875588453864,-1,-2,-6,-2,1,-8,-18,-6
1528875588474806,-1,2,8,9,-2,-4,13,3
1528875588474806,0,-2,-6,-11,0,0,-8,-4
1528875588475804,-2,-1,-11,-3,-8,1,9,1
1528875588475804,-2,-2,-4,-3,-3,1,1,-1
1528875588489767,-1,-1,-1,-7,2,-2,-2,-2
1528875588489767,-1,-1,-5,-4,-6,-7,-2,1
1528875588490765,2,3,7,1,2,0,0,3
1528875588490765,4,1,0,0,0,0,-11,-5
1528875588512706,-1,-1,-3,4,-3,0,11,7
1528875588512706,-1,0,-2,-21,-7,-3,-3,-3
1528875588513703,-3,-3,1,1,3,0,-2,-1
1528875588513703,-1,6,8,1,2,-5,-2,-5
1528875588535652,-3,-2,7,17,-1,-2,-6,-2
1528875588535652,1,-4,-6,-14,1,1,8,-3
1528875588535652,-3,-9,-8,-2,2,2,7,2
1528875588535652,0,2,6,3,4,2,-3,-1
1528875588550722,1,4,-1,-4,-3,-5,-17,-4
1528875588550722,-5,-2,-2,6,-1,-1,8,-1
1528875588550722,-1,-1,1,0,-5,-3,-8,-2
1528875588550722,0,-5,-9,-17,-9,-5,-8,1
1528875588572561,0,0,-6,3,5,4,18,2
1528875588572561,-3,-6,-8,7,2,1,-16,-5
1528875588573542,4,6,11,2,3,0,2,2
1528875588573542,-6,0,12,11,2,-4,-11,-1
1528875588595485,3,-4,-14,-11,-4,-1,-1,-3
1528875588595485,0,9,12,23,2,-1,0,-1
1528875588596483,0,-5,-3,-1,1,2,1,0
1528875588596483,1,-2,-16,-17,3,0,-3,-1
1528875588610446,-4,5,19,17,4,-4,-4,-4
1528875588610446,-3,-10,-14,2,-1,3,0,0
1528875588611443,0,-1,1,-1,-2,-2,-3,-1
1528875588611443,-1,0,-4,-2,-7,1,10,0
1528875588632387,-2,-2,5,3,3,2,-1,-1
1528875588632387,1,-5,-5,-25,-7,-2,-4,0
1528875588633387,-1,3,6,2,3,-2,-2,2
1528875588633387,-2,-6,-8,10,-5,-1,7,-6
1528875588655324,-2,-4,-9,-23,-7,-5,-8,-5
1528875588655324,-1,-1,-5,3,-2,2,3,0
1528875588656342,-2,-2,0,-1,1,1,5,0
1528875588656342,3,3,9,-2,-2,-1,7,6
1528875588670285,-5,-4,6,-3,-9,-4,-6,-7
1528875588670285,-2,-1,-5,-3,0,-6,-27,-7
1528875588671286,-3,-5,-3,-15,-6,-8,5,-6
1528875588671286,1,2,-3,12,5,5,12,7
1528875588692227,-4,-3,-6,-9,2,1,-11,-1
1528875588692227,3,-4,2,5,-1,1,16,2
1528875588693222,1,1,6,8,3,1,-19,-6
1528875588693222,6,-4,-7,-17,-6,-11,-33,-5
1528875588715166,-16,-7,-20,3,-1,12,58,6
1528875588715166,-7,11,32,5,1,-4,-19,-5
1528875588716163,12,13,13,4,12,12,26,13
1528875588716163,-2,-5,-4,4,0,-1,-20,-1
1528875588730125,4,0,2,2,0,-7,-22,-2
1528875588730125,1,-4,-18,-10,-7,1,26,2
1528875588731132,-4,-2,-2,4,6,2,-12,-5
1528875588731132,-5,-1,2,0,2,2,15,3
1528875588753069,2,0,4,7,-2,-3,-19,-4
1528875588753069,-2,-6,-11,-13,-4,-5,-14,-5
1528875588753069,-2,-4,-5,-9,-2,4,50,19
1528875588753069,-3,-3,0,8,0,-2,-22,-13
1528875588775003,12,5,12,7,3,-3,-37,-5
1528875588775003,-3,-1,9,16,4,10,71,11
1528875588776003,1,-6,-21,-29,-11,-20,-48,-7
1528875588776003,-10,-2,5,26,-2,3,28,-5
1528875588789964,3,-3,-6,-17,-1,1,16,9
1528875588789964,7,2,5,-2,-1,-4,-47,-7
1528875588790961,-3,3,-5,3,-2,-2,-2,-2
1528875588790961,0,-1,-2,-36,-2,-7,-25,-4
1528875588812903,-5,0,29,92,1,-10,-44,-10
1528875588812903,4,1,-12,-11,5,16,80,18
1528875588813905,-3,-5,-4,3,-4,3,-5,-3
1528875588813905,2,3,-3,-9,-2,-13,-55,-10
1528875588834844,-6,-7,-26,-56,-12,17,103,18
1528875588834844,8,8,23,20,11,2,-21,-3
1528875588835842,-19,-1,-18,-4,-6,1,-9,-5
1528875588835842,-1,-6,-23,-15,-3,4,39,11
1528875588849804,1,-2,-4,-14,0,-2,-26,-6
1528875588849804,-3,-5,-5,0,-2,-7,-24,-3
1528875588857785,7,2,10,7,3,-2,8,-1
1528875588857785,3,-3,-5,8,-2,-3,-20,0
1528875588872764,-5,-1,-12,-19,-4,-4,7,-4
1528875588872764,4,9,12,13,2,0,-10,0
1528875588873742,0,-5,-2,1,8,3,-17,-9
1528875588873742,-5,-5,-15,-11,-8,-4,20,-1
1528875588894684,6,1,8,12,3,-2,-18,1
1528875588894684,-9,-5,-20,-21,-1,7,47,-4
1528875588895686,2,1,15,12,-1,-7,-13,0
1528875588895686,-7,-1,-9,21,4,5,11,-3
1528875588909645,6,-5,4,-20,-1,-2,-19,-3
1528875588909645,-5,-6,-14,5,-1,-8,-34,-1
1528875588910643,1,1,2,-4,-3,3,19,4
1528875588910643,-2,-6,2,7,-1,3,48,-3
1528875588932591,-1,7,14,6,2,1,-3,1
1528875588932591,-5,-8,-20,-8,-5,-9,-29,-5
1528875588933581,0,-1,-1,7,1,-2,5,1
1528875588933581,0,1,6,-1,1,1,-8,2
1528875588955522,-3,0,-7,-6,-2,-3,-6,-1
1528875588955522,-4,0,10,-3,-8,-4,1,-5
1528875588955522,0,-5,-3,-1,-1,-6,5,-3
1528875588955522,-1,-7,-5,-15,-4,1,-19,-6
1528875588970511,0,1,-8,-5,2,1,11,4
1528875588970511,0,2,0,11,3,-4,-26,-5
1528875588971479,-3,-4,-12,-6,-6,-2,16,0
1528875588971479,-1,0,9,-1,-6,-5,-9,6
1528875588992423,1,2,7,11,6,5,11,-4
1528875588992423,-3,-5,-3,-7,-5,-11,-49,-10
1528875588993420,-1,0,3,7,-3,-1,-12,-4
1528875588993420,3,6,-2,-19,0,6,26,1
1528875589015390,-11,-9,-19,-10,-8,0,38,11
1528875589015390,6,8,5,-3,-5,1,31,-2
1528875589016389,-4,-12,-6,-2,-4,-7,-49,-11
1528875589016389,-5,3,5,-20,-4,-15,-54,-6
1528875589029324,-3,-3,-8,14,-5,-3,22,-2
1528875589029324,-5,-3,1,1,5,1,9,-1
1528875589037303,-8,0,1,3,-5,-3,10,0
1528875589037303,6,7,10,7,7,-1,5,-5
1528875589052318,12,-2,10,2,-11,-11,-38,-3
1528875589052318,-10,3,15,4,-2,-7,-39,-5
1528875589053261,-5,-9,-47,-32,-2,6,-4,-38
1528875589053261,2,1,19,21,-2,8,62,60
1528875589075201,7,6,1,-12,6,4,-10,-1
1528875589075201,0,0,4,10,2,6,45,15
1528875589076234,0,5,7,5,-1,-15,-59,-9
1528875589076234,1,-3,-20,-26,-12,3,50,-12
1528875589089165,-1,1,37,17,11,10,4,0
1528875589089165,-4,-3,-20,-17,-3,2,-24,6
1528875589097203,10,1,-21,4,9,5,-6,-5
1528875589097203,-2,10,33,23,3,-9,-14,-2
1528875589113210,1,-7,-29,-12,1,11,86,14
1528875589113210,9,7,30,5,-4,-15,-87,-35
1528875589113210,-3,1,6,-5,-7,-3,72,39
1528875589113210,4,7,23,13,7,8,-27,4
1528875589135418,-6,-3,-2,7,2,-5,2,-1
1528875589135418,-9,-10,-16,-47,-8,-10,-54,-21
1528875589136252,5,5,37,49,3,6,25,-4
1528875589136252,-9,-10,-47,-56,0,5,27,13
1528875589149374,12,3,11,19,-13,-14,-95,-68
1528875589149374,10,-4,-24,-63,2,23,104,49
1528875589158196,8,5,44,64,17,20,45,65
1528875589158196,-9,-17,-25,5,-1,-2,-5,-10
1528875589172155,5,12,16,-3,-6,-13,-32,-9
1528875589172155,-24,-14,-8,8,-3,-4,22,-54
1528875589173193,2,1,-4,-2,-5,-4,-26,26
1528875589173193,6,8,13,29,12,2,-63,-13
1528875589195133,-7,-8,-47,-27,-6,0,53,3
1528875589195133,10,13,41,24,5,1,-6,16
1528875589196092,-5,4,-14,-45,-8,0,51,9
1528875589196092,2,-1,14,30,-2,-11,-72,-22
1528875589209057,-11,-5,-27,-10,-5,-9,-42,-18
1528875589209057,2,-9,2,26,5,0,15,13
1528875589218086,-8,-18,-22,-55,-9,-1,1,-18
1528875589218086,6,6,38,51,7,-5,-29,-5
1528875589232053,-8,-8,-1,-36,-1,7,-17,-16
1528875589232053,8,0,2,32,1,1,-28,32
1528875589240032,1,-3,-7,22,2,5,64,11
1528875589240032,1,-1,28,-5,3,12,-11,-5
1528875589254935,-11,-11,-32,-16,-11,-16,-20,-4
1528875589254935,2,3,-5,7,4,1,-31,-9
1528875589255934,-2,-2,-5,-23,-6,-11,-67,-22
1528875589255934,-12,-20,-38,-20,-14,-11,28,-12
1528875589270911,0,5,28,22,10,9,11,23
1528875589270911,-3,1,-5,1,-1,-4,-5,-4
1528875589277903,0,3,5,-5,2,-1,-1,-14
1528875589277903,-6,0,-6,2,2,2,21,1
1528875589292834,-1,0,-7,-18,-5,1,-22,13
1528875589292834,5,10,19,8,2,0,31,-3
1528875589293843,-7,-3,-7,1,-6,-5,-16,-12
1528875589293843,-1,-4,-32,-24,-6,-2,-2,-1
1528875589314819,2,2,12,2,5,4,-2,11
1528875589314819,-1,7,14,9,3,-5,-49,-17
1528875589315772,-2,-4,-36,-7,-7,1,40,7
1528875589315772,0,-3,7,-10,-6,1,29,2
1528875589338738,-3,-2,-7,-2,-3,-5,12,8
1528875589338738,-3,1,8,4,-3,-6,4,-4
1528875589338738,5,5,22,9,8,-1,-44,-7
1528875589338738,-4,-12,-32,-12,-15,-9,-15,-13
1528875589360705,-5,5,28,14,3,-2,-10,1
1528875589360705,-2,-13,-30,-17,-7,-7,-16,-5
1528875589361650,0,6,12,-3,4,1,3,-9
1528875589361650,3,7,4,3,2,6,32,11
1528875589374616,1,-3,3,21,5,-1,-14,3
1528875589374616,0,4,10,1,-2,3,23,5
1528875589383601,-6,-3,5,4,1,-2,-50,-19
1528875589383601,0,1,3,-4,1,1,14,5
1528875589398552,2,9,15,14,5,1,17,0
1528875589398552,1,-4,-19,-11,-4,6,22,5
1528875589399549,-2,-1,2,-9,-2,-10,-39,-3
1528875589399549,2,4,4,12,4,-6,-37,-11
1528875589420493,0,-3,12,16,5,8,67,13
1528875589420493,-2,-6,-39,-21,-3,-1,7,-2
1528875589422488,-10,-8,13,8,0,-4,-9,-5
1528875589422488,-1,0,-12,-20,-2,-2,1,6
1528875589434455,2,1,10,-1,-5,-9,-35,-8
1528875589434455,-3,2,15,12,3,-2,-6,3
1528875589443432,0,0,-4,0,-1,4,-18,-11
1528875589443432,7,1,-1,-5,1,4,41,7
1528875589458392,-1,1,1,6,5,1,-16,-1
1528875589458392,0,-1,-16,-22,-6,4,21,3
1528875589460386,-4,2,3,4,-4,-9,-16,-14
1528875589460386,-2,-6,-2,-9,-3,-3,0,9
1528875589480332,0,-6,-10,-9,-1,1,-11,2
1528875589480332,-2,-4,-9,5,0,0,0,-1
1528875589482329,5,5,13,8,5,5,12,3
1528875589482329,-4,-1,-8,-3,0,2,9,-2
1528875589494329,-3,-2,-7,-9,-4,-11,-13,-3
1528875589494329,-5,-2,9,-2,-4,-1,7,-6
1528875589503292,1,-3,-21,-16,-5,-1,17,6
1528875589503292,6,6,17,22,7,8,13,1
1528875589518560,-5,-11,-14,-20,-9,-7,-38,-4
1528875589518560,3,5,15,8,4,8,37,7
1528875589520560,0,-4,-2,-1,-3,-4,-7,4
1528875589520560,-5,-3,-15,-15,-7,-11,-50,-15
1528875589540734,0,0,-8,-3,-4,-5,31,5
1528875589540734,2,-1,18,7,-2,-5,-19,-5
1528875589542567,-2,-1,-26,-14,-4,1,-9,5
1528875589542567,-2,3,0,3,3,7,9,-5
1528875589554693,0,2,-9,-5,-5,-1,-9,-6
1528875589554693,1,0,5,7,-8,-11,-1,9
1528875589563525,0,3,3,6,5,-2,-16,-8
1528875589563525,0,-5,-3,-11,-2,-5,-21,-2
1528875589576634,4,4,16,8,7,16,65,9
1528875589576634,-4,-4,-8,1,1,-1,-11,-8
1528875589586675,1,3,21,14,2,-2,7,5
1528875589586675,-4,-2,7,9,-6,-14,-52,-11
1528875589601050,-4,-10,-27,-25,-3,8,62,9
1528875589601050,-4,-7,-10,-2,0,-6,-30,-8
1528875589603019,-2,-6,-14,-13,-6,-3,11,-1
1528875589603019,-1,1,5,4,1,3,-24,4
1528875589615007,2,6,12,8,6,-8,-36,-11
1528875589615007,2,7,15,15,5,4,9,4
1528875589623209,-2,-9,-28,-17,-3,7,32,-7
1528875589623209,-2,4,0,-5,-4,-3,14,5
1528875589637729,5,-2,0,1,-5,-13,-71,-24
1528875589637729,-3,-7,-28,-13,-9,-14,-7,23
1528875589644711,-5,-4,20,9,6,18,61,5
1528875589644711,-7,-11,-25,-24,-15,-23,-68,-44
1528875589660869,16,10,13,0,-7,4,65,55
1528875589660869,-2,2,10,12,8,2,5,-18
1528875589662702,-6,1,-12,-22,-9,-7,-8,-30
1528875589662702,4,5,18,32,12,4,9,47
1528875589674810,-9,-9,-22,-19,-12,-5,-12,-25
1528875589674810,-2,-3,-7,-10,-2,-4,-38,-17
1528875589683119,4,6,26,11,0,5,25,7
1528875589683119,-2,-7,-22,-19,3,12,71,7
1528875589698223,-2,-6,-10,4,-3,-5,-24,6
1528875589698223,-4,-4,-3,-9,-3,-3,-11,-8
1528875589705063,6,-4,6,7,3,-2,-30,4
1528875589705063,1,-2,4,-4,-2,4,23,-6
1528875589721269,-4,-7,-20,-5,-5,-1,5,7
1528875589721269,-3,-4,2,-30,-2,8,19,-26
1528875589722103,4,5,10,42,7,-6,-8,37
1528875589722103,3,11,11,5,15,7,8,-1
1528875589734442,-1,-1,-6,5,6,9,-5,1
1528875589734442,-5,-3,-1,26,0,-5,-15,-18
1528875589743266,-5,-2,-1,-41,-13,-14,-40,-10
1528875589743266,8,3,6,14,4,9,38,27
1528875589757584,-5,1,-5,-3,-3,-6,21,-12
1528875589757584,1,7,1,-8,-5,0,-1,-1
1528875589764561,-3,-10,-33,-15,0,3,-22,2
1528875589764561,-3,-11,-17,-19,-10,-4,-1,-9
1528875589781410,-5,-1,8,4,2,-6,-46,-12
1528875589781410,3,-2,3,16,-1,2,20,23
1528875589782363,-1,-1,-4,-9,-3,1,16,-5
1528875589782363,-3,4,1,2,-1,-3,-26,-9
1528875589794475,-4,-5,1,5,0,-1,0,-6
1528875589794475,1,1,3,-4,-2,0,14,13
1528875589803311,0,3,-1,5,1,-2,-8,-4
1528875589803311,-6,-1,3,-1,-4,-4,-9,-11
1528875589818285,1,7,18,8,5,0,-6,3
1528875589818285,0,-3,-8,-2,1,3,27,14
1528875589824241,0,1,-1,-5,0,1,-10,-5
1528875589824241,-2,-5,-1,4,-5,-4,4,-2
1528875589841194,-1,2,0,-6,-3,1,6,-1
1528875589841194,2,3,10,4,5,3,-9,4
1528875589842218,-5,-6,-8,0,-2,-3,0,-4
1528875589842218,-2,-1,2,2,-4,-4,5,-3
1528875589863271,0,1,0,0,0,-2,-20,-9
1528875589863271,-2,-4,-8,-4,-5,1,5,3
1528875589865130,2,1,3,1,2,-1,-6,2
1528875589865130,-2,-2,3,1,-2,0,5,-7
1528875589878167,-4,-3,-4,-3,-2,-5,-10,-5
1528875589878167,1,-2,-4,-3,-6,2,9,5
1528875589884577,-2,0,5,-2,-2,0,21,1
1528875589884577,0,0,3,-1,-2,1,-5,-1
1528875589901442,-1,-3,-4,0,0,0,-16,-4
1528875589901442,-3,-3,-4,-3,-4,-5,15,0
1528875589902401,0,2,4,1,-2,-3,-7,-1
1528875589902401,-1,-1,-11,-6,1,-1,-11,-3
1528875589923685,2,5,1,-2,-1,0,1,0
1528875589923685,-1,-6,-14,-8,-3,-5,-8,-3
1528875589925570,0,4,4,1,0,1,-6,-4
1528875589925570,-3,-1,1,1,-4,-8,7,0
1528875589937645,-3,-1,-3,0,-10,2,0,3
1528875589937645,1,5,10,4,15,12,-4,1
1528875589944629,-1,-2,-7,-4,-3,0,5,0
1528875589944629,-3,-4,-4,-3,-1,-3,-10,-3
1528875589960961,1,-5,-8,-7,-2,-5,9,1
1528875589960961,-1,-4,2,3,-4,-7,-13,-3
1528875589962955,-3,0,2,2,1,1,-2,-3
1528875589962955,0,1,1,1,0,-3,4,7
1528875589983931,-2,-2,1,0,-1,4,8,0
1528875589983931,1,-1,-4,-2,-1,0,0,0
1528875589984913,-1,-1,0,1,-2,-2,-9,-6
1528875589984913,-2,-3,2,1,-4,-2,-3,-1
1528875589996883,-1,-2,2,2,2,2,6,1
1528875589996883,-2,0,-3,-2,0,-1,-9,-2
1528875590005582,-1,-2,-2,-3,-2,-4,7,0
1528875590005582,-2,2,3,0,0,-6,-34,-6
1528875590020543,-4,2,-6,-7,0,4,27,0
1528875590020543,5,3,-5,4,-2,-5,-10,2
1528875590022558,0,3,9,-1,-2,-3,-26,-12
1528875590022558,0,-4,-1,1,-2,3,49,7
1528875590043637,-1,-1,3,4,4,3,-11,0
1528875590043637,-3,-3,-2,-6,-6,-4,-6,-2
1528875590045476,1,-2,1,12,0,-1,4,0
1528875590045476,-1,-1,3,0,-1,-3,-22,-7
1528875590057595,-1,2,-5,-3,-1,-3,-4,-2
1528875590057595,-2,4,-3,1,-1,1,12,-1
1528875590066580,0,-7,-3,0,-4,-1,-10,0
1528875590066580,-1,-4,-2,-5,2,3,7,-1
1528875590080387,-2,-10,-3,-1,-2,-2,-1,-2
1528875590080387,0,-6,-2,-3,-2,0,-3,-1
1528875590082378,-2,-3,-2,-2,-1,-2,4,0
1528875590082378,-1,-4,-4,-7,-3,1,0,0
1528875590103443,1,-1,1,0,0,-1,-2,-2
1528875590103443,-3,-2,0,-2,1,-4,-7,-4
1528875590105316,0,-2,-3,-5,-2,-1,5,-1
1528875590105316,0,0,-2,2,-2,1,2,0
1528875590117425,-1,-1,0,0,1,-1,-11,-2
1528875590117425,-3,1,-1,-6,-3,-1,4,0
1528875590126260,-2,-4,-4,-3,0,-1,4,1
1528875590126260,0,0,-1,0,0,0,-4,-1
1528875590141383,-1,-1,1,-1,-2,-3,-3,-3
1528875590141383,-2,2,-2,-1,-4,-2,-1,-2
1528875590142266,0,2,-1,1,0,-1,2,0
1528875590142266,-2,0,0,0,0,0,-8,-4
1528875590163212,-2,-2,-1,-5,-3,-2,-3,0
1528875590163212,-1,-3,-1,0,0,-2,1,-2
1528875590165172,-3,1,-1,-3,-2,-2,-12,-4
1528875590165172,0,1,0,0,-1,1,15,5
1528875590177279,0,-1,-1,-3,-3,0,3,0
1528875590177279,-2,-2,3,4,1,5,5,2
1528875590186115,2,2,-1,-2,1,-1,5,-1
1528875590186115,-3,-6,-1,1,-2,-2,-11,-3
1528875590208214,1,-1,-2,-1,0,-4,-8,2
1528875590208214,-4,-3,-3,-5,-6,-5,0,-6
1528875590210052,-1,1,-1,0,-1,1,-4,1
1528875590210052,0,1,0,0,2,-1,6,0
1528875590223017,-4,-2,-5,1,0,0,-3,-2
1528875590223017,2,-6,6,2,2,-1,-1,3
1528875590225012,-2,-1,-3,-3,-2,-2,-3,-3
1528875590225012,-2,-1,-3,-1,-5,-4,0,-2
1528875590237174,-1,1,-7,-2,-4,-1,-9,-2
1528875590237174,0,2,-1,-4,-3,-3,0,0
1528875590246150,-3,1,-1,-2,-2,0,8,1
1528875590246150,0,-5,0,1,3,0,-4,1
1528875590261411,-2,0,-1,0,0,2,2,-2
1528875590261411,-1,0,-1,0,-4,-3,1,0
1528875590262299,-1,-2,-1,-2,-2,-1,-7,-3
1528875590262299,-2,1,-9,-6,-3,-2,-3,-2
1528875590283365,-2,-3,11,5,2,-1,4,-1
1528875590283365,0,-2,-5,-1,3,4,4,2
1528875590285359,-1,-2,-2,-3,-9,-9,-9,-2
1528875590285359,1,1,6,1,1,3,4,3
1528875590297261,-2,-2,-3,-2,1,-1,5,-6
1528875590297261,3,6,6,3,2,6,15,4
1528875590306181,-1,-6,-1,1,1,2,0,0
1528875590306181,0,0,-2,-3,-5,-2,-5,-2
1528875590321142,1,2,-1,-1,-2,-1,-3,2
1528875590321142,-2,-1,-2,-1,-1,-3,-8,-3
1528875590322140,0,1,-7,-3,-1,0,7,0
1528875590322140,-1,-1,4,-1,-1,-2,-4,-2
1528875590343113,-1,-3,-1,-1,0,-2,-2,-3
1528875590343113,-2,0,-8,-4,-3,-3,-3,-3
1528875590345077,0,-2,-1,1,1,1,0,0
1528875590345077,-2,-1,-1,-1,-2,-3,-4,-4
1528875590357045,0,1,1,0,-2,-2,0,0
1528875590357045,-1,-1,-2,-1,2,1,-2,-2
1528875590366021,1,-2,-1,-2,1,-1,-3,0
1528875590366021,-2,2,1,2,-1,-3,2,-4
1528875590381308,2,0,-8,-10,-7,-5,0,0
1528875590381308,0,1,4,6,6,0,-8,-3
1528875590382222,-3,-10,2,1,5,5,4,0
1528875590382222,-3,-1,-2,1,-1,1,0,-2
1528875590403306,0,-2,-1,-2,-3,-2,-1,0
1528875590403306,-2,-6,1,0,-1,-2,-5,-1
1528875590405298,-1,-1,-3,0,-5,-4,-1,-2
1528875590405298,0,0,-4,-6,-3,-3,-2,-1
1528875590417408,1,-1,2,2,2,-1,0,-3
1528875590417408,-2,-4,-10,-5,-4,-2,-4,-2
1528875590425686,-1,3,0,0,1,-2,0,-1
1528875590425686,1,-2,-1,-1,-1,0,-2,2
1528875590440704,-2,1,1,1,0,0,-2,2
1528875590440704,-1,-1,-1,-3,-2,-2,-1,-1
1528875590442698,0,2,1,0,-2,-2,0,1
1528875590442698,0,0,3,0,0,0,-2,-1
1528875590463655,0,-1,0,2,1,-1,-2,-2
1528875590463655,0,1,0,-3,-3,0,0,-2
1528875590464640,0,0,-1,-2,-2,-1,-1,-1
1528875590464640,-3,-1,-4,-1,-1,-1,2,-1
1528875590476607,-2,-2,1,0,0,1,0,0
1528875590476607,0,0,-1,-1,-3,-1,-2,1
1528875590485586,-3,-1,-3,-3,-1,-3,-3,-6
1528875590485586,0,0,-2,2,1,-1,1,1
1528875590500741,0,-2,-2,1,0,-2,-10,0
1528875590500741,-2,-3,1,-1,0,2,19,4
1528875590502752,-1,-1,-1,-3,-1,-2,-2,-2
1528875590502752,1,1,0,-1,0,-1,-6,-2
1528875590523661,-1,-2,-2,-3,-1,-2,-3,-1
1528875590523661,-1,-2,-3,-2,0,-3,-5,-6
1528875590524658,0,-1,2,0,0,3,20,8
1528875590524658,-2,0,-3,-4,-1,-2,-5,-3
1528875590536971,-3,-1,-1,0,-1,-2,-10,-2
1528875590536971,-1,-2,-2,1,-1,-3,-2,-3
1528875590545825,0,1,0,-1,-1,-1,-3,2
1528875590545825,-1,0,-1,-2,-1,-1,3,-1
1528875590560768,-2,0,0,-4,-1,2,-2,-2
1528875590560768,-2,-1,-2,-2,-4,-1,-3,0
1528875590566891,-2,0,-2,0,-1,-1,-3,-3
1528875590566891,-2,-2,-2,-1,0,-2,-2,-2
1528875590583882,1,-3,0,0,-1,-1,-1,-3
1528875590583882,0,-1,1,-1,0,1,-4,-2
1528875590584882,1,-1,0,0,-1,0,6,-1
1528875590584882,-1,-1,0,0,1,0,-6,-1
1528875590596853,-2,-1,-2,-1,-3,0,10,1
1528875590596853,-1,1,-1,-1,0,-1,-5,-3
1528875590605833,0,-1,-3,0,-3,-2,-10,-1
1528875590605833,-1,-1,-2,0,-4,-2,4,-2
1528875590620077,-1,0,-1,-2,0,-1,2,0
1528875590620077,1,-1,0,-1,-2,-2,-8,-2
1528875590627073,0,-1,-1,-3,1,1,-1,-3
1528875590627073,1,-3,0,-1,-2,-1,-1,-1
1528875590643111,-1,-3,0,-1,0,0,3,0
1528875590643111,-2,-3,-1,-3,-1,-3,-2,-1
1528875590644950,-2,-1,-1,-1,1,-1,-4,-2
1528875590644950,-2,-3,1,-1,0,0,-1,-1
1528875590656918,-2,1,-1,-1,-1,0,-1,-2
1528875590656918,-1,-2,-1,1,-2,-1,0,0
1528875590665894,-1,-3,-2,-1,1,0,-4,-1
1528875590665894,-1,0,0,-1,-2,0,-1,-1
1528875590679870,0,0,-2,0,0,-2,-2,-1
1528875590679870,-1,-1,1,0,-2,-1,0,-2
1528875590687003,1,-1,-1,-2,0,-2,-3,-3
1528875590687003,-1,-1,-2,0,-1,-1,-2,1
1528875590703891,-1,-2,1,0,-1,-1,0,-1
1528875590703891,-1,-2,-2,-1,-1,0,-3,-1
1528875590704891,-1,-4,-1,1,0,-1,-2,-3
1528875590704891,-1,0,-1,-2,-1,2,-1,-2
1528875590716998,0,-2,-1,1,0,0,-1,-3
1528875590716998,0,-2,-2,-1,1,-1,-2,1
1528875590726130,-3,-1,-3,-1,-3,1,-1,-1
1528875590726130,-2,-2,-1,-2,-2,-2,-1,1
1528875590740139,-1,0,-2,-2,-2,-1,-1,1
1528875590740139,-2,1,0,-3,-1,-2,-3,0
1528875590747232,-1,0,0,-1,-1,-2,-4,-1
