timestamp,emg1,emg2,emg3,emg4,emg5,emg6,emg7,emg8
1528184960316477,0,-1,-1,-1,-2,-1,-2,-1
1528184960316477,-1,0,0,1,-1,0,-2,1
1528184960325453,0,0,-1,-1,-1,-2,-1,-2
1528184960325453,-1,-2,0,0,-1,-1,0,0
1528184960340413,0,-3,0,0,0,0,1,-1
1528184960340413,-1,0,-1,-1,0,-1,-1,1
1528184960342408,1,0,-1,0,-1,-1,-2,-1
1528184960342408,1,0,-2,-2,0,0,-1,0
1528184960363353,-2,-1,-1,-1,1,-1,1,-1
1528184960363353,0,-2,0,-2,0,-3,-1,-1
1528184960365347,-1,0,-1,1,1,0,0,0
1528184960365347,-2,0,0,-1,0,-2,-1,0
1528184960377355,-1,0,0,-1,-1,-1,0,-1
1528184960377355,-1,0,0,0,0,-1,-1,1
1528184960386337,0,-1,1,-1,0,0,-1,-2
1528184960386337,-2,0,-1,-1,-3,-1,0,-2
1528184960400305,0,0,0,0,0,-1,-1,2
1528184960400305,0,0,-1,0,-3,0,-1,-1
1528184960407273,-1,0,0,-1,0,-2,1,-2
1528184960407273,0,0,-1,0,0,-2,-1,-1
1528184960423224,0,1,-1,0,-2,1,0,0
1528184960423224,-1,0,-2,-2,-1,0,-1,-2
1528184960425242,-2,0,0,-2,-1,-1,0,0
1528184960425242,0,-1,-2,-1,-2,-1,-2,-1
1528184960437192,0,-1,1,-2,0,-2,0,-1
1528184960437192,-1,-1,0,0,2,-2,0,0
1528184960446132,0,-1,-2,0,-1,-2,0,-1
1528184960446132,-2,0,-1,-2,0,-1,0,1
1528184960461092,1,-1,-1,0,-2,0,-1,-1
1528184960461092,-1,1,-1,-2,0,1,-1,1
1528184960462219,-1,0,-2,-2,-1,-3,-2,1
1528184960462219,0,0,-2,1,1,-1,-1,0
1528184960483081,0,0,0,-1,0,-1,0,-1
1528184960483081,-1,-1,0,0,-1,0,1,-2
1528184960485054,0,0,0,0,-1,1,-2,-2
1528184960485054,-2,-1,0,1,-1,0,-2,0
1528184960497044,0,-1,-1,-1,0,0,0,-1
1528184960497044,1,-2,0,0,-1,-2,-2,-1
1528184960505971,1,0,-1,-1,0,0,-1,-1
1528184960505971,1,-1,0,-1,-1,-1,0,2
1528184960520966,-2,-2,0,0,1,-1,-1,0
1528184960520966,0,0,-1,1,-2,-1,-1,0
1528184960521927,-1,-2,0,-1,0,-1,1,1
1528184960521927,1,-2,-1,-1,-1,0,0,0
1528184960542872,-1,0,-2,-1,-1,0,1,-1
1528184960542872,-1,-1,0,-1,0,-1,0,0
1528184960544867,-1,-2,-1,-1,0,0,0,-1
1528184960544867,0,0,0,-1,0,-1,0,0
1528184960556836,0,0,-1,-2,-2,1,-1,-1
1528184960556836,-1,0,-2,-2,1,0,-1,-2
1528184960565812,-1,-2,0,1,-1,0,0,-1
1528184960565812,-1,-1,0,-1,-1,-2,-1,-2
1528184960580772,-1,1,-1,1,0,1,-1,-2
1528184960580772,-1,-2,1,-1,0,-2,-1,0
1528184960582765,0,-2,1,0,0,-1,1,0
1528184960582765,1,-2,-1,-1,1,1,0,-1
1528184960602756,-2,0,0,0,-1,-1,-1,0
1528184960602756,0,0,-1,-1,-1,-1,0,-1
1528184960604708,-1,2,-1,-1,-3,-2,-3,0
1528184960604708,0,0,0,0,0,-2,0,0
1528184960616679,1,-1,-1,-2,0,-1,-1,-1
1528184960616679,-1,1,-1,0,0,0,-1,-3
1528184960625652,0,-3,-1,0,0,1,0,0
1528184960625652,-1,0,-1,-1,-1,0,1,-1
1528184960640668,-1,-1,-1,0,-2,1,-1,1
1528184960640668,-1,-2,0,1,0,-3,-1,0
1528184960642606,-1,1,-1,-2,-1,0,-1,-2
1528184960642606,0,0,-1,0,-1,1,-2,0
1528184960663549,-2,0,0,0,1,-2,-1,-1
1528184960663549,-1,-1,-1,-1,0,1,-1,-1
1528184960664547,0,0,-1,-1,0,-2,-2,0
1528184960664547,-2,0,0,0,-1,0,0,0
1528184960676519,-1,-3,0,-2,-2,-1,0,1
1528184960676519,-1,1,-3,-1,0,-1,0,0
1528184960685538,-1,1,1,0,0,-3,2,-3
1528184960685538,1,1,0,0,-1,-1,0,0
1528184960700451,-1,-2,-1,1,-3,-2,-1,-1
1528184960700451,-1,-1,0,-2,-1,-1,-1,-1
1528184960702445,0,-1,0,-2,-3,-1,1,0
1528184960702445,-2,-1,-3,0,-1,0,-1,-2
1528184960723426,0,0,0,-1,0,-1,1,-1
1528184960723426,1,0,-1,0,0,0,1,-1
1528184960724424,0,1,-1,1,0,-1,-1,-1
1528184960724424,1,0,-2,-1,-2,1,-2,0
1528184960737392,-1,-1,-2,-1,-1,-2,1,-1
1528184960737392,-1,-2,-1,-2,-4,0,-1,2
1528184960746329,-2,-2,-1,0,1,1,-3,0
1528184960746329,0,-1,0,-1,1,-3,0,1
1528184960768271,-1,0,-1,1,1,0,-2,-1
1528184960768271,1,0,0,-1,-1,-1,-2,-1
1528184960770265,-2,0,0,1,-1,-1,0,0
1528184960770265,-2,-1,0,-1,0,-2,-1,-1
1528184960799187,-1,0,-1,0,1,-1,0,-1
1528184960799187,-2,-3,1,-2,0,0,-1,-1
1528184960801181,1,-3,-1,0,0,-1,1,0
1528184960801181,-2,-2,0,-1,-1,0,-1,0
1528184960802179,0,0,-2,-3,0,-1,0,0
1528184960802179,-2,0,-2,0,-1,-1,0,-1
1528184960806168,0,1,0,-1,-1,-1,-3,-1
1528184960806168,-1,0,-2,-1,-2,-1,-1,-1
1528184960828109,0,-1,-2,-1,-1,0,0,1
1528184960828109,0,0,-1,0,-1,-1,1,0
1528184960830105,0,0,-2,-1,0,1,0,0
1528184960830105,0,-1,-2,-1,-2,0,0,0
1528184960843072,0,-1,2,-1,-1,-2,-1,-1
1528184960843072,-1,0,-2,1,0,-2,-1,-3
1528184960845075,0,-1,0,-1,2,-1,0,1
1528184960845075,-1,-1,-1,1,0,1,0,-1
1528184960857033,-2,2,-1,-2,0,0,-1,0
1528184960857033,-1,-2,-1,-2,1,-1,0,1
1528184960866017,-1,1,0,-2,-1,-1,0,-1
1528184960866017,-2,1,0,-1,1,-1,0,0
1528184960879969,-3,-2,0,0,-2,0,-1,-1
1528184960879969,-1,1,1,0,-2,-2,0,0
1528184960886952,0,-1,-1,0,1,0,-2,-1
1528184960886952,0,0,0,-2,1,-2,-1,-1
1528184960910889,1,0,-1,-2,-2,0,-1,-2
1528184960910889,-1,-1,0,0,-3,0,-2,1
1528184960911886,-1,-1,1,0,-2,0,0,-2
1528184960911886,0,0,0,-1,-1,0,-1,-1
1528184960916873,1,1,-2,1,1,-1,-2,-1
1528184960916873,0,0,0,0,-1,1,1,-1
1528184960926846,-1,0,-1,1,0,-1,0,1
1528184960926846,1,-1,0,-2,0,-1,-1,-2
1528184960939811,-1,0,-1,-1,-1,-2,-1,0
1528184960939811,1,-1,0,-1,-1,0,0,0
1528184960946792,0,-2,-3,-1,-2,0,-2,1
1528184960946792,-1,-1,0,1,-2,-1,-1,0
1528184960963747,1,-2,-1,0,-1,-1,-1,-1
1528184960963747,-1,1,0,0,0,0,-1,-1
1528184960964744,-2,-1,0,0,-1,-1,-1,1
1528184960964744,-1,-1,1,-1,-1,0,-1,0
1528184960976712,0,-2,-1,-1,-2,0,-1,-1
1528184960976712,-2,-1,-3,-2,0,0,0,-1
1528184960993693,1,-2,-2,-2,-1,-1,-1,-1
1528184960993693,-1,0,-1,1,-1,-1,-2,-1
1528184960999695,-3,0,-2,1,0,0,0,1
1528184960999695,0,-2,0,1,-2,-1,-2,-1
1528184961006691,0,2,-1,-1,-1,0,0,-1
1528184961006691,1,-2,-2,0,-2,0,1,0
1528184961024618,-1,-1,1,-1,-1,-1,0,1
1528184961024618,-1,-3,-1,0,1,-1,-1,0
1528184961026580,0,-1,-1,0,-1,-1,0,-2
1528184961026580,0,-2,-2,-1,-1,1,1,-1
1528184961045580,-1,0,-1,1,0,0,1,1
1528184961045580,0,1,-1,-1,-1,0,0,0
1528184961047524,-1,-1,0,0,-1,-1,-2,-2
1528184961047524,0,1,-2,0,-1,-1,1,-1
1528184961075457,0,0,-1,-2,-2,-1,1,-1
1528184961075457,-1,-1,-1,0,-1,0,-1,0
1528184961077443,-1,-1,-1,-1,-1,0,-2,-1
1528184961077443,0,-1,-2,0,0,-2,-1,0
1528184961083483,1,0,-2,0,-1,-1,-1,0
1528184961083483,1,-1,-2,0,-1,1,0,-2
1528184961084478,-1,-2,1,-2,-1,0,0,1
1528184961084478,-2,1,-1,0,-1,0,-2,-1
1528184961105426,-2,0,1,0,1,0,0,-1
1528184961105426,0,-1,1,-2,-1,0,0,0
1528184961107370,-1,0,-1,-1,0,0,0,0
1528184961107370,-1,0,-1,-1,-2,0,-1,-1
1528184961120382,-1,-1,0,-1,-1,0,-1,0
1528184961120382,-1,-1,-2,-1,0,-1,-1,0
1528184961127340,0,0,-2,-1,-1,-1,-1,-1
1528184961127340,0,0,0,-1,0,-2,-1,-1
1528184961144500,0,-1,1,-1,0,-1,-1,-1
1528184961144500,0,0,-1,0,-2,-1,-1,-3
1528184961146260,-1,1,-1,-1,-1,-1,-1,1
1528184961146260,-2,0,-1,-2,-2,0,-1,0
1528184961166210,1,1,-1,0,0,1,-1,0
1528184961166210,0,0,-1,-1,-2,0,-1,-2
1528184961167204,-1,-2,0,-1,0,0,0,1
1528184961167204,-1,-1,1,-1,0,-2,-1,0
1528184961180168,0,-1,-1,-1,1,2,0,-1
1528184961180168,-1,0,1,0,0,-1,-1,-1
1528184961188316,0,0,2,0,-1,-1,2,-5
1528184961188316,-1,-1,0,-1,0,-2,0,-1
1528184961202109,-1,-1,-1,-2,-1,-2,1,0
1528184961202109,-1,0,-1,0,-2,0,2,0
1528184961211085,-1,1,0,-1,-1,0,0,0
1528184961211085,-1,-1,-2,-1,1,0,-1,-1
1528184961226049,-1,0,1,2,-1,0,0,0
1528184961226049,-1,-1,0,-2,-1,1,-1,-1
1528184961227361,-1,-1,0,0,0,-1,-1,1
1528184961227361,0,0,-2,-1,0,1,-2,-1
1528184961249106,0,2,-2,0,0,-1,-2,0
1528184961249106,-1,-1,-1,0,0,-2,-1,1
1528184961249982,-1,-2,-1,-1,0,-1,-2,0
1528184961249982,0,1,1,0,-1,1,0,0
1528184961271220,0,-1,0,-2,-2,0,-1,-1
1528184961271220,-1,-2,-1,-2,0,-1,0,0
1528184961273189,-2,-2,0,0,-1,1,-1,-2
1528184961273189,-2,-1,0,0,1,0,0,-1
1528184961284887,-2,-1,-2,-2,-3,-3,1,0
1528184961284887,-1,2,-2,0,-1,-1,0,-1
1528184961291869,-1,-2,-1,1,-1,0,-1,0
1528184961291869,0,0,-1,0,0,1,0,0
1528184961308187,0,-1,-2,-1,-1,0,-1,-2
1528184961308187,0,-1,1,-1,-1,0,0,-1
1528184961309823,0,0,-2,-1,-2,-2,-1,-1
1528184961309823,0,-1,0,0,-3,0,-1,1
1528184961322837,-1,-1,-1,-1,0,-2,-1,1
1528184961322837,-1,0,0,-1,0,-1,-1,-2
1528184961331170,1,0,-1,1,0,-1,-1,0
1528184961331170,0,-2,0,-1,-1,-1,-1,-1
1528184961344611,0,-1,0,0,0,0,-1,-2
1528184961344611,0,0,-1,-1,-2,1,0,0
1528184961353587,0,1,-1,0,1,0,-1,-1
1528184961353587,-1,0,-2,-1,-1,-1,0,0
1528184961368755,-1,-1,-1,-1,-1,0,1,-3
1528184961368755,-2,-1,-3,0,0,0,0,-1
1528184961370559,0,0,-1,-3,-1,0,0,0
1528184961370559,1,-2,-1,-1,0,-1,0,-1
1528184961381761,-1,-2,-2,1,-1,-1,0,1
1528184961381761,0,-1,0,-1,0,-1,-2,0
1528184961390489,-2,-3,-1,0,-2,-2,0,-1
1528184961390489,-1,-2,-1,0,-1,-1,-1,-1
1528184961405691,0,0,-1,1,0,-1,-1,0
1528184961405691,0,0,-2,0,-1,-1,1,-2
1528184961412633,0,1,-2,-1,-1,0,-1,-1
1528184961412633,0,0,0,0,-1,0,2,1
1528184961436418,-1,0,-2,-1,0,0,-1,1
1528184961436418,0,-2,-1,0,2,-1,-2,-1
1528184961437363,-1,-2,-3,-1,0,0,1,0
1528184961437363,-1,0,-1,0,-1,-1,0,-2
1528184961442349,-1,-4,1,-1,0,-1,0,0
1528184961442349,1,-1,0,0,-1,0,-1,0
1528184961450889,-2,-2,-1,0,0,-2,-1,-2
1528184961450889,1,-1,-1,-1,-1,1,-3,0
1528184961465936,-2,-1,-1,2,-1,-2,0,-1
1528184961465936,-2,-3,-1,-1,-2,0,-1,0
1528184961472750,-2,1,1,0,0,-2,1,-1
1528184961472750,1,-1,-3,-2,0,-1,0,-1
1528184961488536,-1,-1,1,-2,-1,2,-1,0
1528184961488536,0,-1,-3,-2,0,-1,1,0
1528184961490744,0,0,-2,-2,-1,-2,-1,0
1528184961490744,-1,1,-1,1,-1,0,1,-1
1528184961502656,-1,0,-1,-2,0,-1,-1,0
1528184961502656,0,-1,0,-1,0,-1,-1,-2
1528184961510935,-1,0,0,-1,-2,1,0,-1
1528184961510935,-2,0,1,-1,-1,-2,-1,-1
1528184961525206,0,-1,-2,-1,-1,-2,0,0
1528184961525206,0,-1,-1,0,0,0,-1,1
1528184961532227,-1,-2,-1,-2,-1,0,0,0
1528184961532227,-1,-2,0,0,-1,-3,-3,0
1528184961548824,0,0,-1,0,-1,-1,0,-1
1528184961548824,0,1,-1,0,0,-1,-1,0
1528184961549851,1,-1,1,0,0,0,0,-2
1528184961549851,-1,-1,-1,-2,1,1,1,0
1528184961571087,-1,-1,-1,-2,0,0,-1,-1
1528184961571087,-1,0,-1,-1,-2,0,-1,0
1528184961572760,0,-1,-3,0,-2,0,1,-2
1528184961572760,-1,-1,0,0,0,0,-3,0
1528184961585830,1,0,-1,-1,-1,1,0,-2
1528184961585830,-1,0,1,0,-1,-2,1,-2
1528184961591714,-1,-2,0,1,-1,0,-3,1
1528184961591714,0,-2,-2,2,0,0,1,0
1528184961608736,-2,-1,-2,0,1,-2,0,-1
1528184961608736,-2,0,0,0,-1,0,0,0
1528184961609756,-1,-1,-2,-1,-2,0,-2,0
1528184961609756,-2,1,-1,-1,0,0,0,-1
1528184961631285,2,-1,0,-1,-2,0,0,0
1528184961631285,-1,-1,-2,0,0,0,0,-2
1528184961633083,0,-1,-1,-1,0,0,-1,0
1528184961633083,-1,-1,-1,-1,-2,-2,0,0
1528184961645210,-1,-1,-1,0,0,-1,0,1
1528184961645210,0,-1,-1,-2,-1,0,0,-2
1528184961653188,0,-1,0,0,-2,-1,0,-1
1528184961653188,-1,0,0,1,-1,0,1,-1
1528184961668148,-1,1,-2,0,-2,0,0,0
1528184961668148,0,-1,0,0,-1,-1,0,1
1528184961669884,-2,-1,0,0,0,-2,0,0
1528184961669884,0,0,0,-2,0,0,0,-1
1528184961691168,-1,0,0,0,0,0,-1,0
1528184961691168,-1,0,-1,0,-1,1,-1,0
1528184961692821,-1,0,-1,-3,-1,-1,-1,-1
1528184961692821,1,0,0,-1,-1,-2,-2,-1
1528184961714005,-1,-1,2,0,0,0,1,-1
1528184961714005,-1,0,-1,-1,0,-1,0,0
1528184961714763,0,-3,-1,0,1,-1,0,1
1528184961714763,0,-1,0,-2,-1,-2,-1,1
1528184961728974,-2,-2,-1,-1,1,-3,-2,-2
1528184961728974,1,-1,-1,0,-1,-1,-1,-1
1528184961729735,-1,-1,-1,0,-1,-2,0,-1
1528184961729735,1,0,-2,0,0,1,-1,-1
1528184961750679,1,-1,0,-1,-1,-1,-1,-2
1528184961750679,0,-2,-2,-2,-1,0,-1,-1
1528184961752661,1,-1,-1,0,0,-2,-1,0
1528184961752661,-1,1,1,0,0,-1,-1,-2
1528184961764184,-1,0,-1,-1,-1,-1,0,-1
1528184961764184,-2,-1,0,-2,-1,-1,2,-1
1528184961773906,-1,-1,-1,-2,-1,0,-1,0
1528184961773906,-2,0,-2,-2,-2,-1,-1,-1
1528184961788985,0,-1,0,-1,-3,-2,-1,-1
1528184961788985,-2,-1,-1,1,0,-2,-1,-1
1528184961789863,1,0,0,-1,0,-1,-1,0
1528184961789863,-1,-2,-2,-1,0,-1,-1,-1
1528184961810808,0,0,-1,1,-1,-2,1,0
1528184961810808,-1,0,-3,-1,0,-2,-2,0
1528184961812820,-1,1,0,1,-1,-2,-1,-2
