timestamp,emg1,emg2,emg3,emg4,emg5,emg6,emg7,emg8
1529563141977620,-2,-2,-2,2,0,0,0,0
1529563141977620,-2,-3,1,-2,0,0,-1,1
1529563141992534,0,0,-2,1,-1,-2,-1,0
1529563141992534,-1,-1,-1,-2,-2,-2,-2,0
1529563142000513,1,-1,1,0,-1,0,-2,-1
1529563142000513,-2,0,0,-2,-1,0,0,0
1529563142015473,0,0,0,0,0,1,0,0
1529563142015473,-1,0,-1,0,0,-1,0,1
1529563142022490,-2,-2,-1,-1,-3,-1,0,-1
1529563142022490,0,-1,-1,-1,-1,1,0,-1
1529563142030433,1,-1,1,2,1,2,-1,1
1529563142030433,-1,-2,0,-3,0,-1,-1,0
1529563142037449,-1,0,0,-2,-1,-1,0,-1
1529563142037449,0,0,-1,-1,1,-3,-1,-3
1529563142052425,-1,-1,-1,0,-1,-1,-1,-1
1529563142052425,1,0,0,-1,-3,-1,-1,0
1529563142060356,-1,0,-2,0,-1,-2,1,-1
1529563142060356,1,0,-1,-1,-1,1,-1,0
1529563142075350,-1,-2,0,0,0,0,-1,0
1529563142075350,0,-1,-1,-2,0,1,-2,0
1529563142083290,-2,-2,0,0,1,-2,1,-1
1529563142083290,-1,-2,-2,-1,-2,-1,0,2
1529563142090307,1,-2,1,0,-1,-1,-1,-1
1529563142090307,-2,-1,0,-2,1,-1,1,1
1529563142098301,1,0,-2,-2,0,1,-2,0
1529563142098301,0,-1,-1,0,-1,-1,-1,-1
1529563142113263,-2,0,-2,0,0,-1,0,-2
1529563142113263,-1,0,0,0,-1,0,0,0
1529563142120194,0,0,1,0,-2,-1,-1,0
1529563142120194,-1,0,0,0,0,-1,0,-1
1529563142135180,1,0,-2,-1,-2,-1,-1,-1
1529563142135180,-1,0,-1,0,1,-1,-1,0
1529563142143171,0,0,0,-1,-1,0,0,1
1529563142143171,-1,1,-1,1,-3,0,-2,-1
1529563142150113,0,0,2,0,-1,-1,0,0
1529563142150113,0,0,0,0,1,-1,1,-2
1529563142158092,1,-1,1,-1,1,-1,-1,0
1529563142158092,0,-1,0,-1,0,-2,-2,-2
1529563142173052,-2,-1,-1,-1,-1,-1,0,0
1529563142173052,-1,-3,-1,-1,-2,-1,-3,0
1529563142180034,-1,1,-1,0,1,-2,-1,-1
1529563142180034,1,1,-2,-2,-1,0,1,0
1529563142194994,-1,1,0,-1,-1,0,0,-3
1529563142194994,0,-2,1,-1,1,-1,0,-1
1529563142202973,-1,0,-1,-2,-2,0,-1,-1
1529563142202973,0,-1,-1,0,0,1,-2,0
1529563142209955,-1,0,-1,0,0,-1,1,-1
1529563142209955,0,-1,0,-1,-1,0,-2,-1
1529563142217931,-1,-2,0,1,-1,1,-1,-2
1529563142217931,0,0,0,1,-1,-2,-1,-1
1529563142232987,-1,-1,-1,-1,1,0,-1,0
1529563142232987,1,1,-1,-1,1,0,1,0
1529563142239936,0,0,0,-1,-1,-3,-2,-1
1529563142239936,-2,-2,0,-2,4,2,1,0
1529563142254931,-1,-3,-2,0,-6,-7,-5,-2
1529563142254931,-1,-1,-1,-3,-2,-1,-1,-1
1529563142262875,-2,-2,-1,3,-1,-1,-1,0
1529563142262875,-2,0,0,-1,-1,-1,-1,-1
1529563142269855,0,0,-2,0,2,2,0,0
1529563142269855,0,1,-1,-2,-1,0,0,-1
1529563142277869,1,-1,0,0,-1,-1,-2,0
1529563142277869,0,-1,0,-1,-2,-1,-1,0
1529563142292795,-1,-1,-1,-1,1,3,1,0
1529563142292795,-1,0,1,-1,-1,-1,-2,-2
1529563142300789,-1,0,0,0,1,1,0,-1
1529563142300789,0,-2,-1,1,0,-2,-1,-1
1529563142315733,0,-1,1,0,-1,1,-2,2
1529563142315733,-1,0,0,0,1,0,-3,1
1529563142322750,0,-1,-3,-1,-2,-1,1,0
1529563142322750,0,0,0,0,-1,-3,2,-2
1529563142330695,1,-2,0,-1,0,-1,-1,-1
1529563142330695,0,-1,-1,-1,-2,0,1,-1
1529563142337675,0,-2,0,0,-2,1,-2,-1
1529563142337675,-1,0,-1,-1,0,1,-1,-1
1529563142352635,-3,0,1,-1,2,-2,-1,-1
1529563142352635,0,-2,-2,0,-1,-1,-3,0
1529563142360653,0,0,0,0,-1,-2,1,0
1529563142360653,1,-1,0,-1,0,-1,-1,-1
1529563142375575,-1,-2,0,-1,-2,-2,0,0
1529563142375575,0,1,0,0,1,0,1,-1
1529563142382620,-1,-2,-2,0,-1,0,-2,-1
1529563142382620,0,-1,-1,-2,-3,-1,-1,-1
1529563142390710,0,0,-1,0,1,0,-2,0
1529563142390710,0,0,-1,0,-1,-1,-1,-1
1529563142397519,-1,-1,-1,-1,1,-1,-1,-1
1529563142397519,-1,0,-1,0,0,1,0,0
1529563142413507,-1,-1,0,0,-1,-1,-3,0
1529563142413507,-1,0,0,1,-1,-2,-1,-1
1529563142427675,-1,0,1,-1,2,0,-1,0
1529563142427675,0,-1,0,-1,0,0,0,-1
1529563142435650,0,0,0,0,-3,0,1,-1
1529563142435650,0,0,-1,-1,0,0,1,-1
1529563142450613,-1,-1,-1,-1,1,1,-2,-2
1529563142450613,-1,-2,0,-2,0,-1,0,0
1529563142473550,-1,-1,-1,-1,0,0,-1,-1
1529563142473550,-2,-1,-2,1,0,-2,-3,-1
1529563142480532,1,-1,-1,-1,0,0,0,1
1529563142480532,-1,1,0,0,-1,-1,-1,-2
1529563142495491,0,-1,0,0,1,-1,0,-1
1529563142495491,1,-1,-2,-1,-1,1,-1,0
1529563142502473,-2,-1,0,0,-1,1,0,0
1529563142502473,0,0,0,0,0,0,0,-1
1529563142518458,-1,-1,-2,-1,-1,0,0,-1
1529563142518458,1,-2,-2,-1,-1,0,-1,-1
1529563142532443,1,1,0,-1,-1,-1,-2,0
1529563142532443,-2,0,-1,-1,0,-1,-1,-1
1529563142548471,0,0,-1,0,-2,-1,-1,-2
1529563142548471,0,1,0,-2,0,0,0,-1
1529563142555576,1,-1,-1,-2,0,-1,0,-2
1529563142555576,-1,-1,-1,1,-1,0,0,-1
1529563142570368,0,-1,-1,-2,1,-2,0,-2
1529563142570368,1,-1,1,-1,-1,1,-3,0
1529563142585331,0,1,-1,0,-2,0,0,0
1529563142585331,0,0,0,0,-3,-1,-2,-2
1529563142593648,-1,-1,-1,0,1,0,-2,-1
1529563142593648,0,-1,0,-1,0,-1,-1,-2
1529563142608077,0,0,0,0,0,0,1,-2
1529563142608077,0,0,-1,-2,-3,-1,-1,0
1529563142615863,0,1,1,0,-2,0,0,-1
1529563142615863,-2,1,-2,-1,0,1,-2,2
1529563142629941,-2,-1,-1,-1,0,-1,1,1
1529563142629941,1,0,0,0,0,0,-1,-1
1529563142646080,1,0,-1,1,-1,-1,-1,-2
1529563142646080,0,-1,-1,0,1,0,-1,0
1529563142653036,0,0,0,1,-2,-1,0,-2
1529563142653036,0,-1,0,-1,-3,-1,0,-1
1529563142667999,-2,0,0,0,-3,-2,-2,0
1529563142667999,0,-1,1,0,0,-2,-2,0
1529563142674980,0,0,-1,-1,-1,-1,-1,0
1529563142674980,1,-1,-1,0,0,0,-1,0
1529563142690130,-1,0,-2,-1,0,-1,-2,-1
1529563142690130,-2,-1,0,0,0,-1,0,-1
1529563142705119,-1,-1,-1,-1,1,1,1,1
1529563142705119,0,-1,1,-1,0,1,-1,-2
1529563142713068,0,-2,0,0,-1,-1,-1,-2
1529563142713068,0,-2,-1,-1,-1,-1,0,1
1529563142728028,-1,-3,-1,1,-1,-1,1,0
1529563142728028,0,0,1,-2,0,-2,0,-1
1529563142735009,0,0,-1,0,0,0,0,1
1529563142735009,-2,0,1,-1,1,-3,-2,-1
1529563142750004,-1,-1,0,-1,-1,0,-1,0
1529563142750004,0,-1,-1,-1,-1,0,0,0
1529563142764962,-1,0,0,0,1,1,-2,-1
1529563142764962,-1,0,-2,0,1,0,0,0
1529563142772940,-2,-1,-2,0,-1,-1,-1,0
1529563142772940,0,-3,1,-1,1,0,-1,-1
1529563142787868,-2,1,0,-2,-1,-1,-1,-2
1529563142787868,-1,-1,0,1,0,-2,-1,-1
1529563142794887,-1,-1,-1,-1,-1,-3,0,-1
1529563142794887,-1,-1,-1,1,-2,0,-1,-1
1529563142810818,-1,-2,-2,-2,1,0,1,1
1529563142810818,-2,0,-1,0,-1,-1,0,1
1529563142825766,0,-1,-1,1,-2,-2,0,-1
1529563142825766,-1,0,-1,-1,-2,-1,-3,0
1529563142832782,0,-1,-1,-1,-1,-1,0,1
1529563142832782,-1,-1,-1,0,0,-1,-1,-2
1529563142847709,-1,-2,0,0,-1,-1,-1,-1
1529563142847709,-2,-1,0,1,1,0,0,-1
1529563142855732,-1,-1,-1,-2,-2,0,-1,-2
1529563142855732,1,-1,-1,-1,-2,-1,0,1
1529563142870693,-1,1,2,1,0,-1,-1,-1
1529563142870693,-1,0,0,-1,0,-2,1,0
1529563142885652,0,1,-1,-2,-1,-1,-1,-2
1529563142885652,-2,-1,-4,1,-1,-1,-1,0
1529563142892634,-1,-1,-2,0,-1,0,-1,0
1529563142892634,-1,-1,1,0,-2,-1,0,-2
1529563142907593,-1,0,1,-2,-1,0,1,1
1529563142907593,-1,0,-1,-1,-1,0,0,-1
1529563142915573,0,0,-1,-1,0,0,-1,0
1529563142915573,-1,1,-2,1,0,1,-1,-2
1529563142930488,0,-1,-2,-4,0,-2,-2,-1
1529563142930488,-1,-2,-1,-1,-2,-1,-1,-1
1529563142945493,0,0,0,2,0,-2,-1,-1
1529563142945493,-2,-1,-4,-8,-3,0,-1,-1
1529563142952466,-1,-1,-2,3,-2,1,-1,-2
1529563142952466,0,-1,4,-2,0,-2,1,0
1529563142967438,1,-2,-5,-5,-3,0,-3,-6
1529563142967438,3,-1,-1,0,0,-1,3,4
1529563142975366,-8,-3,1,-1,0,0,-1,2
1529563142975366,2,-2,-2,-1,-1,0,3,10
1529563142990373,1,-1,-2,-2,1,-1,0,0
1529563142990373,-2,0,-2,0,0,-1,0,0
1529563143005286,-2,-1,1,-2,-1,1,1,1
1529563143005286,-1,-2,-1,1,0,-3,-2,0
1529563143013317,2,-1,1,1,-1,0,-1,0
1529563143013317,1,0,0,0,-1,-2,-4,-4
1529563143028224,0,0,0,-1,0,0,-1,1
1529563143028224,-2,1,-1,1,-1,1,-1,-2
1529563143035205,0,0,1,0,1,-2,0,-1
1529563143035205,1,1,-4,-2,-3,-1,-1,-2
1529563143050165,1,0,-2,-2,-1,0,1,0
1529563143050165,0,-1,-1,-2,-1,0,-1,-1
1529563143065127,-1,-1,-1,-1,-1,-2,1,0
1529563143065127,-1,1,2,3,-2,1,-1,0
1529563143073142,2,-1,-1,-2,-1,1,-2,-1
1529563143073142,-2,-3,-2,-2,0,0,-1,-1
1529563143088231,-1,-2,1,0,1,0,0,0
1529563143088231,0,1,0,-3,-3,-3,-3,-1
1529563143095400,0,1,0,-1,-1,0,-1,-1
1529563143095400,-2,-2,0,-1,-2,0,0,-2
1529563143110362,0,-2,-2,1,-2,-2,-1,-2
1529563143110362,0,1,1,-1,0,0,-1,-2
1529563143125152,1,0,-1,0,0,-2,-1,-1
1529563143125152,0,0,0,-1,0,0,-1,-1
1529563143133133,0,-1,-1,-2,-1,-1,0,-1
1529563143133133,0,-2,-2,1,0,0,-1,0
1529563143147511,0,-3,-3,1,-2,0,0,-2
1529563143147511,0,-2,0,-2,0,0,0,-1
1529563143155644,0,1,0,0,0,0,0,-1
1529563143155644,-2,0,1,-1,-1,1,-1,-1
1529563143170364,1,-1,1,1,0,-1,-1,-1
1529563143170364,-1,-2,-1,0,0,-2,0,-1
1529563143185624,-2,0,-1,-2,0,0,0,-1
1529563143185624,-1,-1,0,-1,-1,0,1,-1
1529563143192706,-2,-2,0,-1,0,-1,0,0
1529563143192706,0,2,-1,-1,-2,0,0,0
1529563143207979,0,0,-1,-1,0,-2,0,1
1529563143207979,1,-2,-1,1,0,-1,0,0
1529563143215953,4,0,1,-1,-2,0,-1,1
1529563143215953,-6,-1,0,-1,1,0,0,1
1529563143230604,-2,-2,-1,0,0,0,-2,-1
1529563143230604,3,1,-1,0,0,-1,1,-1
1529563143245730,0,-1,1,-1,-1,0,-1,1
1529563143245730,-2,-1,-2,-1,-2,1,-2,0
1529563143252711,-2,2,-1,0,-2,1,-1,0
1529563143252711,-1,0,-2,-1,1,0,-1,0
1529563143267685,0,-3,0,-1,1,-2,0,0
1529563143267685,1,0,-2,-1,0,-1,-1,0
1529563143275696,-3,1,-2,-1,-1,-2,0,0
1529563143275696,-2,0,-1,0,-1,0,-1,-1
1529563143291034,0,1,0,-1,0,-1,-1,0
1529563143291034,-1,-1,-2,0,-2,-1,0,-1
1529563143305105,-1,0,-1,0,-2,2,0,0
1529563143305105,0,1,0,-2,0,0,-1,1
1529563143313083,1,-3,-1,-1,1,-1,1,-2
1529563143313083,1,-1,0,0,0,-1,-2,-1
1529563143328057,1,0,-2,-2,-3,-1,-2,0
1529563143328057,-2,0,0,0,1,-2,-2,0
1529563143335907,0,-1,0,-2,0,-2,0,-2
1529563143335907,-1,-2,0,-1,0,-2,-1,-2
1529563143350045,-1,-1,0,1,-2,0,-2,-1
1529563143350045,-1,1,0,-2,-1,0,1,1
1529563143365225,-1,-1,-1,-1,-1,-2,0,1
1529563143365225,0,0,0,-2,-1,0,-1,-2
1529563143373511,-1,-1,-2,0,-1,0,0,-1
1529563143373511,-1,-3,0,-2,0,0,-1,-1
1529563143387403,0,-1,-1,-1,1,-1,0,-1
1529563143387403,-2,-1,0,-1,0,-1,-1,-1
1529563143395870,-2,1,-3,0,0,0,-2,2
1529563143395870,-1,1,0,1,-1,-1,-2,0
1529563143417934,0,-3,0,1,-1,-2,0,-1
1529563143417934,2,0,-1,-1,0,0,-2,0
1529563143432894,-1,-1,-1,1,0,0,-1,0
1529563143432894,0,0,0,1,0,0,0,-2
1529563143439875,-1,1,-2,-3,-2,-1,-1,-1
1529563143439875,0,-3,-1,1,0,0,0,-2
1529563143455833,-1,0,0,-2,0,-1,0,-1
1529563143455833,-1,-1,-1,1,0,-1,-1,-1
1529563143462999,0,-1,-1,-1,1,0,-1,0
1529563143462999,0,-2,-2,-1,0,-2,0,0
1529563143470045,0,-1,-1,1,0,1,1,-2
1529563143470045,-2,-1,0,-2,-2,-1,0,0
1529563143485177,-1,-1,0,0,0,0,-1,0
1529563143485177,0,-1,0,0,-1,-3,-1,1
1529563143493155,1,-1,0,0,-1,0,1,-2
1529563143493155,-1,0,1,-1,-1,-1,1,-1
1529563143508115,0,-1,-2,0,-3,-3,-2,-1
1529563143508115,-1,-1,-1,-1,0,-1,0,-1
1529563143515453,-1,1,0,-1,0,-1,-3,-1
1529563143515453,1,0,-1,-1,-1,-1,-2,-2
1529563143530433,-1,0,-1,-1,0,0,2,0
1529563143530433,0,0,-1,-2,0,-1,1,0
1529563143545360,0,1,-1,1,-1,0,0,0
1529563143545360,0,-2,-3,-1,-1,-1,0,-2
1529563143553349,-1,-1,0,-1,0,-1,0,0
1529563143553349,-1,0,0,-1,0,-1,0,-1
1529563143567310,-2,-1,-2,-1,0,-2,-2,0
1529563143567310,-1,-2,-1,-2,-1,-1,-2,-1
1529563143575290,-2,-1,0,0,0,-2,0,-1
1529563143575290,0,-3,-1,0,0,0,-1,0
1529563143591007,-1,0,-1,-1,-1,-1,-2,-1
1529563143591007,-1,-2,-1,0,-1,0,0,-1
1529563143604972,-2,-1,0,0,0,0,0,-2
1529563143604972,2,-1,-2,-3,-2,0,-2,0
1529563143612955,-1,-1,-1,-1,-1,-1,-2,-1
1529563143612955,-1,0,-2,-2,-1,0,-1,0
1529563143627936,1,-1,0,1,-1,0,0,-1
1529563143627936,-3,0,-2,1,-1,0,1,0
1529563143634895,-1,-1,-1,-1,1,-1,1,1
1529563143634895,-2,0,-1,0,0,-1,-2,0
1529563143658008,1,-2,0,-1,-1,-1,0,-1
1529563143658008,-1,-1,0,-1,0,0,1,0
1529563143672968,-1,-2,1,0,-2,-1,0,-1
1529563143672968,0,0,-2,1,0,0,0,1
1529563143679949,-1,0,-1,-2,0,-1,-2,-1
1529563143679949,0,0,-1,0,-1,-1,-1,-1
1529563143695907,0,-2,0,-2,0,1,-1,-1
1529563143695907,-2,0,-1,0,-1,-1,0,-2
1529563143702889,0,-1,0,0,0,-1,0,1
1529563143702889,1,-2,-2,-1,-1,-2,0,0
1529563143711023,-1,1,-2,-1,0,-1,-1,0
1529563143711023,-1,-3,-1,0,-1,-1,-1,-1
1529563143717846,0,0,2,-3,-1,0,-1,0
1529563143717846,0,0,-1,-1,-1,1,0,-1
1529563143732809,-1,-1,-1,0,-2,0,-2,-1
1529563143732809,-1,0,1,-2,-2,-1,0,2
1529563143747766,-1,0,-1,-3,0,-1,0,0
1529563143747766,-1,-2,1,-1,0,0,-1,1
1529563143755744,0,-2,-1,1,0,-2,1,-2
1529563143755744,-1,-1,0,-1,-1,0,0,-1
1529563143769841,0,0,0,1,0,-1,-1,-1
1529563143769841,0,-1,-1,-2,-2,0,0,-3
1529563143777850,-1,-1,0,-1,0,1,-1,0
1529563143777850,-1,-1,-1,-1,0,-2,-1,0
1529563143792780,0,1,-2,0,-2,1,1,0
1529563143792780,-2,-1,-2,-2,0,-2,-3,-1
1529563143807740,0,0,-1,-2,-2,0,2,0
1529563143807740,-1,-1,-1,0,-1,-1,1,1
1529563143815719,0,0,-2,-2,1,-2,-1,-2
1529563143815719,0,0,0,-1,-1,-2,1,0
1529563143830679,0,-1,0,0,1,0,-2,-3
1529563143830679,0,1,0,0,-2,0,0,1
1529563143837660,-2,-1,-1,0,0,0,-1,-1
1529563143837660,0,-1,-1,-1,0,-1,-1,1
1529563143852767,-1,-3,-1,0,-2,-1,-1,1
1529563143852767,-1,1,1,-1,0,-1,1,0
1529563143867964,0,-1,-1,-1,-3,-1,-1,0
1529563143867964,-1,-1,1,0,1,-1,-2,-1
1529563143875865,-1,0,-2,0,-1,0,0,-1
1529563143875865,1,-1,-3,-2,0,3,0,-1
1529563143890725,-1,-2,-3,-1,0,0,-2,-1
1529563143890725,0,-1,0,-1,-1,0,-2,-1
1529563143897705,0,0,-1,-1,-1,1,-1,0
1529563143897705,0,-1,-1,0,-1,1,-1,0
1529563143913003,-1,-1,-1,-1,1,-2,0,-1
1529563143913003,-2,-1,-1,0,0,1,0,-1
1529563143928542,-2,-2,-1,-1,1,-2,-1,-1
1529563143928542,0,-2,-1,1,-2,0,-1,0
1529563143935706,0,1,0,-1,0,-2,1,0
1529563143935706,0,-1,-2,1,-1,-1,0,-1
1529563143950489,-2,-2,0,0,0,-1,-1,-1
1529563143950489,-1,-1,0,0,-1,1,-1,-1
1529563143957470,1,0,0,-2,-1,1,-1,1
1529563143957470,2,-1,-1,-1,0,-1,-1,-1
1529563143972612,1,-1,0,-1,-1,1,0,0
1529563143972612,-1,-3,0,-1,-2,0,0,-1
1529563143987736,-1,-1,-1,-1,-1,1,0,-1
1529563143987736,-1,2,0,1,0,-1,-1,-2
1529563143995550,-1,-1,-1,-1,0,0,0,-1
1529563143995550,0,-2,-1,-1,-2,-1,0,0
1529563144010674,0,-1,0,0,0,0,0,0
1529563144010674,0,-2,0,0,-2,-1,0,-1
1529563144017834,-2,-1,0,0,-3,0,0,-1
1529563144017834,-1,1,-1,0,0,0,0,-1
1529563144032715,-1,-3,0,0,2,1,0,-1
1529563144032715,-1,-1,-2,-3,1,1,-1,-1
1529563144047626,0,1,-1,-1,-2,-1,-1,0
1529563144047626,0,0,-2,-1,0,-2,0,-1
1529563144055607,-1,0,0,-1,-1,0,0,0
1529563144055607,-2,0,-1,0,-2,-2,0,-2
1529563144070622,0,0,-1,1,0,-2,-1,0
1529563144070622,-1,-1,0,-1,-1,1,0,0
1529563144078542,-1,-1,0,1,-1,0,-1,1
1529563144078542,0,-2,0,-1,-1,1,-1,-1
1529563144092506,-2,0,0,-1,1,1,-1,0
1529563144092506,0,-1,0,1,0,-1,-1,0
1529563144107468,0,-2,0,0,-2,-2,1,0
1529563144107468,0,-1,0,0,0,-2,0,1
1529563144115448,0,0,0,0,-1,-2,0,0
1529563144115448,-1,-1,-1,0,-1,0,-2,0
1529563144130490,1,0,-3,0,-1,0,0,1
1529563144130490,-2,0,0,-2,-1,-1,-1,-1
1529563144138460,-1,-1,0,0,0,-2,-2,-2
1529563144138460,0,0,1,-1,0,-2,0,0
1529563144152619,-2,-2,0,-1,-1,-1,-1,-2
1529563144152619,-2,0,-2,0,0,0,-1,1
1529563144167743,0,0,-1,0,0,1,0,0
1529563144167743,1,0,0,-1,-2,-2,-1,-1
1529563144175554,-1,-1,-1,0,-1,-2,-1,-2
1529563144175554,0,0,-1,1,-1,0,-1,0
1529563144190615,-2,0,0,0,-1,-1,-2,-1
1529563144190615,0,-1,-1,-2,0,1,0,0
1529563144197571,-2,0,-2,-2,-1,0,0,1
1529563144197571,-1,-1,-1,-3,-1,0,1,-1
1529563144212530,-1,1,-1,-1,-1,-1,1,0
1529563144212530,0,-1,-1,0,0,-1,0,1
1529563144228198,0,0,0,-2,-1,-1,-1,-2
1529563144228198,0,-1,0,0,0,0,-1,0
1529563144236018,0,-2,-1,1,-1,-1,-2,1
1529563144236018,1,-2,1,0,0,-1,-1,-1
1529563144250989,-1,3,-1,0,-2,-1,0,-1
