timestamp,emg1,emg2,emg3,emg4,emg5,emg6,emg7,emg8
1528282074417855,-2,-2,-1,0,0,1,-1,-1
1528282074417855,-2,-2,0,-2,0,-3,-4,-1
1528282074418858,1,-1,-1,-1,-2,0,0,-1
1528282074418858,2,-2,-1,0,0,-1,0,1
1528282074419860,1,2,-2,0,0,0,0,-1
1528282074419860,-3,0,-1,0,-2,-1,-1,-1
1528282074423839,-2,-1,1,0,-1,0,-3,0
1528282074423839,-2,-2,1,-1,0,2,-2,-3
1528282074429842,-2,-1,1,0,-1,1,-2,0
1528282074429842,0,-1,1,0,-1,0,0,0
1528282074439796,0,1,1,0,-1,-2,3,2
1528282074439796,-1,-1,1,-1,-1,-2,-2,-2
1528282074446777,0,-2,-1,-1,-1,-2,0,0
1528282074446777,1,0,0,0,0,0,0,0
1528282074459743,0,-1,-2,0,0,0,0,-1
1528282074459743,-1,-2,-1,1,0,-2,0,0
1528282074471712,0,-3,-1,-1,-1,-2,-2,-1
1528282074471712,-2,-1,-1,1,-1,-2,-2,0
1528282074474704,0,0,-1,-1,0,0,-1,-1
1528282074474704,0,3,-1,-3,-2,0,-1,-3
1528282074489674,-1,1,0,-2,-1,0,0,-2
1528282074489674,1,-1,-1,-1,-1,-1,0,-2
1528282074536538,-1,-2,-2,0,-1,-1,-1,-3
1528282074536538,-2,-1,-2,0,0,0,0,-2
1528282074537534,-1,-1,0,0,-1,1,-1,-2
1528282074537534,0,-1,0,0,-2,-2,-1,1
1528282074537534,-1,-1,1,-1,-2,0,-3,0
1528282074537534,-2,1,0,0,-1,-2,0,1
1528282074539529,-1,1,-1,1,0,-2,-1,1
1528282074539529,-1,0,0,-1,1,-1,0,-2
1528282074549503,0,1,-2,0,1,0,1,0
1528282074549503,-1,-2,0,-2,1,0,-1,-1
1528282074556489,-1,-1,-2,-2,-1,0,1,-1
1528282074556489,-2,0,-2,-1,-1,-1,-1,-1
1528282074565462,0,-1,0,0,-1,1,0,-2
1528282074565462,0,0,0,-1,-1,2,-1,-1
1528282074579423,3,-2,-1,-1,-1,0,-1,-2
1528282074579423,2,-2,0,0,-1,-2,-2,-1
1528282074588399,-1,-1,-2,-2,0,-3,-1,0
1528282074588399,-2,-2,1,0,0,-2,-2,0
1528282074594384,-1,-1,-2,-1,-1,-1,-2,-1
1528282074594384,-2,-1,-1,-1,-2,1,-3,-1
1528282074610353,0,-2,-2,0,-1,1,1,0
1528282074610353,-1,0,-1,-2,-1,0,-1,-2
1528282074616324,0,-1,-2,-2,0,-1,0,-2
1528282074616324,-2,-1,0,-2,1,-1,0,-2
1528282074625300,0,1,-1,-1,-1,-2,-3,-2
1528282074625300,-1,-1,0,0,-2,-3,0,1
1528282074639263,-1,-3,0,1,1,-2,0,2
1528282074639263,0,-1,-1,-1,0,-2,-1,2
1528282074648239,-2,0,0,-1,0,0,1,0
1528282074648239,0,1,-1,-1,-1,1,-1,0
1528282074655220,-2,1,-1,0,1,0,0,0
1528282074655220,2,-1,-1,-1,-2,-1,0,-4
1528282074669183,-1,-2,1,0,-1,0,-1,-3
1528282074669183,0,0,-1,0,-2,1,1,-2
1528282074677162,0,2,0,-2,-2,1,-3,0
1528282074677162,-2,1,1,0,0,-1,0,1
1528282074686138,0,1,-2,0,1,-2,-1,-2
1528282074686138,0,-4,0,-1,0,-2,-1,1
1528282074699103,-2,-2,0,0,0,0,0,0
1528282074699103,-2,0,-2,-1,-2,0,-1,-2
1528282074708079,1,1,-1,0,-2,-2,-1,-1
1528282074708079,-1,1,-1,1,0,-1,-1,-1
1528282074714063,-1,1,0,0,0,-2,-1,-1
1528282074714063,-2,0,0,0,-1,-2,0,-1
1528282074729050,-1,-2,-2,0,-1,-1,1,0
1528282074729050,-1,0,1,-1,-1,0,-2,-1
1528282074737002,0,-1,0,-3,0,1,0,-1
1528282074737002,0,0,0,-1,0,3,-1,0
1528282074745986,-1,0,1,-2,1,1,-1,-1
1528282074745986,-1,-1,-2,-1,0,-1,-2,-2
1528282074758943,-2,-3,0,-1,1,-4,-3,-1
1528282074758943,-3,0,-2,0,0,-1,-2,0
1528282074767919,-2,1,-2,-2,0,-2,-1,0
1528282074767919,0,2,-1,0,-2,-1,-1,-1
1528282074773904,1,-1,-1,-1,-2,1,-1,-1
1528282074773904,0,-3,-1,-1,0,0,1,-1
1528282074788863,-2,0,0,0,-2,1,0,1
1528282074788863,0,1,-2,-1,0,-1,-1,-1
1528282074796882,-2,0,0,0,-2,-1,-2,0
1528282074796882,-1,0,1,-1,-2,1,-2,0
1528282074805818,-3,0,0,-1,0,1,-3,0
1528282074805818,-1,-2,-1,-2,1,0,0,-1
1528282074818784,2,0,-1,1,-1,1,0,0
1528282074818784,1,0,-3,-1,0,0,0,-1
1528282074827759,-1,-2,-2,-3,-1,-2,-1,-2
1528282074827759,0,-1,-1,-1,-1,-4,0,0
1528282074833743,-3,0,0,0,0,-1,1,-2
1528282074833743,-2,0,1,1,1,-2,-1,0
1528282074848703,-1,-1,0,0,0,-1,-1,2
1528282074848703,1,0,-1,-1,-1,-1,-1,1
1528282074856681,-1,-2,-1,0,0,1,1,1
1528282074856681,-1,-1,-1,-1,-1,2,1,-3
1528282074865658,0,-2,0,-2,-1,-1,1,-4
1528282074865658,-1,0,-2,0,0,-1,0,-2
1528282074879620,-1,1,0,0,-1,-1,0,-2
1528282074879620,1,-1,-2,-2,1,0,-1,-1
1528282074888644,-2,0,0,-1,-2,2,-2,0
1528282074888644,-3,-1,-3,0,-3,0,-2,-2
1528282074894627,0,-1,1,0,-2,-1,-2,0
1528282074894627,0,0,-1,0,-1,-1,0,0
1528282074909541,0,-3,-1,0,-1,-2,0,-1
1528282074909541,1,-1,-1,-2,0,-2,0,-1
1528282074916559,0,-1,-2,0,0,-2,-1,0
1528282074916559,0,-3,0,-1,-1,-1,-2,3
1528282074933477,-1,-1,0,-1,-1,-2,0,-1
1528282074933477,-2,-1,-1,0,-2,1,-1,-1
1528282074939502,1,-2,-1,-2,-2,0,0,-3
1528282074939502,0,-1,-1,-1,0,-1,1,1
1528282074948467,0,-1,-1,0,0,-2,0,1
1528282074948467,0,-1,0,-1,0,0,1,1
1528282074954447,0,-1,0,0,-1,0,1,0
1528282074954447,-2,-2,0,0,1,-2,-1,-1
1528282074969426,0,1,1,-2,1,-1,0,0
1528282074969426,0,0,1,-1,1,-1,0,-1
1528282074976364,-1,2,1,0,-1,-2,-1,-2
1528282074976364,0,-2,-1,-2,-2,-1,-2,-2
1528282074985338,-1,-3,-2,1,-1,0,0,0
1528282074985338,1,0,0,-1,1,-1,-1,-2
1528282074999348,-2,-3,-3,-1,0,-2,-1,0
1528282074999348,-1,0,-2,1,-1,-1,-2,-1
1528282075008279,2,0,-2,0,0,-2,-1,0
1528282075008279,0,-2,1,-1,-1,1,-1,0
1528282075014263,1,1,0,-2,0,-1,0,-2
1528282075014263,0,1,-2,0,2,-1,-1,-2
1528282075029221,-1,-1,1,0,-2,0,-2,-1
1528282075029221,-1,-2,-1,-1,-3,-1,0,0
1528282075036219,-1,0,0,-2,-1,-1,-3,0
1528282075036219,-2,-2,1,-1,1,-1,1,-1
1528282075045177,-2,-1,-1,-1,1,-1,-2,0
1528282075045177,-1,1,-1,1,1,-3,0,-2
1528282075059143,-1,-1,-1,0,-1,-2,-3,0
1528282075059143,0,1,1,-1,-2,-1,-1,0
1528282075068116,1,-1,-1,-1,-1,-1,0,-1
1528282075068116,0,-2,-1,-1,-1,1,1,0
1528282075082080,-1,-1,-1,1,-1,-1,0,-1
1528282075082080,0,-1,0,-2,1,-1,0,-1
1528282075089117,0,0,-2,0,0,1,0,-1
1528282075089117,-1,-2,0,1,-1,0,-2,0
1528282075097041,-2,1,1,-1,1,-1,1,-3
1528282075097041,2,-1,0,0,-1,-1,-1,0
1528282075106016,1,1,-1,-1,-1,-1,1,-1
1528282075106016,0,-1,-1,-1,-1,0,0,-1
1528282075118981,-5,0,-2,0,-1,0,0,1
1528282075118981,0,-1,-1,1,-1,0,-1,-1
1528282075127956,0,0,1,0,0,0,0,0
1528282075127956,0,0,-1,1,1,-1,-3,0
1528282075141919,0,-1,0,-1,-2,0,1,-1
1528282075141919,-1,-1,-2,-1,-3,-1,-1,-1
1528282075156880,-1,-1,-1,0,-1,-2,0,-2
1528282075156880,-1,0,-1,-1,-1,-1,-1,0
1528282075157876,0,-1,1,-3,-1,1,1,0
1528282075157876,0,-2,0,-1,0,-1,-1,-2
1528282075165855,-1,1,-1,0,-1,0,-1,0
1528282075165855,1,0,0,0,0,-1,-1,-1
1528282075178850,-1,1,0,0,0,-3,-2,0
1528282075178850,0,1,-2,-1,1,-2,1,0
1528282075187853,-1,-2,0,-2,0,0,0,-1
1528282075187853,-1,-2,0,0,-1,-3,-1,0
1528282075211044,1,0,-1,-1,-1,-2,0,-1
1528282075211044,0,0,-1,-2,-1,-2,-1,1
1528282075212112,-2,-1,0,0,2,1,-1,-1
1528282075212112,0,0,1,0,0,-1,0,-2
1528282075217277,-1,0,-1,2,-1,-1,1,-2
1528282075217277,-2,-3,-1,0,-1,-1,-3,-1
1528282075226006,0,1,0,-3,-2,-1,-1,-2
1528282075226006,0,0,0,0,0,0,-1,-2
1528282075238972,1,-1,-2,0,-1,0,1,-1
1528282075238972,0,0,-1,-1,-1,-2,1,0
1528282075247947,-1,-1,0,-1,0,-1,-1,-1
1528282075247947,0,-2,0,-2,-1,-2,-1,-1
1528282075261993,0,-2,-1,-2,-2,-1,-2,0
1528282075261993,-1,1,-1,-2,-1,1,0,-1
1528282075268942,-2,1,-1,-1,0,-3,-2,-1
1528282075268942,0,1,-3,-2,0,0,-1,0
1528282075276939,-2,0,-1,0,0,0,0,1
1528282075276939,0,-2,1,-1,-2,1,0,-1
1528282075285910,-1,-1,-2,-2,-3,-3,-1,-1
1528282075285910,-2,1,0,-2,-2,0,1,-1
1528282075299196,0,-1,1,1,-1,-2,-2,-1
1528282075299196,0,0,-1,-1,1,-1,0,0
1528282075308180,-2,-2,-1,-1,0,-2,0,2
1528282075308180,1,-2,-1,0,-1,-1,-1,-1
1528282075322616,-1,-2,-1,-2,0,2,-3,-2
1528282075322616,-2,1,1,-1,0,0,0,-2
1528282075329906,1,-2,-1,0,-1,1,0,-2
1528282075329906,1,0,-1,0,-1,1,0,0
1528282075336543,0,-1,-1,-1,-2,-1,-1,-1
1528282075336543,0,-2,-3,-2,0,-1,-2,-2
1528282075346538,-2,1,-1,0,-1,-1,-2,1
1528282075346538,-2,0,-2,-1,-1,-1,-1,-1
1528282075359823,1,1,-1,-2,-1,-1,-1,0
1528282075359823,-2,-2,0,0,-2,0,0,-2
1528282075368458,-1,-1,1,-1,0,0,-1,-2
1528282075368458,-1,-1,0,-1,-1,0,0,-1
1528282075382419,0,1,-1,0,0,2,-2,1
1528282075382419,1,-1,-1,2,-1,-1,0,1
1528282075389403,0,-3,0,0,0,-1,-1,0
1528282075389403,0,-3,-2,-1,-1,-1,-1,-2
1528282075396381,-2,-1,-1,-2,1,0,-1,0
1528282075396381,-1,-1,1,-2,-1,-1,-1,0
1528282075405359,-1,0,0,-1,-1,-2,-1,1
1528282075405359,0,2,1,-1,0,-1,0,-2
1528282075419322,1,0,0,0,-1,2,1,-2
1528282075419322,-1,2,-2,-1,0,1,0,-1
1528282075428297,-1,-2,-1,-1,0,0,-1,-1
1528282075428297,-1,-3,0,0,0,-2,1,1
1528282075442301,-1,1,-2,-1,0,-2,0,-3
1528282075442301,1,0,0,0,-2,-1,0,-1
1528282075449243,0,-1,-1,-1,2,1,-2,0
1528282075449243,-2,-1,-2,0,-1,-1,1,0
1528282075457311,-1,-1,-2,-1,0,-1,-1,0
1528282075457311,-2,-1,-1,0,0,0,0,0
1528282075472185,1,1,0,0,-2,-1,2,-1
1528282075472185,-1,0,-1,-2,0,-2,-1,0
1528282075488136,0,-1,-1,-2,0,-2,0,1
1528282075488136,-1,-1,-2,-2,0,-2,-3,0
1528282075490432,-1,-1,-1,-1,-2,1,0,0
1528282075490432,0,-1,1,-1,0,1,-2,-1
1528282075502119,0,-1,0,-1,-2,-1,1,1
1528282075502119,0,0,1,0,-2,1,0,-1
1528282075509342,-1,1,-1,-1,-1,-2,0,0
1528282075509342,0,-1,-1,-2,-2,-1,-2,-1
1528282075525761,-1,0,0,-1,1,0,-1,-1
1528282075525761,-1,-1,0,1,-2,0,1,-1
1528282075532494,1,0,0,-2,0,-1,-1,0
1528282075532494,-1,-1,0,-1,0,-1,-3,0
1528282075539855,0,0,-2,-1,0,-1,-1,1
1528282075539855,0,0,-1,-1,-2,-4,-1,1
1528282075548533,-1,1,-4,-1,0,0,1,0
1528282075548533,0,-1,1,0,-1,1,0,-1
1528282075562848,0,-1,-1,0,0,-2,-3,-2
1528282075562848,0,0,1,0,1,0,-2,-1
1528282075569518,-2,-1,-1,1,-2,-2,-1,-2
1528282075569518,-1,1,-2,0,0,1,0,0
1528282075584746,0,-1,0,-1,0,-1,-1,-2
1528282075584746,-3,-1,0,-1,1,-1,0,0
1528282075592462,-1,0,0,0,0,0,-1,-2
1528282075592462,0,-2,-2,-1,1,1,0,-1
1528282075608418,-1,-2,1,1,-3,0,0,0
1528282075608418,0,0,-1,0,0,-1,-2,0
1528282075609577,-2,-1,0,0,-1,-1,-2,0
1528282075609577,-1,1,-2,0,1,-2,1,0
1528282075622622,-2,-1,-2,-2,-2,-2,0,-1
1528282075622622,0,-1,-1,-1,-2,-1,-3,-1
1528282075636945,1,1,-1,0,1,1,-1,-1
1528282075636945,2,0,0,1,-1,1,0,-1
1528282075645189,0,0,-1,-1,0,-2,1,0
1528282075645189,0,1,-2,-1,-1,-1,0,0
1528282075651907,1,-2,-1,-1,-2,-1,-1,-1
1528282075651907,-2,-1,-1,0,0,-1,0,0
1528282075668122,-2,-1,0,-2,0,0,-1,0
1528282075668122,-1,-1,0,1,0,-1,-1,-1
1528282075669860,0,0,-2,-1,-1,1,0,-1
1528282075669860,-2,-1,-1,-1,-1,-1,0,-1
1528282075682924,-1,-1,-1,1,0,-1,-1,0
1528282075682924,-2,-1,-1,-2,-1,-1,1,-1
1528282075690810,-1,-1,-2,-1,-4,-3,-1,-1
1528282075690810,-2,0,-1,-1,-1,-3,-3,-2
1528282075705071,-1,1,0,-1,-2,2,-1,-1
1528282075705071,-1,0,-2,-1,-1,0,-1,-1
1528282075712053,0,-1,-1,-2,1,0,0,0
1528282075712053,0,-2,0,-1,0,-3,-2,1
1528282075728768,1,0,-1,-1,0,-3,-3,-1
1528282075728768,0,-1,-2,-1,0,-1,-2,-1
1528282075730502,0,-1,-1,0,0,-3,-2,-1
1528282075730502,1,0,-2,0,-2,0,1,-2
1528282075742421,-1,-2,0,0,-1,2,0,-1
1528282075742421,-1,-1,1,1,-1,0,0,0
1528282075749623,0,-1,0,0,1,1,-1,0
1528282075749623,-1,0,0,-1,0,1,-1,1
1528282075765537,0,-1,0,-1,-1,0,-1,0
1528282075765537,0,-2,-1,0,-1,0,1,0
1528282075772374,0,0,1,0,0,0,-1,-1
1528282075772374,-2,-1,-1,-2,-2,-1,0,-1
1528282075788701,0,0,-2,-2,-1,-1,-1,-1
1528282075788701,-1,-2,-2,-1,2,-1,0,-1
1528282075789639,0,-2,-1,-1,0,-2,-1,0
1528282075789639,0,-1,-1,-1,-1,-3,-2,-1
1528282075802543,-1,-1,-2,0,-1,-1,-1,0
1528282075802543,0,-1,1,-3,1,0,0,0
1528282075809787,-2,1,1,-2,-1,0,-1,1
1528282075809787,0,0,0,-1,-1,-1,-1,-1
1528282075825656,-1,-1,-1,0,0,-1,0,1
1528282075825656,1,-1,-2,0,-1,1,-3,0
1528282075831466,-1,0,-1,-1,-1,1,1,0
1528282075831466,-2,-2,-1,-1,-1,-1,-1,-1
1528282075848795,0,0,0,-1,0,-1,-1,-2
1528282075848795,-1,0,0,-1,-1,-1,0,-1
1528282075849709,-2,-1,0,-1,-1,0,-1,-1
1528282075849709,1,0,-1,-1,-2,-1,0,-1
1528282075862920,-1,-1,-1,0,-1,0,0,-1
1528282075862920,0,-1,-1,0,1,0,-1,-1
1528282075869902,-1,0,-1,-1,0,0,-1,0
1528282075869902,0,1,0,2,1,-2,0,-1
1528282075884767,-1,-1,-2,-1,0,0,-1,0
1528282075884767,-1,-1,0,0,-1,0,0,0
1528282075891596,1,-2,0,-1,-1,-2,1,-1
1528282075891596,-1,-1,-1,-1,0,0,1,-1
1528282075907572,0,-1,0,0,0,-1,0,-2
1528282075907572,-1,-2,-1,-1,-1,-1,-1,0
1528282075909548,1,-2,-2,-1,-1,-1,-2,-1
1528282075909548,-1,-1,-2,-2,0,1,-1,-2
1528282075922897,0,-2,0,-2,1,2,0,-1
1528282075922897,-2,0,0,-1,0,-1,1,0
1528282075929816,-2,0,0,1,-1,-1,0,-1
1528282075929816,-1,1,0,0,-1,0,0,-1
1528282075945253,-1,-1,-1,0,-2,-3,-2,-1
1528282075945253,-2,-2,1,0,0,0,-2,-2
1528282075951899,-1,-2,-2,0,0,-1,-1,-1
1528282075951899,-2,-1,0,0,-1,0,-1,0
1528282075968200,-1,0,0,-1,0,-3,0,-1
1528282075968200,1,-2,0,-1,-2,0,-1,2
1528282075969915,-1,-1,-2,-2,0,0,-2,0
1528282075969915,-1,-1,-2,0,0,1,-2,0
1528282075983228,0,-2,-1,-1,0,0,-1,-1
1528282075983228,2,2,-1,0,-2,-4,0,-1
1528282075989857,-1,1,-1,0,-1,1,1,-2
1528282075989857,1,-1,0,-1,0,-1,0,0
1528282076004856,-2,-1,0,0,-1,1,-1,1
1528282076004856,0,0,-1,-1,-1,0,-2,1
1528282076012834,0,-1,0,0,0,-1,0,-2
1528282076012834,-2,0,1,-2,-1,0,0,-1
1528282076027795,0,-1,1,0,-1,0,-2,-2
1528282076027795,0,-2,0,-1,0,2,-2,0
1528282076029790,0,-3,0,0,-2,-1,1,0
1528282076029790,-1,0,-2,0,-1,-2,-2,0
1528282076042755,-1,0,0,-1,0,-2,-2,-1
1528282076042755,-1,3,-2,0,0,-3,1,-2
1528282076048776,-1,0,-1,0,-1,-1,1,0
1528282076048776,1,-1,0,0,1,-1,0,-2
1528282076064752,0,-1,-1,0,-1,1,0,1
1528282076064752,-1,-2,-1,-2,-2,0,0,-1
1528282076071731,-1,-1,-1,-1,1,-1,-1,0
1528282076071731,-1,-2,0,0,-1,-1,0,2
1528282076087686,-1,-1,-1,0,1,-1,-1,1
1528282076087686,0,-2,0,-1,-2,0,1,-1
1528282076089645,1,-1,-2,0,-3,-2,-1,-2
1528282076089645,0,-2,-2,-2,-1,0,1,0
1528282076101634,-1,0,-2,0,0,-1,0,-1
1528282076101634,-1,-1,-1,0,1,-1,-2,0
1528282076116611,-1,0,0,-1,0,-1,0,1
1528282076116611,-1,-1,-1,-1,-2,-1,0,0
1528282076124590,0,0,-1,-2,-1,0,1,-2
1528282076124590,-1,-1,0,1,-1,-1,0,0
1528282076131577,-1,-1,-1,0,1,-2,-1,0
1528282076131577,-1,-1,-1,-1,0,-2,0,-3
1528282076148525,0,-2,1,-1,-1,-1,1,0
1528282076148525,-1,-1,-1,-1,-1,0,-1,-1
1528282076149469,-1,1,0,0,0,-1,-1,0
1528282076149469,-1,-1,0,-2,-3,-2,0,0
1528282076161491,-1,0,-1,0,0,-1,-1,-2
1528282076161491,0,0,-1,1,-1,-1,-3,0
1528282076170452,0,0,0,-1,-2,-1,-3,1
1528282076170452,-3,-1,-1,-1,1,1,-1,0
1528282076193398,0,-3,-2,-1,-1,-2,0,-1
1528282076193398,-1,-1,-2,-2,0,-1,0,0
1528282076194392,0,1,-2,1,0,-1,-1,-1
1528282076194392,-2,1,0,-2,0,-2,-2,0
1528282076208357,-1,0,-1,-1,-1,-1,0,2
1528282076208357,-1,-1,-1,0,0,-2,1,0
1528282076209363,1,-2,1,-1,-2,0,1,-2
1528282076209363,1,-2,0,-1,-1,0,-2,-3
1528282076221278,0,-2,0,0,1,1,-2,-1
1528282076221278,-1,-1,0,-1,-2,0,-1,-1
1528282076230307,-1,-1,-2,-1,0,1,-2,-1
1528282076230307,0,-1,0,1,0,0,0,-1
1528282076245265,-1,0,-2,-1,1,-1,-1,0
1528282076245265,0,-1,0,-1,-1,1,-1,-1
1528282076251227,-1,1,0,0,-1,-1,1,-2
1528282076251227,-2,1,-1,0,0,-2,-1,0
1528282076268155,-1,1,-1,0,-1,-1,-1,0
1528282076268155,1,0,-1,0,-1,-3,1,-2
1528282076270172,0,-2,1,-2,1,-1,0,-1
1528282076270172,0,-1,1,-2,-1,0,-1,-1
1528282076282167,-1,0,1,0,-1,-1,0,0
1528282076282167,-1,0,0,0,0,-1,-2,-1
1528282076291148,-1,-1,-1,-1,-1,0,-2,-1
1528282076291148,-1,-2,-1,-1,0,0,-2,0
1528282076305064,1,1,-2,0,-1,1,-1,-1
1528282076305064,-1,1,-1,0,-1,2,-2,0
1528282076312060,-2,-2,0,1,0,1,-2,-1
1528282076312060,-1,-1,-1,1,0,0,-1,-1
1528282076327991,-1,-2,-1,-1,0,-2,1,-1
1528282076327991,0,-1,0,0,1,1,0,-1
1528282076329992,-1,-1,0,-1,-1,0,-2,-1
1528282076329992,2,0,-1,-2,-2,0,1,-1
1528282076342237,0,1,0,0,0,0,-1,-1
1528282076342237,0,0,1,-2,-1,-1,-2,1
1528282076350975,0,0,-1,0,0,0,0,-1
1528282076350975,-1,0,0,-1,-2,0,-1,0
1528282076364941,-2,-1,0,-1,-1,-1,1,0
1528282076364941,-1,-2,-2,0,1,-1,1,0
1528282076371922,1,-1,-3,-1,1,-1,0,1
1528282076371922,0,-1,-1,0,-2,-1,0,0
1528282076396109,-1,1,-1,0,-1,-1,-2,-1
1528282076396109,-1,-1,-1,-1,-2,-1,-1,1
1528282076396878,-2,0,1,-2,-1,-2,-1,-2
1528282076396878,0,0,-2,0,0,-3,-1,-1
1528282076401847,-1,-2,-1,-1,-3,-1,0,-2
1528282076401847,-2,-1,-2,-1,-1,0,2,-1
1528282076410840,0,0,0,1,-1,-2,2,0
1528282076410840,0,0,0,-1,0,-1,-1,0
1528282076425277,0,-3,-1,0,1,-1,0,-1
1528282076425277,-2,-1,0,-1,-1,0,-2,1
1528282076432444,-2,0,-1,0,-1,0,1,-1
1528282076432444,-2,-1,0,-1,0,0,0,-1
1528282076447215,2,1,-1,-2,-1,-1,-3,0
1528282076447215,-1,-2,-1,0,-1,-2,-3,-2
1528282076454445,-1,-2,-1,-1,0,0,-1,0
1528282076454445,-2,-1,-2,0,-1,-2,0,-2
1528282076462179,-2,-3,0,-2,-1,1,0,0
1528282076462179,0,1,1,0,1,0,0,0
1528282076471448,-1,-2,-2,-1,-1,0,-1,0
1528282076471448,-1,-1,0,1,0,1,-1,-2
1528282076485115,-1,0,0,0,0,0,-1,-1
1528282076485115,0,0,-2,0,-1,-1,-1,0
1528282076492131,-1,0,-2,1,-1,-1,-1,-1
1528282076492131,0,0,-1,-1,-1,-1,-2,0
1528282076507563,-3,-2,-1,0,0,-2,0,1
1528282076507563,-1,0,1,-2,-1,0,-1,-1
1528282076514541,1,-1,0,0,-1,0,0,0
1528282076514541,0,-1,-1,-2,0,1,0,0
1528282076521762,-1,1,0,0,0,-2,0,-2
1528282076521762,0,0,-1,-1,-2,-2,0,-2
1528282076530499,0,0,0,-1,0,-2,0,-1
1528282076530499,-1,1,-2,-2,0,0,-2,-1
1528282076545017,1,0,-1,-3,-1,-1,-2,1
1528282076545017,-1,-1,-3,0,0,0,0,-1
1528282076551739,-2,0,0,-1,0,-1,-1,0
1528282076551739,-1,0,0,-1,-2,2,-1,0
1528282076567994,0,-1,1,0,0,0,2,-2
1528282076567994,0,0,0,-2,0,-2,0,1
1528282076574130,0,0,-1,-2,-1,0,-1,-2
1528282076574130,-1,1,-1,-1,0,-2,0,1
1528282076597807,0,0,-2,0,0,-3,-2,-1
1528282076597807,-1,-2,-1,-1,-1,1,0,0
1528282076599807,0,-1,-1,1,0,1,0,-1
1528282076599807,0,0,-1,-1,-1,-1,0,-1
1528282076604787,0,1,0,0,-1,-1,-1,0
1528282076604787,-2,0,-1,-2,1,-1,-1,0
1528282076618749,-1,1,0,-2,-2,-2,-1,-1
1528282076618749,-2,-2,0,0,1,0,0,-1
1528282076627821,-1,-1,0,0,0,0,0,0
1528282076627821,0,-1,-3,0,0,0,-2,1
1528282076633783,-2,-2,-1,-1,1,0,-2,0
1528282076633783,-1,0,-1,0,-1,-1,1,0
1528282076650738,-1,0,-2,-1,-1,-1,0,0
1528282076650738,-1,-1,1,0,-2,1,0,-1
1528282076651735,1,0,-1,-2,-2,-2,0,-1
1528282076651735,1,-1,2,-3,0,0,0,-1
1528282076665697,0,0,-1,0,0,1,-3,-1
1528282076665697,-1,-1,-1,0,-2,0,-1,0
1528282076671685,1,-1,0,-2,0,-2,-1,-2
1528282076671685,-1,-1,-3,-1,1,0,0,1
1528282076687642,0,-1,-3,-2,-2,-1,1,-1
1528282076687642,1,0,2,-1,-1,-2,-2,0
1528282076694623,0,-2,-1,0,-1,0,0,-1
1528282076694623,-2,0,0,1,0,-2,0,0
1528282076710581,0,0,-1,0,-1,0,-2,0
1528282076710581,-1,1,-2,0,-3,-1,-1,-1
1528282076712576,-1,0,-1,0,-3,0,0,0
1528282076712576,0,-1,0,1,0,-2,-2,-2
1528282076725748,-1,-1,-1,0,1,0,-1,0
1528282076725748,1,-1,0,-2,0,1,0,0
1528282076731944,0,0,-1,0,-1,-2,-2,1
1528282076731944,-1,-2,-2,0,-2,1,2,0
1528282076747482,0,1,0,-1,-1,-2,0,-2
1528282076747482,-1,0,-1,-2,0,-3,-1,-1
1528282076754517,-1,1,-1,0,-1,1,-2,0
1528282076754517,1,0,-1,-1,0,-2,-2,-1
1528282076770520,-1,-3,-1,0,0,-1,0,-2
1528282076770520,-1,-1,-1,-2,0,-1,0,-1
1528282076772518,0,-1,0,-1,0,-1,-1,-1
1528282076772518,-1,2,0,-2,0,-1,0,-2
1528282076785482,0,-1,0,-2,0,-1,-1,-1
1528282076785482,-2,0,1,-1,0,1,1,-1
1528282076791489,0,-1,0,1,1,2,1,-1
1528282076791489,0,-4,-1,0,-1,0,-1,1
1528282076807458,0,-2,-1,-1,-3,0,0,-1
1528282076807458,0,-2,-1,0,-1,0,0,0
1528282076814908,0,0,-1,-1,0,-1,-1,-1
1528282076814908,-2,0,0,1,-1,-1,-2,0
1528282076829658,-2,1,-1,0,-1,0,-1,1
1528282076829658,-1,-1,-1,0,0,-2,-1,0
1528282076830650,-2,-2,0,-1,-2,1,-1,0
1528282076830650,1,-2,-1,-1,0,-1,0,-1
1528282076845611,-1,-2,-1,-1,0,-1,0,-1
1528282076845611,0,-2,1,1,-1,-1,0,0
1528282076851595,1,0,0,0,0,-1,0,0
1528282076851595,0,1,0,-1,-2,-2,-2,-2
1528282076874572,-1,0,1,1,0,-1,-2,1
1528282076874572,0,0,-1,-1,1,0,-1,0
1528282076875530,-3,-1,-1,-2,-1,-2,-1,0
1528282076875530,0,-1,-1,0,-1,-1,0,-2
1528282076889524,1,0,-2,-1,0,1,0,-2
1528282076889524,0,-1,0,0,-1,0,-1,-1
1528282076890490,-2,0,-2,0,-1,0,-1,0
1528282076890490,-3,-2,-1,0,-1,0,-1,1
1528282076905450,0,-1,0,0,-1,0,-1,0
1528282076905450,-1,0,-1,0,-1,0,0,0
1528282076911434,1,1,0,-1,-1,-1,0,-1
1528282076911434,1,-1,-1,-2,0,0,-2,-1
1528282076926394,-1,-1,0,1,0,-1,2,-1
1528282076926394,1,0,0,-1,0,-2,-1,0
1528282076934372,1,-2,1,1,-2,-2,-2,1
1528282076934372,1,-1,0,1,0,0,0,1
1528282076951331,-1,-2,-2,0,-1,-1,0,0
1528282076951331,0,0,0,-1,0,1,0,-2
1528282076952326,-1,1,1,-1,0,-2,-1,0
1528282076952326,0,-2,0,-1,-1,0,1,-1
1528282076965290,0,-1,0,-1,-1,-2,-2,1
1528282076965290,-1,-1,-2,-1,-3,-2,0,-1
1528282076971276,1,-2,-1,-1,-1,-2,0,-2
1528282076971276,-1,-1,-1,0,0,-3,-1,0
1528282076987241,0,1,-1,-1,-3,1,-1,1
1528282076987241,0,0,0,0,-1,1,0,-2
1528282076994480,-1,-1,0,-1,0,0,0,0
1528282076994480,-1,-2,-1,0,0,-1,-1,-1
1528282077010531,-2,-2,-1,0,0,-1,0,-1
1528282077010531,-1,0,0,1,-1,-1,-1,1
1528282077010531,0,-2,-1,0,1,1,0,0
1528282077010531,-1,0,-1,0,0,-1,-1,-1
1528282077026161,-1,0,0,-2,-2,-1,-1,0
1528282077026161,-1,-1,-2,0,-1,-1,-2,-1
1528282077032148,0,-1,-1,0,-1,0,1,1
1528282077032148,1,0,1,-2,0,1,0,0
1528282077048131,-1,0,-1,0,-1,-2,-2,-1
1528282077048131,-2,-2,0,-1,-1,0,-1,0
1528282077054124,-3,-1,0,0,-1,-2,-1,-1
1528282077054124,0,-1,0,-1,-1,0,1,-1
1528282077070500,0,1,-1,-1,-1,0,2,-3
1528282077070500,0,0,0,0,1,0,1,0
1528282077070500,-1,1,-1,0,-3,0,0,-1
1528282077070500,-2,-1,-2,-2,0,0,0,2
