timestamp,emg1,emg2,emg3,emg4,emg5,emg6,emg7,emg8
1529307957751507,-3,-1,-2,-6,-11,-6,-5,-3
1529307957751507,0,0,-5,-8,-15,-6,1,-1
1529307957758487,-1,-3,-13,-21,-3,-3,-2,-2
1529307957758487,-1,2,17,-4,-6,-3,0,0
1529307957766464,-1,-5,-5,39,5,1,2,0
1529307957766464,-3,0,-7,11,0,-4,-4,-2
1529307957773447,-1,-5,26,3,-1,-3,-3,0
1529307957773447,-1,0,-10,-19,-4,-3,-2,-4
1529307957784416,-2,-1,-6,-16,-5,-1,-2,0
1529307957784416,2,-1,-5,-11,-5,-1,0,1
1529307957796384,0,2,10,-15,1,-5,-1,1
1529307957796384,-2,-3,-16,13,34,19,4,0
1529307957811346,-1,0,5,2,-4,1,0,-2
1529307957811346,-1,-5,-6,5,-9,-2,-1,-2
1529307957818326,1,2,-2,-5,-3,0,-2,-2
1529307957818326,0,-1,8,-8,-6,-8,-2,-2
1529307957835281,1,3,-5,-2,-2,8,0,2
1529307957835281,0,0,1,7,14,0,-3,0
1529307957841266,0,-1,-4,-8,-5,-5,1,1
1529307957841266,1,-1,5,-5,-9,-3,-2,-2
1529307957856226,-4,-2,-6,-4,15,-5,-1,-4
1529307957856226,-1,0,2,46,-7,-7,-2,-3
1529307957864204,1,3,-5,-38,9,12,2,2
1529307957864204,-1,-1,7,5,-11,-7,-3,-3
1529307957879162,0,0,-7,-14,-21,-5,1,0
1529307957879162,1,-1,2,8,25,10,2,-1
1529307957894124,-2,2,6,21,25,15,3,-3
1529307957894124,0,0,2,-8,-5,-2,1,0
1529307957901104,-2,-2,2,-20,-11,4,-1,-2
1529307957901104,0,-2,2,50,17,10,-1,-1
1529307957916066,1,2,0,-6,-13,-8,-5,-1
1529307957916066,1,-1,-2,1,-1,-22,1,1
1529307957924043,-3,-6,-1,9,-16,11,-2,-3
1529307957924043,-2,-1,-10,-40,-15,-20,-4,-2
1529307957940000,-1,1,6,39,4,22,-1,0
1529307957940000,1,-1,-7,-44,8,1,2,3
1529307957953966,-2,-3,-8,-4,15,-1,-2,-3
1529307957953966,-3,0,-2,-26,0,40,-3,-2
1529307957960947,0,1,13,45,1,-75,-1,0
1529307957960947,0,1,-3,-6,-4,55,1,2
1529307957975906,0,-2,-3,-24,-22,-14,4,1
1529307957975906,-4,-5,-6,2,-6,-13,-6,-3
1529307957983883,-1,-4,-13,-32,7,20,-3,-2
1529307957983883,3,3,13,28,8,-14,-6,0
1529307957998843,0,0,-9,-9,-28,-45,-9,-2
1529307957998843,-1,-1,4,8,-2,18,6,2
1529307958021783,-2,-4,-7,-31,5,7,-12,-3
1529307958021783,-1,-3,-16,-14,-3,21,10,-2
1529307958028764,-3,0,10,-1,11,-21,-1,-1
1529307958028764,-1,0,1,0,-9,-2,-12,2
1529307958036743,-2,3,-1,-5,-11,4,18,2
1529307958036743,-1,1,6,-30,-14,-9,-9,-3
1529307958058685,0,-2,-1,-7,-9,17,-4,1
1529307958058685,1,0,0,25,-4,-17,5,1
1529307958066663,-2,-6,-6,-19,-27,1,-1,-3
1529307958066663,-1,-2,-6,-14,5,-17,-10,-3
1529307958081641,3,3,4,26,3,11,23,5
1529307958081641,-5,-3,-4,-36,0,40,1,-4
1529307958096582,-3,-5,-10,-13,2,-3,1,-3
1529307958096582,-2,-2,-1,-10,3,-31,-10,-4
1529307958103563,1,0,0,11,1,32,-2,1
1529307958103563,0,-3,0,22,7,-33,-2,-4
1529307958118524,0,0,6,9,-3,33,12,1
1529307958118524,-3,-4,-10,-3,-27,-53,-6,-3
1529307958133483,-1,1,-2,-61,26,40,3,-4
1529307958133483,4,3,-2,74,13,28,-17,0
1529307958141462,2,9,12,-21,17,60,42,5
1529307958141462,-4,-2,-16,-12,-26,19,-1,-2
1529307958156423,3,6,11,-24,-32,11,-6,0
1529307958156423,-3,-6,-14,-3,-3,-5,6,-2
1529307958171382,-5,-2,4,42,5,0,-3,0
1529307958171382,-3,-5,-4,-25,-18,44,11,-1
1529307958178365,-3,-7,-7,25,36,18,-14,-5
1529307958178365,8,14,21,-11,-37,-90,0,6
1529307958193324,2,4,-18,-49,-29,81,6,4
1529307958193324,-5,2,-5,31,13,40,7,-3
1529307958201312,-9,-7,-14,-15,-43,-73,-25,-10
1529307958201312,1,8,25,40,45,-4,-13,-1
1529307958216262,-4,-8,-22,-49,-6,-25,6,-3
1529307958216262,-8,-8,3,24,-21,-71,-26,-9
1529307958231224,3,2,11,9,-34,0,-13,1
1529307958231224,3,-1,-6,-7,55,-19,1,4
1529307958239200,4,4,4,8,20,46,14,5
1529307958239200,-4,-4,-3,-12,-18,36,-6,-3
1529307958254186,-1,1,13,12,55,-15,-7,-4
1529307958254186,-7,-12,-27,-26,-72,-25,7,-9
1529307958261174,1,2,12,-35,-38,-128,-64,-4
1529307958261174,2,2,-7,6,33,127,32,2
1529307958276104,5,6,-6,-32,63,-23,14,8
1529307958276104,2,-2,-5,20,-53,3,10,3
1529307958291063,-6,-4,-2,21,11,-32,-3,-5
1529307958291063,0,3,2,-24,-1,-88,-24,-2
1529307958299079,-2,-1,1,48,-6,-8,-17,-5
1529307958299079,-3,-6,-6,-65,-9,-2,-1,-1
1529307958314001,-2,-11,-10,25,20,18,14,1
1529307958314001,-1,7,25,2,-11,-29,-31,-2
1529307958328998,0,3,0,-14,-1,27,20,0
1529307958328998,-1,0,2,20,14,-7,5,1
1529307958344919,-2,-15,1,-18,-8,-3,35,9
1529307958344919,-1,0,-8,-19,17,3,-1,6
1529307958358921,5,-5,3,-25,-15,-4,0,20
1529307958358921,-3,12,6,21,23,32,20,-28
1529307958365889,5,9,2,-3,3,3,-38,-9
1529307958365889,-37,-3,-30,-82,-24,-32,18,-8
1529307958380823,-4,-6,5,30,-12,-8,8,-5
1529307958380823,15,-9,4,-19,3,-2,-25,-4
1529307958395785,3,6,0,0,-4,15,-21,-4
1529307958395785,4,-1,2,54,4,-17,3,3
1529307958411739,-9,4,3,-11,-1,9,2,-3
1529307958411739,20,5,-4,-7,-5,-4,-18,-4
1529307958418721,-6,-1,-31,-56,-11,-3,11,7
1529307958418721,-15,1,33,71,11,14,-2,-3
1529307958433681,10,-7,5,37,-7,-23,-10,-6
1529307958433681,-21,-13,0,-30,-11,-5,9,9
1529307958441659,51,-10,0,18,11,3,-3,3
1529307958441659,-38,13,-4,-14,11,14,-8,-3
1529307958456620,-5,-5,-1,45,4,-16,27,11
1529307958456620,20,2,4,-3,9,19,-35,-5
1529307958471579,6,6,5,7,2,-1,56,18
1529307958471579,-24,-11,-7,-25,-5,-7,-17,-5
1529307958478560,-2,2,-1,-6,-1,0,18,-6
1529307958478560,28,7,-6,4,3,14,25,13
1529307958493520,10,11,3,10,-8,-14,-36,-16
1529307958493520,-3,7,4,7,4,-1,7,0
1529307958501498,-31,-12,4,14,7,4,40,-5
1529307958501498,0,5,5,10,-2,4,-17,-24
1529307958516459,-5,-4,2,27,4,1,-49,1
1529307958516459,20,-6,-6,-58,-1,-3,17,22
1529307958531420,-18,11,11,4,6,-5,-11,-4
1529307958531420,-17,-6,-12,-9,-4,4,-15,-15
1529307958538403,-16,1,-3,-18,-4,-2,10,-2
1529307958538403,15,-9,-15,-27,-5,-6,-27,-6
1529307958554521,2,-5,-8,-20,-10,-6,6,17
1529307958554521,-3,-5,17,22,2,-3,-8,1
1529307958561352,-10,2,7,4,1,13,19,5
1529307958561352,11,-1,10,22,9,11,11,-3
1529307958576299,1,-3,-8,-22,-4,-1,-6,-1
1529307958576299,-5,-8,-17,-19,-7,-4,-49,-13
1529307958584488,5,6,38,17,-2,-7,-26,-11
1529307958584488,-12,-22,-7,25,2,3,26,8
1529307958606218,0,7,-4,39,3,-4,-35,-11
1529307958606218,36,13,-4,-15,-2,2,10,4
1529307958621464,-69,-19,-8,-16,-6,-9,0,-30
1529307958621464,4,5,-16,-21,-7,-7,9,1
1529307958628447,18,2,-11,-23,-12,-4,-13,-6
1529307958628447,-14,-3,26,32,14,10,8,11
1529307958644415,12,-4,-6,9,3,8,32,-6
1529307958644415,30,-10,3,-21,-10,0,-3,2
1529307958651634,-85,-9,-31,-65,-15,-24,-99,-49
1529307958651634,51,-2,-1,7,-5,-2,81,39
1529307958659518,-9,-14,-18,-11,-17,3,-15,4
1529307958659518,4,-11,3,9,-8,-3,8,-9
1529307958673326,33,20,-14,-14,4,-18,-62,-11
1529307958673326,21,9,3,21,11,12,-20,12
1529307958681551,7,54,46,47,14,1,-23,-15
1529307958681551,-80,-13,-42,-48,-19,-7,5,-12
1529307958696511,28,8,-26,-35,-10,3,-18,25
1529307958696511,16,11,12,38,7,-2,-1,-6
1529307958704502,21,-5,16,-31,2,4,24,14
1529307958704502,-33,2,21,31,4,-6,-28,-8
1529307958719620,-8,-9,49,-74,-7,0,27,31
1529307958719620,-4,13,48,86,15,7,-14,1
1529307958734662,13,-16,39,27,10,3,-11,11
1529307958734662,-21,-6,3,-65,-14,-24,-8,-14
1529307958741823,5,-28,-43,34,-29,20,30,-4
1529307958741823,15,-32,-12,-11,-17,-3,-25,-20
1529307958756428,2,-18,-17,1,57,7,-12,1
1529307958756428,-18,1,-3,3,-37,7,4,-4
1529307958764521,12,21,-8,25,43,6,9,1
1529307958764521,3,23,-17,-31,-36,-10,-20,-7
1529307958778909,9,-2,54,26,-2,-30,4,-1
1529307958778909,-2,8,-12,34,91,67,1,-3
1529307958793874,1,2,19,55,36,-44,-4,5
1529307958793874,6,0,-15,-17,34,90,13,6
1529307958801593,8,-5,-14,21,-37,3,15,1
1529307958801593,-3,4,-19,-126,-17,-32,-8,-5
1529307958823531,-2,1,18,83,-4,0,-10,-2
1529307958823531,-4,-7,3,8,-25,-21,-6,-2
1529307958831510,-3,-14,-53,-28,26,5,6,4
1529307958831510,-5,-3,-11,-3,-20,-4,-8,-3
1529307958846470,4,-4,-23,-93,0,38,5,4
1529307958846470,1,-3,12,86,24,-33,-17,-4
1529307958861484,0,2,20,-15,-61,-15,-12,3
1529307958861484,-3,22,33,-30,83,36,29,4
1529307958868463,-2,-4,-40,-105,-36,-16,-3,-1
1529307958868463,0,4,0,29,13,-18,-6,-3
1529307958891406,4,6,-4,-18,23,9,-1,-3
1529307958891406,-3,13,3,-7,-15,0,9,0
1529307958906310,1,-15,-6,-3,-48,-26,-3,0
1529307958906310,-4,-17,-9,-13,-14,-8,-7,-1
1529307958921298,-1,-15,-10,-18,0,5,0,0
1529307958921298,-7,-18,0,67,-9,-12,-6,-2
1529307958929286,0,-11,-15,-18,28,-8,-4,-3
1529307958929286,0,-20,-35,-21,-38,4,0,2
1529307958944263,-2,11,22,75,20,1,2,-1
1529307958944263,1,5,12,-32,-11,5,2,-4
1529307958959208,3,32,41,3,7,-6,-10,-14
1529307958959208,13,12,23,18,2,8,8,3
1529307958974128,-11,1,-1,-6,-4,-3,-3,-1
1529307958974128,-7,-10,-11,-5,0,4,-8,-1
1529307958981157,0,-14,-24,20,-6,-3,-3,3
1529307958981157,-1,-5,6,-14,2,6,0,2
1529307958996117,8,0,7,16,-3,-5,-8,1
1529307958996117,22,-4,-10,-32,-1,-7,18,13
1529307959004083,-31,-12,4,8,1,9,0,1
1529307959004083,2,-1,1,30,1,-3,-8,-5
1529307959019061,-18,2,13,11,8,4,4,-9
1529307959019061,9,-10,-15,-16,-14,-9,-31,-8
1529307959025991,38,4,-10,18,-2,4,36,28
1529307959025991,-15,3,-8,-25,-3,2,12,-25
1529307959040950,-35,-17,8,55,-20,-9,-12,4
1529307959040950,-4,18,-14,-52,-12,-7,-2,-2
1529307959055911,7,7,0,46,17,3,0,-4
1529307959055911,-13,1,15,16,-5,-1,-2,-8
1529307959063889,18,-3,15,-3,24,9,-1,8
1529307959063889,21,-13,-13,-6,-11,1,-2,8
1529307959078849,-8,-3,-2,11,-9,-9,-4,-7
1529307959078849,-16,-8,-27,10,9,2,-3,9
1529307959086828,41,5,17,-29,-21,-5,0,2
1529307959086828,-19,-4,18,31,1,-8,-5,-3
1529307959101788,18,0,-16,-38,-8,-8,2,-1
1529307959101788,-10,2,21,3,-14,6,-1,-8
1529307959108769,-14,-6,-25,19,13,4,-1,-10
1529307959108769,4,-2,-6,-53,1,1,-4,1
1529307959123730,-1,2,6,-24,8,-4,-6,-8
1529307959123730,-6,-3,1,52,18,9,-4,12
1529307959138690,-1,-4,-11,-25,1,3,2,-4
1529307959138690,26,5,3,-50,-20,-6,-1,9
1529307959147067,-1,-8,7,34,-1,-1,-3,-8
1529307959147067,-5,2,-4,9,-9,-11,-1,4
1529307959160980,-9,-1,-3,4,8,7,1,-2
1529307959160980,-8,6,5,-23,-4,0,1,-10
1529307959168915,-3,3,5,36,4,1,1,6
1529307959168915,-4,-6,-5,-18,0,-7,-6,-7
1529307959191934,-2,4,-3,14,1,-7,-4,-5
1529307959191934,-3,0,5,-6,-23,-8,-4,-3
1529307959206345,3,-1,5,20,42,12,6,1
1529307959206345,1,-3,-6,-14,2,1,0,0
1529307959214098,-17,-13,-24,8,-3,-4,-2,-3
1529307959214098,19,2,9,-29,-4,3,-1,-4
1529307959229045,-1,13,3,6,-19,-11,-4,1
1529307959229045,-1,4,11,19,-3,-10,-1,-2
1529307959237047,-5,4,5,-16,10,12,2,-5
1529307959237047,-1,-5,-15,-20,5,4,-1,-1
1529307959244474,10,-1,2,20,-15,-12,-6,9
1529307959244474,-48,-13,-4,-45,8,4,-3,-36
1529307959258818,12,10,28,69,3,-3,0,5
1529307959258818,-14,-10,-11,6,8,3,-5,-2
1529307959266546,4,-2,-6,-7,-15,1,7,-1
1529307959266546,10,5,11,29,9,5,1,11
1529307959281873,-4,0,-1,-18,-3,3,0,-2
1529307959281873,0,0,-1,-42,-3,-5,-1,-6
1529307959288485,-5,-1,-1,29,3,1,-4,1
1529307959288485,21,8,1,-11,3,-1,0,6
1529307959304113,-5,4,2,-22,8,-3,-6,-9
1529307959304113,-14,-7,-9,-45,6,2,5,5
1529307959318725,34,5,6,30,-5,0,-2,1
1529307959318725,1,3,-7,2,-5,-4,-3,-4
1529307959326945,-11,-2,-10,-20,-12,-6,-3,-6
1529307959326945,10,-2,-5,25,-6,-1,-2,-1
1529307959341934,-7,-10,-9,-17,-3,-1,-2,1
1529307959341934,10,6,4,-10,0,2,1,0
1529307959348910,2,0,-8,2,-2,0,3,11
1529307959348910,-21,-7,0,32,1,-1,2,-30
1529307959363865,5,0,-2,-24,0,3,-3,-4
1529307959363865,5,0,-1,34,1,-3,-5,13
1529307959378826,0,-3,-12,-35,-4,0,-3,-3
1529307959378826,-1,0,4,-7,-2,-3,-2,-6
1529307959387023,2,0,3,6,2,1,-2,1
1529307959387023,1,0,-2,-3,-2,-1,0,6
1529307959401578,-3,-2,1,12,-4,-5,-3,-6
1529307959401578,1,-3,-3,-20,5,1,0,6
1529307959410521,-5,1,0,30,2,-1,-2,-5
1529307959410521,3,-2,2,2,-2,-2,0,6
1529307959424516,-4,-1,-3,-11,4,2,1,-3
1529307959424516,30,7,-22,-3,-2,-2,0,0
1529307959438445,-51,-13,22,-3,-4,2,1,1
1529307959438445,-11,-3,1,-3,-5,-1,-4,-1
1529307959447004,19,5,8,-4,-3,-5,-1,-3
1529307959447004,1,3,2,7,5,2,-1,7
1529307959461264,7,-5,-13,-12,0,1,0,0
1529307959461264,9,-8,-5,8,-2,0,-3,15
1529307959469627,-30,-6,-1,-19,-7,-4,-4,-33
1529307959469627,10,-4,-15,11,2,-2,-2,4
1529307959484636,10,-11,-13,17,11,0,-1,9
1529307959484636,-11,0,10,-71,-29,-8,-5,-3
1529307959499575,3,-2,-76,-22,-16,1,-2,-5
1529307959499575,1,8,67,47,13,0,-1,-1
1529307959507002,0,8,21,-7,-11,-4,-3,4
1529307959507002,-9,-5,-22,0,10,1,1,-2
1529307959521489,1,-6,-74,-18,0,-1,0,3
1529307959521489,2,-7,7,23,0,4,1,-5
1529307959529635,1,22,-26,-5,12,1,3,1
1529307959529635,15,-6,49,1,-4,1,-1,3
1529307959544548,0,-7,94,17,3,0,-3,-21
1529307959544548,2,7,-6,3,3,0,2,9
1529307959559543,-35,-3,23,-2,2,0,-2,-14
1529307959559543,10,-27,9,-4,1,-2,-2,2
1529307959566573,-17,-14,-43,-8,-4,2,-1,10
1529307959566573,22,0,-34,4,1,-2,0,6
1529307959581566,9,7,104,9,-5,-2,-4,-6
1529307959581566,-11,17,32,-12,0,-1,-1,-4
1529307959589596,4,-9,-64,-9,-8,0,-1,5
1529307959589596,-15,-1,49,23,6,-3,-2,-8
1529307959604106,6,-2,8,14,3,-2,0,2
1529307959604106,-6,9,-42,-9,1,5,2,-2
1529307959619053,1,-2,18,-29,-4,-4,-1,2
1529307959619053,1,0,-13,23,0,0,0,-1
1529307959627051,0,-2,-72,-16,-7,-2,0,0
1529307959627051,-12,15,33,23,4,-3,-3,-1
1529307959641741,8,3,-20,-15,-4,-3,-3,1
1529307959641741,1,-6,-23,-5,3,-3,1,-4
1529307959648725,-2,1,3,-8,-3,0,-2,15
1529307959648725,-16,-4,-38,2,1,1,-1,-11
1529307959663759,27,10,53,84,2,1,1,13
1529307959663759,-33,-24,-27,-55,-5,-1,-3,-17
1529307959678642,-4,1,-24,8,4,-1,-2,-2
1529307959678642,-2,-15,-25,-13,-5,-1,-3,-9
1529307959687025,-23,17,13,-17,0,-5,-3,-11
1529307959687025,64,-4,18,8,-3,2,0,4
1529307959702023,4,5,0,19,0,1,3,17
1529307959702023,-12,-8,-14,-8,0,-1,-4,-31
1529307959724054,-21,-4,3,-5,4,-2,-2,7
1529307959724054,36,-2,-14,-7,-11,-2,1,6
1529307959738774,-41,5,18,-15,-5,2,-8,-9
1529307959738774,74,-1,11,14,5,1,-4,13
1529307959747016,-98,-40,3,12,-1,-4,-17,-7
1529307959747016,98,-42,-17,-30,-11,-7,-3,38
1529307959762121,-60,29,6,11,17,12,41,-23
1529307959762121,-41,24,-3,1,-6,-13,-43,22
1529307959777194,6,-33,-14,-10,-13,-2,23,7
1529307959777194,28,25,16,7,13,5,8,53
1529307959792140,-69,-50,-21,-15,-13,-7,4,32
1529307959792140,-107,-17,8,2,3,1,-3,-52
1529307959799182,102,-40,-20,6,-10,-6,-20,31
1529307959799182,0,15,7,-18,-9,-1,10,-35
1529307959814145,54,15,3,0,4,2,-1,23
1529307959814145,70,-11,-3,2,-3,0,-3,25
1529307959821770,-102,-12,0,3,-7,-6,-17,-27
1529307959821770,62,10,3,7,12,6,15,-23
1529307959837063,-10,-1,3,-6,-7,-1,-22,-19
1529307959837063,11,-19,-7,-3,-6,-5,12,36
1529307959852040,11,0,12,6,12,13,-1,-26
1529307959852040,-95,-25,-1,3,-2,1,31,-27
1529307959858671,127,26,-6,-9,-12,-10,-16,31
1529307959858671,-128,-87,-34,-7,-5,-5,1,9
1529307959873643,22,26,1,-15,-18,-22,-6,12
1529307959873643,-47,25,13,5,6,0,-14,-42
1529307959881890,-43,-2,-4,1,1,9,13,6
1529307959881890,-58,12,2,0,1,-2,1,-23
1529307959896569,15,-6,-4,2,4,4,-6,-10
1529307959896569,-15,3,5,1,-3,0,11,4
1529307959911255,30,-3,3,0,4,1,-17,3
1529307959911255,-64,-17,-7,-4,-5,-3,-6,-9
1529307959919253,2,6,-2,5,5,5,14,8
1529307959919253,63,39,7,-6,-7,-7,-21,16
1529307959934239,-49,3,2,1,1,2,4,-43
1529307959934239,94,-10,-3,-4,0,-2,-1,12
1529307959941978,-104,-18,-2,4,4,6,5,-8
1529307959941978,40,12,1,-3,-1,0,-3,-11
1529307959957053,11,-19,-11,-20,-7,-6,3,13
1529307959957053,9,17,8,20,5,1,-15,-23
1529307959971151,7,-21,-6,-10,-3,0,-4,0
1529307959971151,19,-13,-6,3,-1,-3,6,-5
1529307959979321,-17,3,-1,17,1,-9,-20,2
1529307959979321,-5,-17,-6,-10,-2,-2,12,19
1529307960001279,1,-8,-1,11,0,-2,-10,-6
1529307960001279,9,23,8,-4,2,6,8,-8
1529307960008258,61,-4,-2,-3,-2,-3,-6,-12
1529307960008258,-21,-9,-3,0,-3,-6,6,22
1529307960024215,-4,4,-2,-9,-4,-2,-3,3
1529307960024215,-28,-6,-4,-6,-5,-5,-6,-1
1529307960039439,37,21,7,3,5,0,8,11
1529307960039439,-13,-13,-6,-6,-2,0,-4,3
1529307960054309,-3,-8,-6,1,-1,-3,-12,-12
1529307960054309,17,5,-4,-4,1,0,5,5
1529307960061135,-53,-13,-3,-18,-3,3,20,12
1529307960061135,30,5,3,21,0,3,4,5
1529307960076076,39,-3,-4,-4,0,-2,-6,11
1529307960076076,-16,-3,1,-1,-2,-2,-1,-16
1529307960091039,-42,0,0,1,-1,-1,-2,-7
1529307960091039,1,1,-1,-5,-1,4,3,7
1529307960099260,7,2,2,2,-1,-5,-5,-5
1529307960099260,54,-1,-6,1,1,4,7,2
1529307960114293,14,-3,0,0,-2,-3,-2,7
1529307960114293,1,6,3,5,6,6,3,17
1529307960121037,0,-11,-2,2,-5,-3,-4,-29
1529307960121037,1,-5,0,-1,0,-1,2,1
1529307960137048,-13,-1,-2,-3,-3,-3,0,-1
1529307960137048,3,1,0,1,1,0,-3,-4
1529307960151916,9,10,-2,0,-2,0,-3,-9
1529307960151916,-1,4,2,1,1,-2,1,-4
1529307960159093,63,-15,-5,2,0,-1,2,35
1529307960159093,-16,19,2,-3,-1,-3,0,-35
