timestamp,emg1,emg2,emg3,emg4,emg5,emg6,emg7,emg8
1529298207816244,-4,0,-2,0,2,0,-1,-2
1529298207816244,3,0,-1,-1,-2,-2,-2,-1
1529298207823225,-2,-4,0,2,-1,-4,-1,-3
1529298207823225,-1,3,-2,-2,1,-2,-1,0
1529298207838185,1,-4,3,3,-3,1,-1,-1
1529298207838185,2,5,2,-1,-1,1,-3,-3
1529298207856138,-1,-2,-2,-4,-2,-6,-6,-1
1529298207856138,1,-1,-3,0,1,4,0,-1
1529298207861142,1,0,3,-5,-2,0,-1,-1
1529298207861142,1,1,0,2,2,-4,2,0
1529298207876084,1,-2,-1,0,5,0,0,1
1529298207876084,-4,0,-2,-3,-2,1,0,-2
1529298207884063,1,-1,-3,-2,-2,-1,0,1
1529298207884063,-2,-4,-1,-3,0,-2,-4,-2
1529298207899024,2,3,-2,0,-2,-2,-1,-1
1529298207899024,-2,-1,0,8,1,-4,0,0
1529298207920990,5,-16,-2,8,5,2,1,-2
1529298207920990,1,4,1,-2,-1,-1,-2,0
1529298207928942,-3,7,3,0,-3,0,-1,1
1529298207928942,1,-11,-5,-2,1,-1,-3,-6
1529298207935924,-4,3,-1,-1,-1,-7,2,3
1529298207935924,-1,2,-1,-2,-2,-7,1,1
1529298207943903,-2,-4,-1,1,2,2,-2,-3
1529298207943903,-1,-7,-10,-12,2,3,1,0
1529298207958862,-5,5,2,-6,-7,-2,-3,-3
1529298207958862,-3,1,-1,-2,6,3,-1,2
1529298207965849,2,-8,-1,1,-1,-11,-1,-3
1529298207965849,-1,-2,0,3,-2,0,-2,-1
1529298207980809,-3,-4,-2,-7,-5,-7,-2,-5
1529298207980809,0,1,4,12,3,5,0,1
1529298207995764,2,0,-5,-2,-4,-2,-5,-4
1529298207995764,1,-3,8,5,2,-3,4,-2
1529298208003743,-5,1,-9,-1,0,-1,-6,0
1529298208003743,-6,2,1,-8,-4,-5,-4,-1
1529298208018703,-1,-10,2,-1,8,10,2,-2
1529298208018703,2,5,-7,9,-3,10,-4,-4
1529298208025684,1,3,7,-5,-3,-11,0,-1
1529298208025684,-1,-3,-5,-9,-7,-16,-5,-2
1529298208040680,0,1,4,9,-3,13,2,-3
1529298208040680,-2,0,-5,-12,-10,-25,-5,-1
1529298208056602,1,-1,1,6,4,-41,0,-3
1529298208056602,1,2,-7,6,3,16,4,-2
1529298208063584,-2,1,-5,6,8,26,1,-1
1529298208063584,-1,-8,8,7,5,31,-2,1
1529298208078544,-1,0,-8,-3,-7,-20,-1,0
1529298208078544,1,-11,2,-7,-11,-38,-2,-4
1529298208086521,2,-1,-7,-2,1,7,1,0
1529298208086521,-4,6,-10,7,5,13,-5,-3
1529298208101482,-2,-16,8,-3,1,25,4,-1
1529298208101482,0,10,-6,-5,-8,-38,-13,3
1529298208108466,1,-7,2,-9,0,-32,-1,-1
1529298208108466,2,14,10,9,-2,28,11,4
1529298208123450,-1,-11,5,2,-4,-23,-15,1
1529298208123450,2,-2,2,-5,-10,-45,5,1
1529298208138383,-6,-2,0,2,7,18,-22,-3
1529298208138383,-1,2,-16,1,5,37,15,1
1529298208146362,0,2,-6,-9,-15,33,-2,2
1529298208146362,-2,2,9,0,25,-68,-2,0
1529298208161325,4,3,-3,-13,-22,-8,10,0
1529298208161325,1,-14,3,15,8,16,-29,-7
1529298208168303,1,11,-1,-4,2,26,14,-1
1529298208168303,-2,-4,-3,-3,-5,37,4,-4
1529298208183264,-5,-2,-6,-7,-5,29,7,-4
1529298208183264,-1,11,5,10,17,31,5,-3
1529298208206242,-1,9,13,-9,-2,52,-7,-1
1529298208206242,1,-3,3,16,-14,-27,7,0
1529298208213183,1,-12,-8,-2,8,-49,12,-1
1529298208213183,2,0,-3,4,-11,33,-19,-2
1529298208228143,-3,-2,-4,0,8,12,11,1
1529298208228143,0,21,-4,-20,4,63,3,2
1529298208236160,3,-41,13,20,8,-15,11,-1
1529298208236160,1,6,-7,11,15,-111,-4,-2
1529298208244100,-3,-19,-49,-5,-3,34,15,-2
1529298208244100,-2,8,4,-18,-47,2,17,1
1529298208259060,1,-12,-2,-3,20,-109,5,-3
1529298208259060,2,-1,9,14,5,37,6,-4
1529298208266042,-3,5,-19,9,36,54,17,5
1529298208266042,-2,14,9,0,-37,35,-13,-2
1529298208281039,-9,-21,-35,-2,15,-102,-21,-2
1529298208281039,1,6,15,11,77,58,-37,2
1529298208289229,-2,21,2,-3,-23,20,-13,3
1529298208289229,-4,-11,-4,-10,-7,18,11,-3
1529298208303956,-2,-26,18,6,18,-5,11,-2
1529298208303956,-1,-12,-6,-12,0,33,12,0
1529298208325893,-3,6,-5,-2,1,17,16,-3
1529298208325893,-10,40,-1,-6,-28,4,31,-4
1529298208333903,12,6,17,0,12,-44,-58,0
1529298208333903,5,5,4,34,23,-9,17,3
1529298208348855,-6,-19,7,-14,12,23,8,-2
1529298208348855,-1,-18,-7,-4,-17,-20,33,3
1529298208356800,-16,0,-12,-16,-13,16,21,-6
1529298208356800,8,-2,6,6,6,-6,0,1
1529298208371797,1,24,20,17,0,4,-10,2
1529298208371797,-4,-11,-7,-1,32,32,-2,0
1529298208387717,2,12,-2,-2,0,-5,-34,-1
1529298208387717,-4,-18,-14,11,5,10,4,-5
1529298208400682,6,-5,-4,13,12,20,-2,8
1529298208400682,-4,3,-6,7,-27,-25,7,-2
1529298208408710,-5,-36,-28,-25,7,-15,-7,-3
1529298208408710,-8,26,-12,-19,-17,-24,0,-1
1529298208423868,3,-3,-9,-5,-15,-33,6,-5
1529298208423868,-2,-22,18,-28,-25,-25,-15,-8
1529298208438836,-4,-1,-1,-2,14,18,10,0
1529298208438836,1,-7,15,19,21,37,9,7
1529298208446787,1,39,29,11,-10,-11,-36,-2
1529298208446787,-2,-18,-6,-2,-4,-3,8,-3
1529298208461840,-6,-24,-24,1,-5,-11,-12,-6
1529298208461840,1,-3,4,5,43,-8,9,-1
1529298208468825,-3,-20,-26,-9,-27,-27,5,-4
1529298208468825,-9,30,48,-4,6,15,-5,1
1529298208483802,7,8,43,11,2,1,10,3
1529298208483802,-2,-5,-4,11,6,1,-10,-1
1529298208498719,-2,7,-4,2,-11,-5,15,-2
1529298208498719,-4,-30,-5,2,-8,14,-6,-2
1529298208506214,-5,12,-38,-2,1,-40,13,0
1529298208506214,5,-24,-15,-16,-6,-11,1,-1
1529298208521156,-6,6,-19,1,2,3,3,-2
1529298208521156,3,-10,1,4,0,16,-2,1
1529298208528958,-5,10,40,0,4,22,4,0
1529298208528958,1,7,0,1,-4,-2,-12,1
1529298208543873,-3,-4,-37,-2,-8,2,4,-3
1529298208543873,3,-64,-72,0,3,-6,-7,7
1529298208558831,-44,93,71,5,1,1,-3,-4
1529298208558831,26,11,-48,-1,-8,-7,-6,0
1529298208565875,8,0,35,4,5,3,-1,-11
1529298208565875,15,4,39,12,7,3,7,17
1529298208581013,19,-30,23,20,0,1,-2,-6
1529298208581013,10,21,39,28,3,-27,4,2
1529298208588975,0,24,1,-12,-11,-10,-9,28
1529298208588975,-1,18,-19,5,5,8,9,3
1529298208611332,25,-4,-11,-9,1,49,20,34
1529298208611332,-58,-7,-14,5,2,0,0,-2
1529298208626944,-7,-74,17,-5,10,15,0,0
1529298208626944,-13,-5,-98,-30,-19,-11,-7,28
1529298208633916,10,15,-21,-9,8,13,4,-42
1529298208633916,10,33,32,15,-3,-6,-34,39
1529298208649216,4,10,31,-22,-4,-7,0,1
1529298208649216,-70,11,-7,-35,3,5,-1,-32
1529298208664469,-1,-3,-10,-9,1,5,9,4
1529298208664469,28,-13,-7,-3,3,-6,-6,-9
1529298208678570,5,-3,-19,-1,-2,-14,-28,-5
1529298208678570,-85,-18,23,20,-8,6,30,1
1529298208686280,-24,-79,8,34,3,-20,-14,-14
1529298208686280,62,2,3,32,9,-6,-5,-14
1529298208701237,13,30,-16,-23,-27,12,21,11
1529298208701237,35,66,5,22,4,10,-6,8
1529298208716203,-6,26,-3,11,-18,-18,-5,-6
1529298208716203,13,23,0,-3,1,0,18,-1
1529298208731156,-5,-15,-15,-11,4,9,9,2
1529298208731156,12,-6,3,9,-10,3,-10,-2
1529298208738137,-18,-3,-13,3,12,-1,18,-2
1529298208738137,-11,-19,15,16,-9,-18,-13,-17
1529298208753097,-7,3,-8,-46,13,6,6,-4
1529298208753097,-9,13,-7,-22,3,4,21,2
1529298208761076,-12,-15,11,0,-10,-10,-8,-2
1529298208761076,7,-4,15,16,8,-11,7,-6
1529298208776038,0,-3,18,20,8,5,-1,-1
1529298208776038,1,-1,14,3,-8,-18,-5,-3
1529298208791049,-4,19,-28,-24,-18,-11,-6,4
1529298208791049,-12,1,-23,10,6,-13,-21,-12
1529298208798980,8,13,14,40,5,6,3,6
1529298208798980,1,-5,7,16,17,33,10,6
1529298208813935,-1,2,16,51,11,4,-7,-4
1529298208813935,-4,-12,-13,-47,-15,-15,2,-4
1529298208820916,-2,-6,-4,3,-10,-19,-7,-6
1529298208820916,6,-2,8,-4,-3,-17,6,2
1529298208835876,-3,-4,-3,-2,0,33,5,-1
1529298208835876,4,-4,2,-15,1,18,-1,0
1529298208850836,3,7,13,19,1,-11,-5,-3
1529298208850836,-5,1,0,-3,-8,-10,1,-2
1529298208858815,-6,-3,-9,-2,1,4,-6,-3
1529298208858815,6,-2,7,9,9,17,5,3
1529298208873775,-4,-9,0,-10,-15,-20,-8,-2
1529298208873775,2,-1,5,5,4,14,-1,1
1529298208880756,-4,-14,-2,8,18,-14,-7,-5
1529298208880756,1,-18,1,-10,-23,-28,-4,-5
1529298208895717,1,18,-3,-3,19,30,8,4
1529298208895717,-2,-4,-2,-5,-2,6,-2,0
1529298208918655,-3,4,-11,-16,-11,-16,-7,-3
1529298208918655,2,-5,1,8,-9,-12,-2,-5
1529298208940596,4,17,-4,-1,26,22,5,4
1529298208940596,0,-20,-4,-4,-5,9,-2,-3
1529298208963537,0,4,0,-7,-17,-24,-3,-2
1529298208963537,2,-3,-1,11,10,4,4,-2
1529298208970569,-1,-3,-1,0,0,1,0,-2
1529298208970569,-2,9,-2,-2,-3,6,-1,3
1529298208978548,-2,-11,2,8,-1,-13,-5,-4
1529298208978548,-2,1,-1,-9,-6,-4,-3,0
1529298208986474,-1,4,-3,-5,-3,-5,-1,-1
1529298208986474,-3,0,-6,-3,-2,-2,1,-3
1529298208993508,-4,-3,-3,1,3,-2,-3,-2
1529298208993508,-3,1,0,3,4,5,1,1
1529298209001487,8,5,-3,2,-4,-4,0,16
1529298209001487,-12,2,3,-2,-5,-10,-12,-26
1529298209016395,-15,12,25,6,2,3,-2,-58
1529298209016395,-48,-40,-50,-27,-11,-11,-16,-26
1529298209023407,4,14,14,-2,-3,0,-4,-17
1529298209023407,20,-8,-15,1,1,-1,11,23
1529298209038336,0,12,-7,7,6,7,4,12
1529298209038336,14,-4,25,3,2,13,10,21
1529298209053535,38,2,-13,-4,-6,-2,-4,30
1529298209053535,-10,3,20,10,1,-4,-3,12
1529298209061501,-5,-3,-9,-1,-3,1,-1,-42
1529298209061501,17,-3,-4,-6,-3,-1,-3,5
1529298209076475,-6,-10,-5,-3,-4,-7,-2,10
1529298209076475,17,13,4,3,4,5,-7,3
1529298209083518,-4,-4,10,4,4,-4,12,5
1529298209083518,-13,-2,0,-3,1,5,-5,-12
1529298209098851,-4,-9,-3,-2,-1,-6,-4,-9
1529298209098851,4,2,-6,-1,-5,-1,2,-1
1529298209114138,-8,0,-7,-7,-1,-4,-8,14
1529298209114138,7,9,2,-3,0,8,4,-2
1529298209121796,-5,-3,-1,-5,-8,-5,-9,11
1529298209121796,3,3,10,4,-6,-14,6,-12
1529298209129039,1,0,-5,4,10,11,6,12
1529298209129039,-3,-2,5,5,-14,-5,-11,-3
1529298209143993,-10,-17,25,0,-7,-2,-1,-4
1529298209143993,-3,6,-5,-14,-9,-6,-3,-1
1529298209151815,-2,-16,-5,10,8,-7,-5,-7
1529298209151815,-1,-1,-11,-34,0,2,-1,-2
1529298209158955,2,4,-2,15,12,5,6,-1
1529298209158955,5,-7,14,6,-1,-3,2,-3
1529298209166778,3,-10,-2,0,-7,0,-3,1
1529298209166778,4,8,1,16,4,6,1,3
1529298209173990,-14,-4,-3,-10,-10,-8,-13,-23
1529298209173990,16,4,-10,-12,-2,9,25,30
1529298209180938,-5,7,-1,0,0,-1,-7,0
1529298209180938,-3,4,11,8,4,0,1,-4
1529298209195933,-4,4,-9,-6,0,-6,-2,-4
1529298209195933,5,5,-1,8,4,1,-6,-5
1529298209204132,1,3,3,-4,-7,0,2,5
1529298209204132,-16,-12,-9,-9,-6,-10,-13,-16
1529298209219360,-4,-3,-2,5,5,11,6,-25
1529298209219360,1,-7,-8,-4,0,0,-7,5
1529298209234245,2,-1,-13,-8,-1,0,5,16
1529298209234245,-9,-2,-2,6,7,9,1,-13
1529298209241787,-1,3,-9,-13,-9,-5,-3,-5
1529298209241787,5,5,3,5,4,2,0,6
1529298209256818,0,0,-2,-2,-1,-3,2,4
1529298209256818,3,4,-1,2,-1,0,0,5
1529298209271142,-1,-4,5,0,0,-3,-3,1
1529298209271142,3,-2,1,0,-1,-1,4,3
1529298209286851,1,-5,1,-1,-3,-1,0,-2
1529298209286851,-1,-1,-2,0,-1,-1,-5,-5
1529298209301404,3,3,-2,-2,0,-2,-5,-6
1529298209301404,-2,2,1,3,0,1,3,3
1529298209309368,1,-4,2,-2,0,3,-1,1
1529298209309368,4,0,-3,0,-3,1,0,1
1529298209324379,-6,-4,2,1,0,-2,-4,1
1529298209324379,8,-3,-3,0,-1,-4,2,2
1529298209340033,1,0,2,2,-1,-2,1,7
1529298209340033,-4,-1,-6,-4,-4,-2,-3,-3
1529298209346271,-4,0,-1,-4,-2,1,-4,1
1529298209346271,4,1,0,3,-1,-2,0,2
1529298209361021,-2,-1,-2,-2,2,-2,0,1
1529298209361021,-3,0,-2,1,1,4,-1,1
1529298209369217,-2,-3,-1,-3,-2,-3,-1,1
1529298209369217,2,-1,-3,0,-1,3,1,-4
1529298209383916,-5,-2,3,-5,1,-1,3,-1
1529298209383916,0,3,0,1,0,-1,-6,-4
1529298209390897,-4,-3,-2,-2,-1,-2,-1,-4
1529298209390897,3,0,0,-1,0,-1,3,-1
1529298209407851,-6,-4,-2,-1,0,-2,-3,-2
1529298209407851,0,-3,-1,-1,-3,2,0,-2
1529298209414088,0,-2,1,-2,-3,-1,-1,3
1529298209414088,-4,-2,-6,-1,4,0,-1,-2
1529298209429049,-3,1,3,-3,-3,-2,0,-3
1529298209429049,-2,4,-17,-1,-1,-1,-2,-3
1529298209444002,2,9,-11,-3,0,-1,-3,-2
1529298209444002,-5,-2,1,-1,1,-1,2,-1
1529298209451784,2,-5,-8,1,0,0,-5,-1
1529298209451784,0,7,-11,-4,-2,0,1,3
1529298209465977,2,0,4,0,-1,0,-2,-4
1529298209465977,0,2,0,-1,-1,-1,-2,-2
1529298209474273,0,4,-4,-4,3,0,1,-1
1529298209474273,-4,-6,11,4,-2,-1,0,-2
1529298209481218,2,-2,0,-2,-3,0,0,6
1529298209481218,-2,-4,0,0,0,-2,-1,-4
1529298209496087,1,2,7,7,-1,0,0,2
1529298209496087,-4,-10,-2,-7,-8,-5,-4,-5
1529298209504084,3,8,7,5,-10,-3,1,1
1529298209504084,-1,5,4,1,2,-4,-2,-3
1529298209519040,-4,-5,-1,0,5,-3,-2,-2
1529298209519040,0,2,-2,1,10,3,2,0
1529298209526793,-4,-2,-9,-2,1,-2,-3,0
1529298209526793,1,-7,0,-2,-3,-1,-2,-3
1529298209533990,1,-2,-12,-1,0,0,4,-4
1529298209533990,2,-1,1,2,-3,-2,-3,0
1529298209541900,1,1,-3,-3,-4,0,-3,-1
1529298209541900,-1,0,2,4,-1,-1,-1,2
1529298209556813,-2,-1,-7,-7,-7,-2,-2,-2
1529298209556813,-2,-5,-11,-4,-4,-1,-2,0
1529298209563923,-1,4,-5,-2,-1,-1,-2,-2
1529298209563923,0,3,10,0,-1,3,2,0
1529298209578651,-11,-12,6,-3,-4,-3,-6,-5
1529298209578651,1,6,-2,5,1,-2,-2,2
1529298209593579,-5,-11,-3,-1,-2,-1,0,-2
1529298209593579,0,10,-8,-1,1,-2,2,-1
1529298209601982,1,-5,0,-1,-3,0,1,2
1529298209601982,2,-4,8,1,3,1,2,-1
1529298209608571,0,-8,-3,-2,-1,0,-3,-1
1529298209608571,0,-13,4,0,-2,-1,1,-1
1529298209623503,-2,-2,-6,2,-1,1,-1,0
1529298209623503,-1,5,-1,-2,-5,1,-1,-1
1529298209631903,-2,-3,8,0,0,-1,-1,-1
1529298209631903,-3,19,-5,-5,-5,-4,-8,-1
1529298209646701,-2,0,-4,1,5,-1,-2,-1
1529298209646701,-1,-25,6,-1,5,34,-3,-1
1529298209653665,-1,6,-8,-2,2,43,1,0
1529298209653665,-2,-7,-1,0,-31,44,-1,-4
1529298209661643,0,-6,10,-3,-7,7,2,0
1529298209661643,-4,-7,-7,-2,7,-5,-3,0
1529298209676604,1,6,-11,0,20,-8,-1,2
1529298209676604,-2,7,0,1,25,14,2,0
1529298209684338,-2,9,-4,-1,3,-5,-4,-4
1529298209684338,1,0,-5,-2,-2,-2,-3,-1
1529298209698304,2,5,3,0,-7,-13,1,-2
1529298209698304,3,3,9,-1,-4,3,0,0
1529298209706282,0,6,-1,2,-7,6,3,0
1529298209706282,0,13,3,0,0,-7,-1,0
1529298209714288,-5,-25,-20,-12,-17,-13,-3,0
1529298209714288,-1,-8,-5,-1,-1,4,-2,-1
1529298209721795,-1,-31,-3,-2,3,-4,-3,-1
1529298209721795,-2,-15,-7,-3,-4,-8,0,-1
1529298209736834,1,-1,14,7,1,-6,-1,2
1529298209736834,-3,-5,-4,-10,-6,5,-2,1
1529298209743830,-1,6,-7,0,0,-4,2,0
1529298209743830,-3,-2,12,5,1,-4,5,-2
1529298209758704,-3,-10,7,-1,-4,1,2,1
1529298209758704,-2,8,-8,2,5,6,0,-2
1529298209766421,-5,7,-13,-2,0,-4,-1,1
1529298209766421,-2,-1,16,-6,-4,-2,1,-6
1529298209773433,1,-1,3,2,0,-4,-4,0
1529298209773433,0,9,-7,2,4,3,3,0
1529298209781647,-3,6,0,-1,-4,1,1,-3
1529298209781647,-2,0,-12,-9,-5,-3,-1,1
1529298209796342,-4,11,2,-3,-1,-2,1,-1
1529298209796342,0,0,-12,5,-4,-3,-4,-1
1529298209803323,2,-2,28,0,1,2,1,3
1529298209803323,0,-2,-1,-10,2,0,3,0
1529298209818334,-1,9,-8,-2,-3,0,-3,-1
1529298209818334,-1,-2,4,5,-2,0,0,1
1529298209826510,-1,-4,3,-15,-1,-2,-3,2
1529298209826510,0,-7,-9,1,1,-6,1,-3
1529298209834345,3,3,-9,3,-3,1,-2,-3
1529298209834345,-2,-7,30,-14,-1,4,0,2
1529298209841465,-2,5,-7,6,-3,-1,-1,-3
1529298209841465,-2,5,-10,2,-3,-1,-1,-1
1529298209856679,0,3,-16,-5,2,0,0,-2
1529298209856679,-1,0,17,11,0,-1,0,-2
1529298209863969,0,4,1,4,1,-2,-1,-1
1529298209863969,-2,-16,-16,-14,-3,-1,-3,1
1529298209878934,1,0,-9,8,-1,0,-1,-2
1529298209878934,2,6,-8,-2,0,-1,-3,-3
1529298209886820,-2,-5,33,3,-3,-2,0,-1
1529298209886820,0,-10,-6,-1,-1,-2,-1,-2
1529298209894194,-2,7,7,-10,0,-3,-2,0
1529298209894194,-1,-9,-15,13,-1,-4,-1,-1
1529298209901926,2,-6,-31,-9,1,-3,-4,0
1529298209901926,-1,-5,6,13,-3,-4,-1,0
1529298209915906,-1,2,15,-2,-2,-4,-1,-2
1529298209915906,-2,-3,28,-3,0,0,0,-1
1529298209924094,-2,3,1,4,-1,-3,-3,0
1529298209924094,-1,7,-8,10,-4,-3,0,-2
1529298209939059,-1,0,-23,5,2,0,-1,0
1529298209939059,-1,0,-28,-1,-1,-4,-3,-1
1529298209946794,2,1,-7,6,-4,-24,-6,-1
1529298209946794,0,-1,12,4,0,-16,-15,-4
1529298209954026,1,-6,12,0,-1,-4,-3,0
1529298209954026,-5,-1,6,-8,-2,-1,0,1
1529298209961767,-1,-3,0,1,-1,8,-4,-2
1529298209961767,0,-9,-14,-7,2,0,2,-2
1529298209975738,-5,-8,10,3,0,6,3,1
1529298209975738,-2,4,12,-11,2,13,-5,0
1529298209983724,-3,-7,-10,-10,1,10,-4,-3
1529298209983724,0,-4,0,5,-3,6,-6,0
1529298209998644,-1,11,5,-3,0,8,6,0
1529298209998644,3,-7,-8,-3,-1,7,10,0
1529298210005626,8,9,-13,-3,-2,0,7,-1
1529298210005626,-1,26,6,-5,-4,5,9,1
1529298210013605,-1,1,7,-6,-1,7,-19,0
1529298210013605,5,-19,-10,-1,-5,-9,-10,-2
1529298210020586,-3,4,2,0,-1,4,11,0
1529298210020586,1,-9,16,-1,-4,8,17,0
1529298210036543,4,0,-7,-4,-2,-7,22,-2
1529298210036543,-19,1,-10,-1,-4,1,6,-1
1529298210043525,-4,16,-1,-3,1,19,-12,1
1529298210043525,0,-2,0,-2,2,25,3,2
1529298210058486,1,-8,10,1,3,-7,4,-2
1529298210058486,4,-11,-1,-2,-8,-45,5,-2
1529298210066463,2,10,6,-2,-3,3,11,-4
1529298210066463,0,-3,-5,-2,0,4,-10,-1
1529298210073445,-2,-2,0,2,-1,7,-14,2
1529298210073445,1,9,-4,-4,1,2,-8,0
1529298210081661,-1,-10,-9,0,-2,-19,-7,0
1529298210081661,-5,3,-2,2,0,-18,-11,-1
1529298210096898,-4,-4,-2,-1,-2,-10,-2,-2
1529298210096898,1,1,-6,-4,2,1,-2,-1
1529298210104085,-2,-10,-5,-3,-1,-6,-5,-3
1529298210104085,0,-3,0,-2,-4,-3,-1,-3
1529298210111799,-3,-1,-5,-2,-5,-2,4,1
1529298210111799,0,7,-2,1,3,6,-3,-1
1529298210118965,0,-8,-1,-6,-1,3,-1,0
1529298210118965,-2,-2,-3,0,-2,-8,-2,0
1529298210133930,-1,-3,-5,1,-1,-3,0,1
1529298210133930,0,3,-1,-1,1,8,-4,2
1529298210141789,-2,-7,1,-2,-1,0,-1,-2
1529298210141789,1,-5,1,1,-1,-6,-2,0
1529298210156194,-1,-1,0,-2,1,-1,-1,-1
1529298210156194,-4,-1,0,-1,-1,7,-2,-3
1529298210163895,-3,-2,1,0,2,-6,3,2
1529298210163895,-2,2,-1,-3,-1,-2,2,2
1529298210171477,-2,-4,-1,-3,-3,1,-2,-1
1529298210171477,1,-2,0,2,0,0,1,0
1529298210178733,-1,-5,-2,1,-2,1,0,-2
1529298210178733,-2,0,-2,1,0,3,0,0
1529298210193971,-1,-1,-2,-2,-1,-2,-2,-3
1529298210193971,0,-2,-2,0,-1,1,1,-3
1529298210200646,0,4,1,2,-1,-3,0,1
1529298210200646,-1,-3,-3,0,-1,-2,2,-1
1529298210216794,0,-2,-2,0,-2,-1,1,-1
1529298210216794,-1,3,3,-1,-2,2,0,-2
1529298210223567,1,0,3,-2,2,0,1,1
1529298210223567,-2,0,-4,-1,-3,-4,-1,0
1529298210231768,-2,-2,0,1,0,0,-5,-3
1529298210231768,0,2,0,-3,-2,3,-1,0
1529298210238813,0,-4,-2,-1,0,-4,-3,-2
1529298210238813,-1,-3,1,-2,-1,-5,2,-1
1529298210253794,-1,1,3,-1,-3,0,-3,1
1529298210253794,-3,-2,-3,0,0,-1,-2,0
1529298210261120,-1,-5,-5,-1,1,-2,1,-1
1529298210261120,-2,1,1,-1,-1,-2,0,-2
1529298210276245,0,-1,-3,2,-1,-1,1,2
