timestamp,emg1,emg2,emg3,emg4,emg5,emg6,emg7,emg8
1528188833444441,0,-2,-2,0,-1,-1,-2,-1
1528188833444441,0,-1,0,-1,1,3,0,-1
1528188833446436,-1,0,-1,0,0,0,0,0
1528188833446436,-2,0,0,-2,-1,-1,-2,-1
1528188833448431,1,0,0,-1,0,-2,0,2
1528188833448431,-2,-4,-2,-2,-2,2,2,0
1528188833450425,0,-2,-1,-1,-2,-3,-2,-2
1528188833450425,-2,-1,-1,0,1,-1,0,0
1528188833458404,0,-1,-1,0,2,2,1,0
1528188833458404,-1,1,-2,-1,0,-3,-1,-1
1528188833466384,0,-2,-2,-2,1,0,0,-2
1528188833466384,-1,-1,0,0,0,-3,0,0
1528188833482341,-1,0,0,0,1,1,-2,0
1528188833482341,-2,1,1,-1,0,-1,-2,0
1528188833487353,-1,-1,-1,-1,0,-1,-1,-1
1528188833487353,0,0,0,1,-1,0,0,-1
1528188833495305,-1,0,-1,0,-2,0,1,0
1528188833495305,2,-2,0,0,0,-2,-2,-1
1528188833517248,0,0,-2,0,0,0,0,0
1528188833517248,1,-2,0,-1,-1,-1,-2,1
1528188833518259,-1,2,0,-1,-1,-1,-1,1
1528188833518259,0,0,1,-1,2,-2,0,-1
1528188833533204,-1,0,1,0,-2,0,-3,-1
1528188833533204,-2,-1,-2,-2,-1,0,-2,-2
1528188833533204,-3,-2,0,-1,-1,0,-1,-1
1528188833533204,0,0,-1,-1,-1,0,0,-1
1528188833579083,-2,0,0,-1,-1,1,0,-1
1528188833579083,1,1,1,1,-1,-2,0,0
1528188833586063,-1,-1,1,0,1,-2,1,0
1528188833586063,-1,-1,0,0,-1,0,-2,0
1528188833587060,-1,-1,-1,-1,-2,-2,1,-1
1528188833587060,0,0,0,-1,0,-2,-1,0
1528188833588058,0,-1,-1,-1,0,1,0,0
1528188833588058,-2,-1,-1,-1,-1,1,-1,0
1528188833592047,-1,-1,-1,0,1,-1,-1,-2
1528188833592047,-2,-1,-1,-1,-1,-1,-1,-1
1528188833600025,-1,-2,-1,-2,-2,0,-2,-2
1528188833600025,1,0,0,-1,0,0,0,-1
1528188833607007,0,-2,-1,0,-1,1,-2,0
1528188833607007,0,1,0,-1,-1,-2,0,0
1528188833622963,-2,-1,0,-1,0,0,-1,-1
1528188833622963,0,-1,-1,-1,-1,-1,-2,-1
1528188833628948,0,-3,-1,-1,-1,-2,-1,1
1528188833628948,1,-2,0,0,-2,-1,-2,-1
1528188833652919,0,0,0,-1,-1,-2,1,0
1528188833652919,-1,0,-1,-2,-1,-1,0,-1
1528188833654896,-2,0,-1,0,0,3,-1,-1
1528188833654896,0,-1,0,0,-1,0,0,0
1528188833667903,-2,-2,-2,-2,0,0,-3,-1
1528188833667903,1,0,-2,-1,-1,-1,0,0
1528188833674876,-1,-1,-2,0,0,-2,0,0
1528188833674876,-2,0,0,-1,0,-1,-1,-1
1528188833690783,0,0,-2,-2,1,-2,1,-1
1528188833690783,-1,-2,0,-1,-1,-1,0,-1
1528188833692779,0,-1,0,0,-2,-2,0,-1
1528188833692779,-1,-1,-2,-1,-3,-2,-2,1
1528188833720703,-2,-1,-1,1,0,0,1,-2
1528188833720703,-3,0,0,0,-2,0,-3,-3
1528188833722698,0,-1,-1,-2,0,-2,1,-2
1528188833722698,-1,-1,-1,-1,1,-2,-1,0
1528188833727684,0,0,1,-1,-1,-1,0,0
1528188833727684,0,0,-2,-2,-1,-2,-2,-1
1528188833734665,-1,-1,-1,-1,-1,0,-1,0
1528188833734665,-1,1,-1,-1,-1,-2,-1,0
1528188833758617,-1,-1,0,0,0,-1,0,0
1528188833758617,-1,-2,-1,-1,0,0,0,0
1528188833759607,1,-2,0,0,0,-1,0,-1
1528188833759607,1,-1,-3,-1,0,2,-1,-1
1528188833773600,-2,-1,-1,-2,-1,0,-1,0
1528188833773600,1,1,0,0,0,-1,1,1
1528188833774606,0,0,-1,0,0,0,-1,1
1528188833774606,-1,1,-3,-1,-2,1,0,1
1528188833786553,-2,-2,0,-2,0,0,-2,-2
1528188833786553,0,-1,0,0,0,0,-1,-2
1528188833795540,0,-2,-1,-1,-2,-2,0,-3
1528188833795540,-1,-1,1,-1,0,-2,-1,0
1528188833825475,-1,2,0,0,1,-1,-2,0
1528188833825475,-3,0,-2,-1,-2,-2,1,1
1528188833827418,0,2,0,0,0,0,-3,-2
1528188833827418,-1,-2,-1,-1,-2,-3,-2,-1
1528188833833401,0,-2,-1,-1,0,0,0,-1
1528188833833401,-1,0,-2,0,0,1,0,-1
1528188833835396,-1,-2,-1,0,-2,-2,-1,-2
1528188833835396,1,0,0,-2,0,-1,0,0
1528188833863347,-1,0,-1,1,-1,0,-1,-2
1528188833863347,-1,-1,0,-2,-1,1,0,0
1528188833864346,0,0,-1,0,0,0,-1,-1
1528188833864346,-3,-3,1,-1,-1,0,-2,0
1528188833870344,-2,-1,0,-2,-1,0,0,-1
1528188833870344,1,0,-1,-1,-1,0,0,-1
1528188833872299,-1,0,-1,-1,0,0,-1,1
1528188833872299,0,-1,-1,-2,0,-1,-2,-1
1528188833901221,-2,-1,0,-2,-2,-2,0,1
1528188833901221,0,-2,-2,0,0,0,-1,-1
1528188833902217,0,0,-2,-1,-3,3,-2,0
1528188833902217,-1,0,-1,0,0,-1,-1,0
1528188833907246,0,1,0,0,0,-1,0,0
1528188833907246,-2,-3,-2,-1,0,0,-1,-1
1528188833916208,0,1,0,0,-1,0,0,-1
1528188833916208,-1,-1,0,0,-1,-1,0,-2
1528188833931197,1,1,0,-1,-1,-2,-1,2
1528188833931197,1,-1,-2,-1,1,-1,-1,-1
1528188833932156,-2,0,1,-1,-1,-3,-1,0
1528188833932156,0,-1,-2,1,-1,-1,0,-2
1528188833952086,0,2,1,0,-2,-1,-1,-2
1528188833952086,0,1,1,1,1,0,0,1
1528188833953082,-1,-2,-2,-1,0,-1,-1,0
1528188833953082,0,0,-1,0,-1,1,-2,1
1528188833975050,-1,-1,0,0,-2,1,-1,0
1528188833975050,0,0,1,0,0,0,-2,0
1528188833976035,-1,-1,0,-1,-2,-2,0,-2
1528188833976035,-1,-1,0,-1,0,-2,-2,-1
1528188833997989,-1,-1,-1,-1,0,-1,0,0
1528188833997989,-1,-1,0,0,0,1,0,-1
1528188833997989,-1,-1,-1,-2,-3,-1,0,0
1528188833997989,0,-1,1,1,0,0,0,-1
1528188834012961,1,-1,0,-1,-1,-2,-1,0
1528188834012961,-2,0,1,0,0,-2,-2,1
1528188834012961,0,-2,-2,-2,0,2,0,1
1528188834012961,0,1,-2,-2,-1,-3,-1,-1
1528188834034915,-2,0,-3,0,0,-1,-2,-1
1528188834034915,0,0,-1,0,-1,-3,0,-2
1528188834035861,-1,-2,-2,-1,1,-2,-1,0
1528188834035861,-2,-2,-2,-1,-2,0,0,1
1528188834049825,1,0,0,0,-1,-1,-2,0
1528188834049825,-1,-1,0,-1,-1,-2,-1,-1
1528188834050820,-2,-1,1,-1,1,0,-1,-2
1528188834050820,-1,-1,0,0,0,0,-2,0
1528188834072814,-1,-2,-2,0,-2,0,-1,-1
1528188834072814,-2,-1,-1,-1,-1,0,-1,0
1528188834072814,0,1,0,-1,0,0,-1,-3
1528188834072814,-1,-2,-3,-2,0,0,0,-2
1528188834103927,-1,0,-1,0,0,1,0,-2
1528188834103927,0,0,-2,0,-2,-2,-1,-1
1528188834103927,0,-1,-2,0,-1,-2,-2,2
1528188834103927,-1,1,0,0,0,1,1,0
1528188834109663,0,0,-1,-2,0,0,0,-1
1528188834109663,-2,-3,-2,-2,1,-1,1,-2
1528188834110663,0,-1,1,0,-1,-2,-2,-1
1528188834110663,-1,0,1,-1,0,-1,-1,-1
1528188834140581,-1,0,0,0,0,0,0,-1
1528188834140581,0,-1,0,-2,0,0,-1,1
1528188834141579,0,-1,0,1,1,0,0,1
1528188834141579,0,-1,0,-1,-3,1,-1,0
1528188834155540,1,0,0,-1,-1,-1,-1,0
1528188834155540,1,1,0,1,-1,-1,-2,-1
1528188834155540,1,0,-1,0,-1,-1,-2,-1
1528188834155540,0,-1,-1,0,0,0,-2,-1
1528188834177526,-1,-4,-1,-1,-1,0,-1,-1
1528188834177526,-1,0,0,-1,-2,-1,-2,0
1528188834178480,0,-1,0,0,0,0,1,-1
1528188834178480,-1,0,0,-2,1,-2,-2,-2
1528188834192441,-2,-1,0,0,0,-2,0,-1
1528188834192441,-1,0,0,0,-2,1,-1,-2
1528188834193438,0,-2,0,0,-1,-1,-1,0
1528188834193438,0,0,0,0,-1,0,-2,0
1528188834215433,-1,-2,-2,-1,0,2,1,-1
1528188834215433,0,-2,-1,-1,-1,-1,-1,0
1528188834215433,0,2,0,-1,-2,0,0,0
1528188834215433,-1,-1,0,0,0,-1,1,-1
1528188834230340,1,1,-1,-1,1,-1,-1,-2
1528188834230340,-1,-4,-3,0,-1,2,0,-1
1528188834231348,-1,1,-1,-1,0,0,-2,-2
1528188834231348,0,0,-2,-1,-1,-2,-1,1
1528188834252282,0,0,-1,-1,-1,-3,-3,-3
1528188834252282,1,-2,0,0,1,0,1,-2
1528188834253279,0,-1,0,0,0,-2,0,2
1528188834253279,0,0,0,0,-1,0,0,0
1528188834275220,0,0,-2,-1,0,-1,-2,1
1528188834275220,0,0,0,-1,-1,-1,0,1
1528188834282203,-1,-1,0,0,-3,-2,-2,-2
1528188834282203,-1,0,-1,-1,-1,0,0,-1
1528188834290180,-1,-1,-2,-2,0,0,0,-1
1528188834290180,-1,-2,-2,-2,0,1,-1,-1
1528188834291205,0,0,0,-1,-1,-1,0,1
1528188834291205,1,1,0,-2,0,-1,-1,-2
1528188834312123,-4,-2,0,-1,-1,1,0,-2
1528188834312123,-3,-3,0,-1,0,-2,-2,-1
1528188834313122,-1,-3,1,0,-1,-1,-1,0
1528188834313122,-1,-1,-1,-1,-1,-1,-2,-2
1528188834335060,-1,1,-1,-1,-1,-1,-1,0
1528188834335060,0,-1,0,-1,-1,1,0,0
1528188834336058,0,-1,-1,0,0,0,-1,0
1528188834336058,0,-1,0,-1,0,-1,0,1
1528188834350030,0,0,0,2,0,-1,-2,-2
1528188834350030,-2,0,-2,-1,-2,-1,0,-1
1528188834351023,0,-1,-2,-1,0,-1,-1,-1
1528188834351023,0,1,2,-2,-1,0,0,0
1528188834380966,0,-2,0,0,0,0,0,1
1528188834380966,1,-1,0,0,-2,-2,-2,-1
1528188834381988,-2,-2,0,-1,-2,1,1,0
1528188834381988,0,0,0,1,-2,1,0,0
1528188834394946,1,0,-1,0,-1,-4,-1,-1
1528188834394946,-1,1,-1,0,-1,-1,-1,-2
1528188834395899,-1,-1,-2,0,-2,-1,1,-2
1528188834395899,-2,-3,-1,1,0,-1,0,1
1528188834417875,-1,0,-1,1,-1,0,-1,-1
1528188834417875,0,0,0,0,0,0,1,0
1528188834418863,-1,4,0,-1,-1,-1,-2,-1
1528188834418863,-1,-1,-1,-1,0,-2,-1,0
1528188834432801,0,-2,-1,1,0,0,-1,-1
1528188834432801,0,0,-2,0,-1,1,-1,-2
1528188834433799,0,-1,0,-2,0,0,0,-2
1528188834433799,1,0,-1,-2,0,-1,-1,-2
1528188834454794,1,0,-1,-3,-1,0,1,0
1528188834454794,-2,0,0,-1,-3,-1,0,-1
1528188834455756,-1,0,-1,-1,0,0,0,0
1528188834455756,0,-1,-1,-2,-1,-3,0,-1
1528188834469746,3,-1,-1,-1,-1,-2,0,0
1528188834469746,0,0,1,1,0,0,-1,0
1528188834470698,-1,1,0,0,0,0,0,0
1528188834470698,0,0,1,0,0,0,0,0
1528188834492640,1,-1,-1,-1,-1,-1,0,1
1528188834492640,-1,1,-1,-1,1,0,-1,0
1528188834493637,-1,-2,0,-1,-1,-1,-1,0
1528188834493637,-1,0,-1,0,-1,-1,-2,1
1528188834523812,0,0,-1,-2,-2,0,-1,-2
1528188834523812,1,1,0,2,0,-4,0,0
1528188834523812,-1,-3,-2,0,0,-2,-2,0
1528188834523812,0,-1,-1,-3,0,-1,-1,-2
1528188834529791,1,-2,0,-1,-1,0,-3,0
1528188834529791,1,2,1,1,-1,0,-1,-2
1528188834530788,-1,-1,-1,-1,-1,0,0,-1
1528188834530788,-1,-1,0,1,0,1,-1,-2
1528188834554045,0,1,-1,1,0,0,-1,-1
1528188834554045,-1,-2,0,0,-1,-2,0,-2
1528188834554728,-1,1,-1,-1,0,-1,0,-2
1528188834554728,0,0,0,0,-1,0,0,0
1528188834575819,-1,0,-2,0,-3,-2,-2,0
1528188834575819,1,0,-1,-1,-1,-1,-1,-2
1528188834575819,-2,-3,0,-1,0,-1,-1,0
1528188834575819,1,1,1,0,-1,-1,0,-2
1528188834597610,-1,-1,1,0,-1,0,0,-1
1528188834597610,1,1,-2,-1,-1,0,0,-1
1528188834598608,-1,0,-1,-2,-2,0,-1,-1
1528188834598608,0,-2,-1,-1,1,0,0,0
1528188834612573,-2,-1,1,-1,-1,-2,1,-1
1528188834612573,-2,-2,0,-1,-1,-2,-2,1
1528188834613568,0,0,0,0,0,-1,-1,-1
1528188834613568,-2,-1,-1,0,-1,0,-1,-2
1528188834635519,-1,-2,1,-1,-1,-2,-1,0
1528188834635519,-1,0,0,0,-1,-1,-1,0
1528188834636600,-1,0,-2,-1,-2,-1,-1,0
1528188834636600,0,-2,-1,-2,0,-1,0,0
1528188834657450,1,0,-1,-1,0,-1,-1,-1
1528188834657450,-1,0,0,0,1,-1,-1,0
1528188834658449,-2,-1,0,-1,-1,1,-1,0
1528188834658449,-1,0,0,-1,0,0,0,0
1528188834672432,0,1,0,1,1,1,-1,-2
1528188834672432,0,-1,0,-1,0,-2,-1,-1
1528188834673408,0,-1,0,0,-1,0,0,1
1528188834673408,-1,-1,1,-2,-1,-2,-1,-2
1528188834695609,-2,-1,0,0,-1,-1,-1,-1
1528188834695609,1,1,0,0,1,-1,-1,-1
1528188834696347,-3,0,0,0,-1,-3,-1,1
1528188834696347,0,-1,-1,-2,-1,0,-1,-1
1528188834718288,0,1,-1,-1,-1,-1,-2,-1
1528188834718288,0,-2,-1,0,-2,-1,0,0
1528188834718288,0,-1,-2,-1,-2,-1,-1,0
1528188834718288,-1,0,-1,-1,1,1,0,-2
1528188834734246,1,-1,-1,-1,1,1,-3,0
1528188834734246,-1,0,-2,0,0,1,0,0
1528188834735499,-2,-1,-1,-2,0,-2,0,0
1528188834735499,-1,-2,-2,-1,-2,-1,1,-1
1528188834755455,0,-3,-1,-2,-2,-3,0,-1
1528188834755455,-2,-1,-2,0,0,0,0,0
1528188834756186,0,2,-1,0,0,1,1,2
1528188834756186,0,-1,-1,0,1,1,-1,-3
1528188834777401,-1,0,-1,-1,0,0,-2,-3
1528188834777401,-1,-1,-1,1,-1,0,-1,-1
1528188834778141,-1,-3,0,-1,-1,0,-2,0
1528188834778141,0,-2,0,0,-1,-1,-1,1
1528188834792093,-1,-1,-1,0,-2,-3,-1,-2
1528188834792093,0,1,0,-1,-2,1,0,-1
1528188834800070,0,-1,-1,0,1,-1,-1,-2
1528188834800070,-2,0,-1,-2,0,-2,-1,-1
1528188834815278,0,1,-1,0,0,0,-1,0
1528188834815278,0,0,0,0,1,2,1,0
1528188834816038,-1,0,-1,-1,1,1,1,-2
1528188834816038,0,-1,-2,-1,-1,-1,0,1
1528188834838219,-1,-2,-1,0,0,1,1,0
1528188834838219,1,2,0,-1,0,-1,-2,0
1528188834838219,-1,-1,0,1,-2,0,-1,0
1528188834838219,-1,1,0,-1,0,-2,0,1
1528188834852251,1,-2,-1,0,-1,-1,-1,-1
1528188834852251,1,0,0,-1,0,-1,-1,0
1528188834868137,1,0,0,1,-1,0,-1,-1
1528188834868137,-1,-1,-1,1,-2,0,-1,-1
1528188834874870,0,-2,-1,1,1,0,0,0
1528188834874870,-1,-2,-1,0,-1,-2,0,0
1528188834875868,0,0,-1,-2,1,-1,-1,0
1528188834875868,1,-1,0,-1,1,0,-1,0
1528188834905786,-1,-1,0,-1,-1,-2,0,1
1528188834905786,-1,-1,0,-1,1,-1,0,1
1528188834906788,0,1,0,-1,-1,1,0,0
1528188834906788,-2,-1,-1,0,-2,-1,-2,-2
1528188834911771,-1,-2,-1,-1,-2,-1,0,-1
1528188834911771,0,-1,0,-2,0,1,0,1
1528188834920046,-2,-2,-2,-1,0,1,0,-2
1528188834920046,-2,-2,-1,-1,-1,-1,-1,-2
1528188834943224,-2,1,-2,-1,1,-1,-1,0
1528188834943224,1,1,-1,0,-1,0,-1,0
1528188834943980,0,-1,-2,0,0,-1,0,0
1528188834943980,0,-1,0,-1,-1,0,-1,-2
1528188834957947,1,3,0,-2,0,-1,0,-1
1528188834957947,0,-4,-3,-1,-3,1,-1,0
1528188834957947,-1,0,0,0,0,0,-1,0
1528188834957947,1,-1,-1,1,-2,-1,-1,-1
1528188834973276,0,0,0,-1,-1,-1,-1,0
1528188834973276,0,0,-1,-1,-1,-1,-1,0
1528188834979934,0,0,1,-1,1,-1,-1,0
1528188834979934,-3,-2,-2,-2,-1,-2,-1,-2
1528188834994849,-1,-2,-1,-1,-1,0,-2,1
1528188834994849,-1,2,0,-1,0,0,0,-1
1528188835009808,0,-1,0,-1,-1,-1,-1,0
1528188835009808,0,-2,-2,-1,0,-1,-1,1
1528188835017784,-2,0,-1,0,-2,-3,0,-3
1528188835017784,-2,-3,-1,-1,0,0,-1,-1
1528188835018785,-1,-2,-1,-2,-1,1,1,-3
1528188835018785,0,-1,-2,-1,-1,-2,0,0
1528188835048710,-1,2,0,-1,-1,-1,0,0
1528188835048710,0,-1,1,1,0,0,1,0
1528188835048710,0,-1,-1,-2,-1,0,-1,-1
1528188835048710,2,-1,0,-1,0,-1,-2,0
1528188835055687,-2,-1,0,0,-1,-1,0,0
1528188835055687,0,-1,-2,-1,-1,-2,-1,-1
1528188835055687,-1,0,0,1,-2,-2,-1,-1
1528188835055687,1,0,-1,-1,0,0,0,-1
1528188835077887,-1,1,0,0,1,-2,0,0
1528188835077887,-1,1,1,1,1,0,0,0
1528188835078621,-2,-1,-1,-2,-1,0,1,-2
1528188835078621,-1,-1,-1,0,-1,-1,-1,0
1528188835092620,1,-1,0,-1,1,0,-1,-1
1528188835092620,0,-2,-1,0,0,-1,0,0
1528188835107547,-1,1,-1,-1,0,0,-2,-1
1528188835107547,0,0,-1,-3,-3,-1,-2,0
1528188835114525,0,-1,-3,0,-3,0,0,0
1528188835114525,0,-2,0,-2,0,-1,0,-1
1528188835115523,0,-1,-1,-1,-2,-1,0,-3
1528188835115523,-1,0,0,0,1,0,0,0
1528188835146471,0,-1,0,0,-3,-1,-2,0
1528188835146471,-3,0,-2,-1,-3,0,-1,0
1528188835146471,0,-3,-1,1,1,0,-1,-2
1528188835146471,0,0,-2,0,-1,-2,0,-1
1528188835160699,-2,-1,0,-1,0,-2,-1,0
1528188835160699,0,-2,-1,1,-2,-1,-1,0
1528188835161696,-2,-1,0,-2,-1,0,0,0
1528188835161696,-1,-1,0,-1,-1,0,0,-1
1528188835175948,1,-1,-1,-1,-1,0,0,-1
1528188835175948,0,0,-2,-3,-1,-1,-1,-1
1528188835176657,-2,-1,-2,-1,1,-1,-1,1
1528188835176657,0,0,-1,0,0,-1,0,0
1528188835198860,1,0,0,0,-2,1,0,0
1528188835198860,-3,-1,0,-1,1,1,0,-2
1528188835198860,-1,-1,0,-1,0,-1,-1,-2
1528188835198860,0,1,0,0,0,-2,-1,-1
1528188835220542,0,-1,0,-3,-1,0,0,0
1528188835220542,0,0,0,0,-1,-1,-2,2
1528188835221546,0,0,0,0,-2,1,-2,1
1528188835221546,-1,-1,-1,0,-1,-1,0,-1
1528188835236507,0,-2,-1,1,-3,-1,1,-1
1528188835236507,0,-2,-1,0,-1,0,0,-1
1528188835236507,0,-2,0,0,0,-1,0,0
1528188835236507,-1,0,-2,-2,0,-1,-1,-2
1528188835258681,-1,0,-1,0,1,0,-2,0
1528188835258681,0,-1,-2,-1,0,-2,0,0
1528188835259435,-3,-1,-1,-1,-1,-1,-1,0
1528188835259435,0,0,-2,0,-1,0,1,-1
1528188835280379,-1,-1,-1,-2,0,0,-1,-1
1528188835280379,-1,0,1,-1,0,0,-2,-1
1528188835281379,0,-2,0,0,-2,-3,0,-1
1528188835281379,-1,0,0,0,0,0,0,0
1528188835294341,0,-2,-2,0,-2,-2,0,-1
1528188835294341,-1,0,1,-1,-1,1,0,-1
1528188835303362,-1,0,0,0,1,-2,-1,-1
1528188835303362,-1,-1,-1,0,-2,-1,-3,0
1528188835318540,0,-1,-1,0,1,1,0,0
1528188835318540,-1,1,0,-1,-2,-1,-2,-2
1528188835319275,-1,-3,-1,-1,-1,-1,0,0
1528188835319275,-1,-1,-1,-2,-1,-1,-1,1
1528188835341216,1,0,-2,0,-1,0,-1,-1
1528188835341216,1,0,-1,-1,-1,0,-2,0
1528188835342247,1,-1,-1,-1,-2,-1,-1,0
1528188835342247,-1,-2,1,0,0,-2,-1,0
1528188835355482,-2,0,-1,-1,0,0,-1,-1
1528188835355482,-1,1,-1,-1,-1,0,0,0
1528188835355482,-1,-1,-1,0,-1,-1,0,0
1528188835355482,-1,-1,0,0,0,0,0,0
1528188835393632,0,-1,-1,0,-1,0,0,-2
1528188835393632,-2,-1,-1,-1,-1,0,0,-2
1528188835394377,-1,-1,-1,-1,0,-1,0,-1
1528188835394377,1,0,-1,0,-2,0,-2,-1
1528188835401406,-2,1,-1,0,-2,-2,-1,0
1528188835401406,-2,-1,0,-1,-1,-1,1,-2
1528188835402358,0,-2,0,1,0,-2,0,-1
1528188835402358,-1,0,0,-2,-1,-2,0,0
1528188835423705,-1,-1,-1,-3,0,1,-2,0
1528188835423705,-1,0,0,-1,-1,-2,0,-1
1528188835424298,0,-2,-1,0,-2,0,0,0
1528188835424298,0,-1,0,-1,0,0,0,-1
1528188835438612,-2,0,-1,-2,-1,0,0,0
1528188835438612,0,-1,-2,1,0,1,-1,-1
1528188835439259,0,0,-1,0,0,0,0,-1
1528188835439259,-1,-2,-2,-1,-2,-1,-2,-2
1528188835461204,0,1,-2,-1,1,1,0,-1
1528188835461204,-1,-1,-1,0,1,1,0,0
1528188835461204,1,-1,-1,1,-1,0,0,2
1528188835461204,-1,0,-1,-2,-3,-1,-2,-1
1528188835491153,-2,-2,-1,0,-1,-2,-1,-2
1528188835491153,-1,0,0,-3,0,0,-1,0
1528188835491153,-1,0,-3,-1,0,0,-2,0
1528188835491153,0,-1,1,0,0,-1,-1,1
1528188835498136,-1,-2,-2,-2,0,-1,0,0
1528188835498136,0,0,1,2,0,0,0,-1
1528188835500096,2,1,-1,-2,-1,-2,-2,-2
1528188835500096,0,-2,-2,0,0,-2,0,0
1528188835528066,0,-1,-1,-1,0,0,-1,0
1528188835528066,0,-2,-1,0,-2,-1,-1,-1
1528188835530015,0,0,0,-2,-2,-1,-1,0
1528188835530015,-1,0,0,-1,-1,2,-2,-1
1528188835534051,-2,0,0,0,-1,0,-1,0
1528188835534051,-1,-1,-3,-1,0,-1,-2,0
1528188835542980,1,0,2,0,-1,-1,1,0
1528188835542980,-3,-1,0,0,2,-1,-1,-2
1528188835557939,-3,0,-1,-1,-2,0,-1,0
1528188835557939,0,0,-2,-2,0,0,1,0
1528188835563978,-2,-1,-1,0,-1,0,-2,-1
1528188835563978,1,-1,-1,0,-2,-1,1,0
1528188835580938,-1,1,-1,-1,0,1,0,-2
1528188835580938,1,-1,1,-1,-2,1,-1,-1
1528188835582894,-1,-2,-2,0,-1,-1,-1,0
1528188835582894,0,0,-1,1,-1,0,-2,1
1528188835594841,0,0,0,-1,-3,0,-1,-1
1528188835594841,1,-1,-1,0,0,0,-1,-1
1528188835603836,0,-1,-1,0,-1,2,-1,0
1528188835603836,-1,0,-1,0,-1,-2,0,-2
1528188835617821,0,0,0,-1,0,0,-1,-1
1528188835617821,1,-2,-1,-3,0,-2,0,0
1528188835633763,-1,0,-1,1,-2,0,-1,0
1528188835633763,0,-1,-1,-2,-1,0,1,-1
1528188835640773,0,0,0,0,-1,-4,-2,-1
1528188835640773,-2,-1,0,1,-1,2,0,1
1528188835642765,1,-2,-3,-1,1,-3,1,1
1528188835642765,-1,-1,0,0,-2,0,-1,0
1528188835663711,-1,0,-1,-1,-1,1,0,-1
1528188835663711,1,0,-1,-2,0,-1,0,-2
1528188835664682,0,1,-2,0,-1,-1,1,0
1528188835664682,1,-2,1,0,-1,-1,0,-1
1528188835677674,-2,-2,-1,-1,1,-1,1,0
1528188835677674,-2,0,0,-1,0,-1,0,0
1528188835684655,-1,2,-1,-1,-1,1,-1,-2
1528188835684655,0,-2,-1,0,0,2,0,1
1528188835700558,-2,-1,1,0,-2,0,0,-1
1528188835700558,0,1,-1,-1,-1,-1,0,1
1528188835702555,-2,-1,-1,-1,0,0,-2,-2
1528188835702555,-4,-1,-2,0,-1,-2,-1,-2
1528188835714555,1,-1,0,-1,0,1,-1,-1
1528188835714555,0,-2,0,0,1,0,0,-1
1528188835723513,0,-1,-1,-1,0,-3,-1,1
1528188835723513,0,1,-1,0,-2,-1,0,-1
1528188835738502,0,-2,0,0,0,-1,-1,1
1528188835738502,0,-1,-2,0,0,-1,0,-2
1528188835739507,0,-2,0,-3,-1,0,-1,-1
1528188835739507,0,-2,-1,-1,0,-1,-1,0
1528188835760453,-2,0,0,0,-3,-1,-1,-2
1528188835760453,0,2,-1,0,-2,-1,-1,0
1528188835762392,0,0,1,0,-1,0,1,0
1528188835762392,-1,0,-2,0,0,-2,0,-2
1528188835774381,1,0,-2,-1,0,0,-1,0
1528188835774381,-3,0,-2,-2,-1,0,0,-2
1528188835783628,0,-1,-1,-1,0,-1,0,-2
1528188835783628,-2,0,-1,1,-1,1,-1,-1
1528188835806522,-2,-1,0,0,1,0,-1,-1
1528188835806522,-3,-2,-1,-1,-1,-1,0,-1
1528188835807523,-1,0,0,-3,-1,0,1,-1
1528188835807523,1,0,0,-1,-1,-1,-1,0
1528188835828466,0,-1,0,1,-1,-1,-1,-1
1528188835828466,-1,-1,-1,0,-2,-1,-2,-1
1528188835830462,-1,0,-1,0,0,0,-1,0
1528188835830462,0,0,2,0,0,0,0,0
1528188835835719,-1,0,-2,0,0,-3,-1,0
1528188835835719,1,-3,-1,0,1,-1,0,1
1528188835843461,-1,-1,-1,-1,-2,0,-2,-1
1528188835843461,1,-1,0,0,-1,0,0,0
1528188835873386,-2,2,1,-1,-1,-1,-1,-2
1528188835873386,0,-1,0,-3,0,1,0,-1
1528188835875520,-2,-1,-2,-2,0,0,0,1
1528188835875520,0,-2,-1,0,-1,-1,-2,-1
1528188835880531,0,0,0,0,-2,1,1,-1
1528188835880531,-1,1,0,-2,-1,-3,-1,-1
1528188835882357,-1,-1,-1,-3,1,0,0,-1
1528188835882357,-1,0,-1,1,0,-1,-1,-1
1528188835894624,1,-1,-1,-2,2,-2,0,-1
1528188835894624,-1,0,0,-1,0,0,-1,-2
1528188835910739,1,-1,0,-1,-3,1,0,-1
1528188835910739,-1,-1,1,-1,-1,0,-1,-1
1528188835917516,-1,-1,0,1,-1,0,1,0
1528188835917516,-1,-1,-1,0,-1,0,0,0
1528188835924781,0,1,1,0,-1,0,-2,0
1528188835924781,0,-2,-1,1,-1,0,-2,-1
1528188835941786,0,1,-2,0,0,-1,-1,0
1528188835941786,0,-1,-1,0,0,1,-1,1
1528188835947684,-2,-1,1,-1,-1,0,0,0
1528188835947684,0,0,-1,-1,-1,-1,-1,-2
1528188835954420,-1,-2,-2,-1,-1,0,-1,-1
1528188835954420,0,-1,0,1,-1,-4,-2,-2
1528188835963512,-1,0,2,0,-2,-3,-2,0
1528188835963512,0,-1,-3,-1,0,-1,-1,0
1528188835986650,0,-1,-2,-3,-2,-1,0,-1
1528188835986650,-2,0,0,-2,-2,-1,0,-1
1528188835987577,-1,-2,0,-1,-1,-1,-1,0
1528188835987577,-2,-1,0,0,-1,0,-2,-1
1528188836001577,-1,0,-1,0,-1,1,-1,-1
1528188836001577,-1,0,0,-2,0,1,-1,-2
1528188836002537,1,0,0,-1,-2,0,-2,0
1528188836002537,-1,-2,0,1,0,0,-1,-1
1528188836014507,-1,-1,0,-1,0,-3,0,-1
1528188836014507,0,2,0,-1,-1,0,2,-1
1528188836023480,0,0,1,0,1,-3,-1,0
1528188836023480,-2,0,-2,-1,0,0,0,0
1528188836046677,0,0,0,-2,-3,-1,-1,-3
1528188836046677,0,1,0,0,-1,1,1,-1
1528188836046677,0,1,0,0,-1,1,1,-1
1528188836046677,0,1,0,0,-1,1,1,-1
1528188836046677,0,1,0,0,-1,1,1,-1
1528188836046677,0,1,0,0,-1,1,1,-1
1528188836046677,0,1,0,0,-1,1,1,-1
1528188836046677,0,1,0,0,-1,1,1,-1
1528188836046677,0,1,0,0,-1,1,1,-1
1528188836046677,0,1,0,0,-1,1,1,-1
1528188836046677,0,1,0,0,-1,1,1,-1
1528188836046677,0,1,0,0,-1,1,1,-1
1528188836046677,0,1,0,0,-1,1,1,-1
1528188836046677,0,1,0,0,-1,1,1,-1
1528188836046677,0,1,0,0,-1,1,1,-1
1528188836046677,0,1,0,0,-1,1,1,-1
1528188836046677,0,1,0,0,-1,1,1,-1
1528188836046677,0,1,0,0,-1,1,1,-1
1528188836046677,0,1,0,0,-1,1,1,-1
1528188836046677,0,1,0,0,-1,1,1,-1
1528188836046677,0,1,0,0,-1,1,1,-1
1528188836046677,0,1,0,0,-1,1,1,-1
1528188836046677,0,1,0,0,-1,1,1,-1
1528188836046677,0,1,0,0,-1,1,1,-1
1528188836046677,0,1,0,0,-1,1,1,-1
1528188836046677,0,1,0,0,-1,1,1,-1
1528188836046677,0,1,0,0,-1,1,1,-1
1528188836046677,0,1,0,0,-1,1,1,-1
1528188836046677,0,1,0,0,-1,1,1,-1
1528188836046677,0,1,0,0,-1,1,1,-1
1528188836046677,0,1,0,0,-1,1,1,-1
1528188836046677,0,1,0,0,-1,1,1,-1
1528188836046677,0,1,0,0,-1,1,1,-1
1528188836046677,0,1,0,0,-1,1,1,-1
1528188836046677,0,1,0,0,-1,1,1,-1
1528188836046677,0,1,0,0,-1,1,1,-1
1528188836046677,0,1,0,0,-1,1,1,-1
1528188836046677,0,1,0,0,-1,1,1,-1
1528188836046677,0,1,0,0,-1,1,1,-1
1528188836046677,0,1,0,0,-1,1,1,-1
1528188836046677,0,1,0,0,-1,1,1,-1
1528188836046677,0,1,0,0,-1,1,1,-1
1528188836046677,0,1,0,0,-1,1,1,-1
1528188836046677,0,1,0,0,-1,1,1,-1
1528188836046677,0,1,0,0,-1,1,1,-1
1528188836046677,0,1,0,0,-1,1,1,-1
1528188836046677,0,1,0,0,-1,1,1,-1
1528188836046677,0,1,0,0,-1,1,1,-1
1528188836046677,0,1,0,0,-1,1,1,-1
1528188836046677,0,1,0,0,-1,1,1,-1
1528188836046677,0,1,0,0,-1,1,1,-1
1528188836046677,0,1,0,0,-1,1,1,-1
1528188836046677,0,1,0,0,-1,1,1,-1
1528188836046677,0,1,0,0,-1,1,1,-1
1528188836046677,0,1,0,0,-1,1,1,-1
1528188836046677,0,1,0,0,-1,1,1,-1
1528188836046677,0,1,0,0,-1,1,1,-1
1528188836046677,0,1,0,0,-1,1,1,-1
1528188836046677,0,1,0,0,-1,1,1,-1
1528188836046677,0,1,0,0,-1,1,1,-1
1528188836046677,0,1,0,0,-1,1,1,-1
1528188836046677,0,1,0,0,-1,1,1,-1
1528188836046677,0,1,0,0,-1,1,1,-1
1528188836046677,0,1,0,0,-1,1,1,-1
1528188836046677,0,1,0,0,-1,1,1,-1
1528188836046677,0,1,0,0,-1,1,1,-1
1528188836046677,0,1,0,0,-1,1,1,-1
1528188836046677,0,1,0,0,-1,1,1,-1
1528188836046677,0,1,0,0,-1,1,1,-1
1528188836046677,0,1,0,0,-1,1,1,-1
1528188836046677,0,1,0,0,-1,1,1,-1
1528188836046677,0,1,0,0,-1,1,1,-1
1528188836046677,0,1,0,0,-1,1,1,-1
1528188836046677,0,1,0,0,-1,1,1,-1
1528188836046677,0,1,0,0,-1,1,1,-1
1528188836046677,0,1,0,0,-1,1,1,-1
1528188836046677,0,1,0,0,-1,1,1,-1
1528188836046677,0,1,0,0,-1,1,1,-1
1528188836046677,0,1,0,0,-1,1,1,-1
1528188836046677,0,1,0,0,-1,1,1,-1
1528188836046677,0,1,0,0,-1,1,1,-1
1528188836046677,0,1,0,0,-1,1,1,-1
1528188836046677,0,1,0,0,-1,1,1,-1
1528188836046677,0,1,0,0,-1,1,1,-1
1528188836046677,0,1,0,0,-1,1,1,-1
1528188836046677,0,1,0,0,-1,1,1,-1
1528188836046677,0,1,0,0,-1,1,1,-1
1528188836046677,0,1,0,0,-1,1,1,-1
1528188836046677,0,1,0,0,-1,1,1,-1
1528188836046677,0,1,0,0,-1,1,1,-1
1528188836046677,0,1,0,0,-1,1,1,-1
1528188836046677,0,1,0,0,-1,1,1,-1
1528188836046677,0,1,0,0,-1,1,1,-1
1528188836046677,0,1,0,0,-1,1,1,-1
1528188836046677,0,1,0,0,-1,1,1,-1
1528188836046677,0,1,0,0,-1,1,1,-1
1528188836046677,0,1,0,0,-1,1,1,-1
1528188836046677,0,1,0,0,-1,1,1,-1
1528188836046677,0,1,0,0,-1,1,1,-1
1528188836046677,0,1,0,0,-1,1,1,-1
1528188836046677,0,1,0,0,-1,1,1,-1
1528188836046677,0,1,0,0,-1,1,1,-1
1528188836046677,0,1,0,0,-1,1,1,-1
1528188836046677,0,1,0,0,-1,1,1,-1
1528188836046677,0,1,0,0,-1,1,1,-1
1528188836046677,0,1,0,0,-1,1,1,-1
1528188836046677,0,1,0,0,-1,1,1,-1
1528188836046677,0,1,0,0,-1,1,1,-1
