timestamp,emg1,emg2,emg3,emg4,emg5,emg6,emg7,emg8
1528189063649671,-1,-1,0,0,0,0,0,0
1528189063649671,0,-3,0,-1,-1,-1,-2,-1
1528189063658646,-1,-1,-1,-2,-2,-1,-1,-1
1528189063658646,-1,-1,-2,0,0,-1,-1,1
1528189063660641,0,-2,-1,-2,-1,0,0,-1
1528189063660641,-1,0,-1,0,-1,-1,0,0
1528189063681586,0,1,0,1,0,2,-2,-1
1528189063681586,-2,-1,-1,0,0,-1,0,-1
1528189063682583,0,-1,0,-2,-2,-2,-1,-1
1528189063682583,-1,-1,-1,0,-1,-2,-2,-1
1528189063695548,0,1,0,-1,1,-1,-1,-1
1528189063695548,-2,0,-2,-2,-1,0,-1,-1
1528189063710509,-1,-2,-1,0,-1,-1,-1,0
1528189063710509,0,-2,-2,-1,1,-1,0,-1
1528189063726506,0,-1,0,-1,-1,-3,-1,0
1528189063726506,0,-2,-2,0,0,0,-2,-1
1528189063728473,-1,0,-2,0,-1,0,-1,-2
1528189063728473,1,1,2,0,-2,-2,-1,-2
1528189063741425,1,0,1,1,-1,0,0,0
1528189063741425,0,-4,-2,-1,-2,-1,-2,-1
1528189063743420,-2,3,1,0,0,-1,-1,-1
1528189063743420,-1,-2,-1,-2,-1,-2,-1,-1
1528189063764374,-1,0,0,-1,-1,1,-1,-1
1528189063764374,-1,1,0,0,0,1,0,-1
1528189063765372,0,-3,-2,-1,-1,-1,0,1
1528189063765372,0,-2,-1,0,1,1,-1,0
1528189063778327,0,3,-1,-1,-1,-2,0,-1
1528189063778327,-3,2,-1,0,-1,0,0,1
1528189063802263,-2,-2,-2,-2,-2,0,-1,0
1528189063802263,0,1,-1,0,-1,0,0,0
1528189063802263,-1,0,0,-1,0,-1,-2,0
1528189063802263,-1,-3,-2,0,0,0,-1,0
1528189063824205,0,3,2,0,0,-1,2,-1
1528189063824205,1,1,0,-1,-1,-1,1,-1
1528189063825219,-1,-1,0,-1,0,-1,1,0
1528189063825219,-1,-3,-2,0,0,-1,-1,-2
1528189063827197,1,-3,0,0,-1,0,-1,0
1528189063827197,-1,-2,-2,0,-1,0,0,0
1528189063846146,1,2,-2,-2,-1,0,-1,0
1528189063846146,-2,0,0,-1,-1,0,-1,0
1528189063848157,0,1,-2,-1,0,0,0,-1
1528189063848157,0,-1,0,-1,-1,-2,0,-1
1528189063861105,0,1,0,1,-1,0,-1,-1
1528189063861105,-1,-1,-1,0,-2,0,-1,-1
1528189063863103,-1,1,0,-1,-2,0,0,-1
1528189063863103,0,1,2,-1,0,0,0,-1
1528189063875068,-1,-1,-3,-1,-2,-2,0,0
1528189063875068,-1,0,-2,-1,-1,-1,-1,-1
1528189063884063,0,0,0,-1,0,0,-1,-1
1528189063884063,-2,-5,-5,-1,-1,-2,-1,-1
1528189063898007,-1,-2,0,-1,0,0,-1,-2
1528189063898007,-1,3,3,1,-1,-1,0,-1
1528189063927927,1,3,0,-1,0,-1,-1,0
1528189063927927,0,1,-1,0,1,0,-1,1
1528189063942886,1,-3,0,-1,-1,0,-2,-1
1528189063942886,0,3,3,-1,0,1,1,0
1528189063953858,-1,-1,-2,1,-1,-1,-1,0
1528189063953858,0,-2,0,0,-1,0,-2,-2
1528189063953858,-1,0,-1,-1,-2,-1,-1,0
1528189063953858,-1,-2,0,-1,-2,-2,0,-1
1528189063959843,0,-1,-1,0,1,0,-1,1
1528189063959843,0,0,0,-1,-1,-2,0,0
1528189063959843,-2,-2,-2,-1,1,0,-1,-1
1528189063959843,0,-2,-2,0,0,0,-3,-1
1528189063961837,1,-3,-1,0,-1,-1,-1,0
1528189063961837,0,-1,0,1,0,0,0,0
1528189063981784,-1,-2,-1,1,-1,-1,0,-1
1528189063981784,-1,-4,-3,-2,-1,1,-1,2
1528189063982781,-1,-1,0,-1,0,-1,0,-2
1528189063982781,1,-1,-1,-2,0,1,0,-3
1528189063996743,-1,0,-1,0,-1,-1,-2,0
1528189063996743,0,-1,-2,0,-1,0,0,-1
1528189064003724,-1,-2,-1,0,-1,1,-1,-2
1528189064003724,0,3,0,-2,0,-3,0,0
1528189064041862,-1,-2,-1,-1,-1,-1,-1,-1
1528189064041862,-2,-3,-4,-2,-1,0,-1,0
1528189064043617,-2,0,0,0,1,-1,0,0
1528189064043617,-1,2,2,1,-1,-1,0,-2
1528189064048604,0,-1,-2,0,0,0,1,0
1528189064048604,0,-1,0,0,-1,-1,-1,0
1528189064050599,0,0,-2,-1,-2,0,-1,-1
1528189064050599,0,-3,-1,-1,-2,-1,-2,0
1528189064055587,-1,-6,-5,-3,-1,-1,0,-1
1528189064055587,0,5,3,-1,0,-1,-2,-2
1528189064064562,0,3,1,1,-1,1,0,-1
1528189064064562,-2,-8,-6,-1,0,0,-1,-2
1528189064086503,1,1,0,0,0,-1,-2,-2
1528189064086503,-1,2,0,-1,-2,-2,0,0
1528189064088503,0,-3,-2,-1,1,-1,0,-1
1528189064088503,-2,-4,-2,-1,-1,0,-1,0
1528189064101463,-3,-2,1,-1,-1,-1,0,0
1528189064101463,-1,1,-1,0,-1,0,0,0
1528189064103458,-1,0,0,0,-1,-1,-1,-1
1528189064103458,1,2,2,-1,-2,0,-2,-1
1528189064115426,-1,0,1,-1,0,0,-2,0
1528189064115426,-1,-1,-1,-1,-1,-1,0,-1
1528189064124402,-2,-8,-5,-2,0,-1,0,-1
1528189064124402,1,3,0,-2,0,1,-1,-1
1528189064139365,0,9,4,0,0,0,-1,0
1528189064139365,2,0,2,-1,-1,-1,-1,-1
1528189064140359,0,-3,-2,0,0,-1,0,-1
1528189064140359,-1,-6,-4,-1,0,-1,-1,-1
1528189064161304,0,0,-1,-1,0,-1,0,-1
1528189064161304,-1,2,-1,0,-2,0,-1,2
1528189064163298,-1,-1,-1,-2,-2,0,-1,-2
1528189064163298,-1,-2,-1,-1,0,-1,-1,0
1528189064184242,0,0,0,0,0,-1,0,-1
1528189064184242,1,1,2,0,0,-1,-1,0
1528189064185240,0,1,0,0,0,-2,-2,-2
1528189064185240,0,-1,-2,1,-1,-2,0,-1
1528189064206183,1,0,0,-1,-1,-1,-2,0
1528189064206183,-1,-1,0,0,-1,-2,-1,-1
1528189064208178,-3,-8,-4,-1,-1,0,-1,0
1528189064208178,-2,3,2,-2,0,0,0,-1
1528189064221151,0,4,-1,-1,-1,0,0,0
1528189064221151,0,0,-1,-1,0,-1,2,0
1528189064223138,0,-3,-1,-2,0,-1,0,1
1528189064223138,-1,-2,-4,-1,-1,0,1,0
1528189064251063,-1,-1,1,0,0,1,-1,0
1528189064251063,1,4,3,0,1,0,0,-3
1528189064253057,0,-1,-1,-2,0,1,-1,-1
1528189064253057,-1,-7,-2,-1,1,-1,0,-2
1528189064274056,-1,5,0,0,-1,0,-1,-2
1528189064274056,-2,0,-1,-1,0,-1,-1,1
1528189064276056,-1,1,2,0,0,-1,-1,-1
1528189064276056,-2,0,-1,-1,-1,0,-1,0
1528189064280983,-1,-3,-3,0,-2,1,0,1
1528189064280983,0,4,2,-1,0,-1,-1,0
1528189064296941,0,0,-2,-2,0,-1,0,-1
1528189064296941,0,0,1,0,-1,0,-1,1
1528189064297938,-1,-2,0,1,-1,0,1,0
1528189064297938,-1,-1,-2,1,-1,-1,-1,0
1528189064319880,-3,-1,-3,0,-2,-1,0,-3
1528189064319880,0,1,4,0,0,0,-1,-1
1528189064319880,1,2,0,0,0,0,1,0
1528189064319880,0,-1,-3,-1,-1,-1,0,-3
1528189064321875,-1,-2,-1,-2,-1,-2,-1,-1
1528189064321875,0,-1,-1,-1,-1,0,-1,-1
1528189064341875,0,1,0,0,-1,-1,-1,0
1528189064341875,0,-2,-1,-2,0,0,0,1
1528189064342819,-1,-3,-1,1,1,-1,1,0
1528189064342819,-1,0,2,-1,0,-1,-1,0
1528189064354787,1,0,1,-1,0,0,-1,-1
1528189064354787,1,0,0,0,0,-1,0,0
1528189064371742,0,0,0,-1,-1,1,-1,1
1528189064371742,-1,0,0,-1,-2,-2,0,-1
1528189064378722,-3,0,0,-1,0,0,-1,0
1528189064378722,-1,-5,-1,1,0,-1,-2,-1
1528189064384707,-1,3,1,-2,1,-1,-2,-1
1528189064384707,0,1,-2,-2,-2,-1,0,-1
1528189064401660,1,0,-1,-2,-1,-1,-1,0
1528189064401660,-1,-2,-1,1,0,-2,-1,-1
1528189064402658,0,-2,0,-1,-1,-1,0,-1
1528189064402658,1,3,1,-1,-1,-2,0,-2
1528189064415889,0,0,-1,0,0,-1,0,-2
1528189064415889,0,-1,-1,-1,-1,0,0,-3
1528189064439559,-1,-3,-1,-2,0,-1,-2,0
1528189064439559,-1,-1,-3,-2,-1,0,1,0
1528189064446834,0,1,1,0,0,-1,-1,0
1528189064446834,1,0,-2,-1,0,-1,-1,0
1528189064448859,2,-1,0,-1,-2,-2,1,-2
1528189064448859,1,-1,0,0,-1,-1,0,-2
1528189064460768,1,-1,0,0,-1,1,-3,0
1528189064460768,0,0,0,-2,-2,0,-1,-1
1528189064469675,0,-6,-3,0,-2,0,1,-1
1528189064469675,0,0,0,-1,0,1,-1,-1
1528189064484643,1,6,1,0,-1,-1,0,1
1528189064484643,0,1,1,-1,1,0,-2,0
1528189064486434,1,-1,0,1,0,-1,-1,-1
1528189064486434,-1,-1,-2,-1,-1,0,-3,0
1528189064507068,-2,-3,-3,0,1,0,0,-1
1528189064507068,-2,1,-1,-1,-1,-1,0,-1
1528189064507703,0,-1,0,-2,-1,0,0,-1
1528189064507703,-2,-1,0,-2,-1,-1,-1,0
1528189064528104,1,-1,-1,0,-1,0,-1,-1
1528189064528104,-1,1,-1,-1,-1,0,-1,-1
1528189064536927,-2,-4,-2,0,-1,-2,-1,-1
1528189064536927,0,1,-1,1,-1,-2,0,0
1528189064551385,-1,0,0,0,-1,-1,0,0
1528189064551385,0,-3,0,-1,-2,1,-1,0
1528189064553412,0,0,-1,0,0,-2,0,-2
1528189064553412,0,-1,-3,0,0,-1,1,0
1528189064574342,-1,0,-2,-2,-1,1,-1,0
1528189064574342,-1,0,0,-2,-1,0,0,0
1528189064575330,-2,1,0,-1,-2,0,-1,0
1528189064575330,-1,-2,1,-1,-1,-1,0,0
1528189064580620,-1,-1,-1,-2,0,-2,-1,-2
1528189064580620,-1,0,-1,0,0,-1,0,1
1528189064589282,-1,1,0,-1,-2,-2,-1,0
1528189064589282,1,-1,0,0,-1,-1,0,-1
1528189064604242,1,-1,-1,1,0,1,-2,-1
1528189064604242,0,-1,-1,-1,0,-1,1,0
1528189064605286,0,1,0,0,-1,-1,0,0
1528189064605286,-2,1,1,-1,1,-1,1,-3
1528189064634162,0,-1,0,0,-2,-2,1,0
1528189064634162,0,0,-1,-2,-1,-1,0,0
1528189064635160,1,-1,0,-2,-1,-1,-2,1
1528189064635160,0,-1,1,-1,0,-1,-2,-1
1528189064640509,-2,-2,1,0,0,0,0,-1
1528189064640509,-2,0,0,0,0,2,0,0
1528189064649488,-2,1,0,-1,-1,0,0,-1
1528189064649488,2,0,-1,-2,0,2,-2,0
1528189064663451,0,-2,-2,0,0,0,1,1
1528189064663451,1,-1,-1,0,1,-1,1,-2
1528189064665447,0,0,0,-1,-1,-1,-1,-1
1528189064665447,0,0,-1,1,-2,-2,-2,-2
1528189064694815,1,2,0,-1,0,-1,0,1
1528189064694815,0,0,-2,-2,-1,0,1,0
1528189064696433,-1,-1,-1,-1,-2,-1,0,1
1528189064696433,0,-4,-1,-1,-2,-1,-2,-1
1528189064700800,-1,-2,-1,0,1,-1,-1,0
1528189064700800,-1,0,-2,-2,-1,0,-1,1
1528189064708961,0,-1,-1,-1,-2,-1,1,-2
1528189064708961,-1,-1,0,-1,-1,-2,-1,1
1528189064724592,-1,0,1,1,-2,-1,0,-1
1528189064724592,-2,-4,0,0,1,-2,-1,2
1528189064737924,0,0,0,-1,1,-1,-1,-1
1528189064737924,0,0,0,0,0,-1,-1,-2
1528189064747201,0,-1,-2,-1,-1,0,-2,-1
1528189064747201,0,-2,0,0,-1,-1,-1,0
1528189064747899,0,2,1,0,0,-1,-2,0
1528189064747899,-3,-1,-3,0,-1,-1,-1,-2
1528189064760426,-2,-1,-1,-1,-1,0,2,-1
1528189064760426,-2,1,-1,-1,-1,-1,0,-1
1528189064785298,-1,-2,-1,-3,0,0,-1,-1
1528189064785298,-1,-3,-1,-1,-1,-3,0,2
1528189064785298,0,0,1,-2,1,0,-2,-1
1528189064785298,0,0,0,-1,-2,0,-2,-2
1528189064787103,-1,0,-1,-1,0,1,1,-1
1528189064787103,1,-2,-2,0,-2,-2,-1,0
1528189064806683,-1,-1,-1,-1,0,-1,0,0
1528189064806683,-1,0,-1,1,-1,-1,-1,-2
1528189064808328,-1,1,-1,-1,0,-1,-3,-1
1528189064808328,-2,1,0,0,-1,0,1,-2
1528189064829533,0,-1,0,-2,0,-1,-1,-2
1528189064829533,0,-2,0,1,-1,0,0,-1
1528189064830542,-2,-2,1,1,1,-1,0,0
1528189064830542,-1,-2,0,0,0,-1,0,0
1528189064844468,-1,-1,-1,-1,0,0,0,-1
1528189064844468,-1,0,-2,-1,0,-1,1,0
1528189064845229,0,-1,-2,-1,-1,1,-2,0
1528189064845229,0,-2,0,0,-2,0,-1,0
1528189064874448,-3,-3,-1,0,-1,0,0,-2
1528189064874448,-1,0,0,-1,-1,-1,0,0
1528189064875224,0,-1,0,-1,-1,1,1,2
1528189064875224,0,1,-1,-2,0,1,-2,0
1528189064880433,0,-4,-4,-1,-3,-1,0,1
1528189064880433,0,1,-1,-1,1,-2,1,-1
1528189064895346,0,5,2,0,-1,-2,0,-3
1528189064895346,1,1,-1,0,0,-2,0,0
1528189064903135,0,-3,-1,-2,0,-1,0,0
1528189064903135,0,-4,-3,-3,0,0,-1,1
1528189064910423,0,0,-1,-2,0,-1,-2,-2
1528189064910423,0,1,0,-1,-2,0,-1,-2
1528189064927244,-1,1,0,-2,-1,0,0,-1
1528189064927244,-1,0,-2,0,0,-1,0,-2
1528189064928071,1,-2,-2,0,-1,0,1,1
1528189064928071,-1,-1,-1,-1,0,-1,0,-1
1528189064940346,-1,0,-1,-1,0,-1,-2,0
1528189064940346,-1,0,0,1,-1,0,-1,-2
1528189064949052,0,0,1,1,-1,-2,0,0
1528189064949052,-2,-1,-2,0,0,-1,-2,0
1528189064972141,-1,-1,1,1,-2,-1,-1,0
1528189064972141,-1,-2,0,0,-2,-1,-1,-1
1528189064972953,-2,-2,-2,-1,-1,-1,0,-1
1528189064972953,-1,0,0,0,2,0,0,-1
1528189064994153,0,-1,-3,-1,-2,-1,0,-1
1528189064994153,-1,0,0,-1,-1,-1,-1,-1
1528189064995886,-2,-3,0,-1,1,0,0,0
1528189064995886,-1,-2,-1,-2,-1,1,0,-3
1528189065009114,1,-1,-1,-1,1,-1,-1,-1
1528189065009114,0,-1,0,0,0,0,-1,-1
1528189065015096,0,0,-2,-1,0,0,-1,0
1528189065015096,1,-1,0,0,0,-1,0,0
1528189065023958,0,0,0,-1,-1,-2,-1,0
1528189065023958,-2,-1,-1,0,0,-1,1,0
1528189065038038,0,-1,-1,0,-1,0,-1,0
1528189065038038,-1,-1,-2,1,-1,-1,-1,-1
1528189065046779,-1,-1,-1,-3,-2,0,-2,0
1528189065046779,0,0,0,-2,-1,-1,0,0
1528189065047749,-1,0,-1,0,-1,0,0,-1
1528189065047749,0,-1,-1,-2,0,-1,0,-2
1528189065068951,-1,-1,1,-1,-1,-1,-1,-1
1528189065068951,-1,1,-1,0,-1,-1,0,-1
1528189065070687,0,1,-1,-1,0,-1,0,-1
1528189065070687,-1,0,0,0,0,1,-1,0
1528189065082658,0,-1,-1,-1,-2,-1,-1,-1
1528189065082658,-1,-2,0,-1,0,0,-2,-2
1528189065091645,-2,0,0,-1,-1,0,0,0
1528189065091645,0,0,-1,-1,-1,-2,-2,-1
1528189065107235,-1,-1,0,0,-1,-1,1,1
1528189065107235,-1,-1,0,0,0,1,-2,1
1528189065108073,0,0,0,-1,-1,-2,0,-1
1528189065108073,-1,-1,0,-1,-2,-1,-1,-1
1528189065129048,-3,0,-2,0,-1,-2,0,-1
1528189065129048,0,-2,-2,0,-2,-1,0,-1
1528189065131289,-2,0,0,-1,0,-1,-2,0
1528189065131289,-1,-1,0,-1,-2,-1,0,0
1528189065152335,0,0,0,-1,0,0,-1,-1
1528189065152335,1,-1,-1,-2,0,-1,0,0
1528189065153263,2,-1,-1,0,0,0,0,-1
1528189065153263,-1,0,-1,-1,-1,-1,0,-2
1528189065167060,0,-1,0,-1,1,2,0,-2
1528189065167060,-1,0,-1,0,-1,-1,2,0
1528189065167674,1,0,-1,-1,0,1,-1,-1
1528189065167674,-2,0,-1,-1,0,-1,-1,0
1528189065203582,0,1,-1,2,-1,-1,-1,-1
1528189065203582,-1,1,0,-1,0,-3,-1,0
1528189065205573,-1,-1,0,-1,-1,0,-2,0
1528189065205573,-2,-2,0,-2,-1,-2,-1,-2
1528189065213760,-1,-2,-1,-1,-1,-1,-1,0
1528189065213760,0,-1,-1,0,-1,-1,-2,0
1528189065215778,0,-1,-1,-1,-1,-1,-1,-1
1528189065215778,0,1,0,-1,0,-2,-1,-2
1528189065218768,-1,-1,-2,0,1,-1,0,0
1528189065218768,0,-1,0,1,-1,1,-1,0
1528189065241740,0,-1,0,-3,0,-1,1,0
1528189065241740,-2,-3,0,0,-1,1,-1,-1
1528189065249674,-1,3,2,0,-1,-1,1,-2
1528189065249674,1,1,-1,-1,-2,0,0,0
1528189065250514,0,0,0,1,0,2,1,-1
1528189065250514,-1,-2,-2,-1,-1,0,0,0
1528189065256480,-1,-2,-2,-2,-1,-1,0,-1
1528189065256480,-1,-1,-1,0,-1,0,-1,-1
1528189065269794,0,0,-1,-1,0,-2,1,1
1528189065269794,-2,-1,0,0,0,2,1,-1
1528189065286710,1,-1,-2,1,-1,-1,-1,-1
1528189065286710,-1,1,0,0,0,-2,-1,-3
1528189065289705,-3,-1,0,-2,-1,-1,-2,0
1528189065289705,-1,0,-1,-1,-2,0,0,-1
1528189065301938,1,-1,0,0,-1,-1,0,0
1528189065301938,0,-1,0,-1,0,-1,-1,0
1528189065302668,0,0,-1,0,-1,0,0,1
1528189065302668,0,0,0,-1,-1,0,0,1
1528189065315893,-2,-2,-1,-2,0,-1,-1,-1
1528189065315893,0,-1,-1,-1,0,0,1,0
1528189065322876,0,0,0,0,0,0,-1,0
1528189065322876,0,1,-2,1,-2,-2,0,-1
1528189065338719,-3,-4,-2,-2,-1,-1,0,-1
1528189065338719,0,2,3,-1,-1,-1,-3,0
1528189065362588,0,1,0,0,0,-2,-1,0
1528189065362588,0,-1,-2,1,-1,1,0,-1
1528189065363505,-1,-1,-1,1,-1,-2,0,-1
1528189065363505,0,-4,-2,-3,-1,0,0,-1
1528189065384480,-1,1,-2,-2,0,-1,-1,0
1528189065384480,-2,1,1,-2,-1,-2,-1,0
1528189065390433,1,-2,-2,-1,-2,0,-1,-1
1528189065390433,-1,-1,-1,0,0,-1,-1,-1
1528189065407387,0,2,-1,1,-1,-1,1,-1
1528189065407387,0,0,-1,0,0,-1,0,-1
1528189065408396,0,-1,-1,0,0,-1,0,1
1528189065408396,0,-1,-1,1,-2,-1,0,-1
1528189065431324,-2,-2,-1,-1,-1,-1,-1,0
