timestamp,emg1,emg2,emg3,emg4,emg5,emg6,emg7,emg8
1528445576826306,0,1,0,1,-1,-2,-3,-2
1528445576826306,-2,-1,-1,-1,-2,0,-2,0
1528445576827304,0,0,0,2,0,1,-1,-3
1528445576827304,-1,-1,-3,1,-1,-3,-1,-1
1528445576830295,-1,-1,0,-2,0,-1,-1,1
1528445576830295,-1,-2,0,0,0,-3,3,-2
1528445576835282,-2,-1,-2,-1,-2,-2,-5,-2
1528445576835282,-1,0,0,-2,0,0,1,1
1528445576845257,0,-2,-2,-1,-2,-1,0,-2
1528445576845257,-1,-2,-2,-2,0,-2,-1,-1
1528445576847250,-2,-1,-1,-3,0,-2,0,-1
1528445576847250,-2,-3,-1,-2,-2,-1,-4,-3
1528445576860216,-1,-1,-2,-2,0,-1,1,0
1528445576860216,0,0,-1,-1,-2,0,-1,0
1528445576871186,-2,-1,0,-1,0,2,1,-1
1528445576871186,-3,-1,0,-1,-1,-1,-2,-1
1528445576874178,-1,-2,-1,-1,0,0,-1,-1
1528445576874178,1,0,0,0,-2,-1,-1,-2
1528445576897117,0,-1,-1,-1,-2,-2,0,0
1528445576897117,0,-1,-2,-3,-2,-1,0,0
1528445576898114,0,-2,0,-2,-1,-2,-2,-1
1528445576898114,-1,0,-2,-1,1,-2,-1,-2
1528445576920056,-2,-1,-1,-2,-1,-1,-1,-2
1528445576920056,-1,1,1,-2,-3,0,-2,-2
1528445576921053,-2,-2,-2,-1,0,0,-1,0
1528445576921053,-1,-1,-1,-1,-1,-1,-3,1
1528445576959950,0,-1,-1,0,-2,-2,-2,-1
1528445576959950,-2,-1,-1,-1,-1,2,2,-3
1528445576960947,-1,-3,-2,-2,-2,1,-1,-4
1528445576960947,1,-1,-1,0,0,-1,-1,0
1528445576961944,1,0,0,-1,1,-1,-3,-1
1528445576961944,0,0,-1,-1,1,-3,-1,-1
1528445576963938,-1,-1,0,0,-1,1,2,1
1528445576963938,-1,-1,-1,0,-4,-5,-4,-2
1528445576970920,-1,-1,-1,0,-2,-1,0,-3
1528445576970920,-2,-1,0,0,-1,0,-3,0
1528445576978899,1,0,-1,1,0,-1,-1,-3
1528445576978899,-2,-3,1,-2,-2,-1,0,-3
1528445576987875,0,-2,-2,-1,0,-1,0,-1
1528445576987875,-2,-3,-2,-1,-1,-2,-1,0
1528445577000839,-1,-2,1,-2,0,0,-2,1
1528445577000839,-3,-1,-2,0,0,2,-1,-2
1528445577010814,-2,-3,-2,-2,0,-2,-2,0
1528445577010814,-1,0,-1,-1,-2,-2,-2,-1
1528445577023778,-2,0,-2,-2,-1,-2,-1,-1
1528445577023778,-3,-5,-1,-3,-1,-1,0,-2
1528445577032756,0,-2,-1,0,0,0,-2,-2
1528445577032756,1,0,0,-2,-1,0,2,-1
1528445577047738,-1,0,0,-2,-3,-2,-2,-1
1528445577047738,-3,-2,-2,-1,-2,-2,0,-1
1528445577048711,-4,-2,-1,-2,-1,1,0,-1
1528445577048711,-3,-4,-2,-1,-2,-2,0,-1
1528445577077637,-1,-1,-2,-1,-2,-2,-3,1
1528445577077637,0,-1,-2,-1,-1,-2,-1,-1
1528445577079630,0,-1,-1,-1,-1,-2,-2,-1
1528445577079630,0,-4,-2,0,-2,-2,-2,-3
1528445577092617,0,3,-1,0,0,1,3,-1
1528445577092617,-1,-1,-2,-1,1,0,-2,-2
1528445577094611,0,-1,-1,0,0,-1,1,-1
1528445577094611,-1,-1,-2,-2,-1,0,-3,-1
1528445577107554,-3,-5,-5,-1,0,-1,-1,-3
1528445577107554,0,2,-2,0,0,2,1,0
1528445577109549,-2,-2,-1,-2,-1,-3,0,0
1528445577109549,1,0,1,-1,-2,-4,-3,-1
1528445577130494,0,-1,0,-2,-2,-1,-1,-2
1528445577130494,0,1,0,-3,-1,-3,-3,-1
1528445577131492,-1,0,-1,0,-2,1,0,-1
1528445577131492,-2,-2,-1,-2,0,0,-1,0
1528445577152472,-1,-1,-2,-3,0,-2,-3,-1
1528445577152472,-1,0,-2,-1,0,0,0,-3
1528445577154465,0,0,0,-1,0,1,0,0
1528445577154465,0,0,0,0,-1,-2,2,-3
1528445577167449,0,0,-2,1,-2,-4,-4,0
1528445577167449,0,0,1,-1,-2,0,0,1
1528445577169390,0,-1,-1,-2,-1,-1,-1,-3
1528445577169390,-2,1,0,0,0,2,2,-1
1528445577190332,0,-1,0,-1,0,1,1,-2
1528445577190332,-1,-2,-3,-1,-1,-2,-1,-1
1528445577191358,-1,-1,1,0,-1,-1,-1,-2
1528445577191358,-2,-1,-1,0,-2,-3,-1,0
1528445577212275,0,-2,-1,1,-2,-1,0,-1
1528445577212275,0,-2,-2,0,0,-1,-1,0
1528445577214270,-1,0,-1,-2,1,0,0,-1
1528445577214270,-1,0,-3,-2,-1,-1,-3,-3
1528445577227234,-1,1,-1,-4,-2,-1,0,-3
1528445577227234,-1,-1,0,1,-1,3,2,-2
1528445577234216,-1,0,0,-1,-2,-1,-4,0
1528445577234216,0,0,-1,-2,-1,0,-2,0
1528445577250174,-1,-2,0,1,-1,-1,-2,0
1528445577250174,-1,0,1,-2,0,0,0,-2
1528445577256159,-2,-2,-3,1,-3,-5,0,-4
1528445577256159,-3,-3,-2,0,-2,0,-2,-2
1528445577272116,0,0,-1,-1,0,0,-1,-1
1528445577272116,0,-1,-1,0,-1,-1,-2,1
1528445577274109,0,-1,0,-3,-1,-1,0,1
1528445577274109,2,-1,-1,0,-2,-3,-4,-2
1528445577286078,-1,-1,0,0,-2,-2,0,0
1528445577286078,-3,-3,-2,-1,-2,0,-1,-2
1528445577295054,0,-2,0,-1,-1,0,-4,0
1528445577295054,1,-1,-2,-1,-1,0,0,0
1528445577310013,-1,-3,-1,1,2,1,-2,-1
1528445577310013,1,-1,-2,-2,-1,-3,-3,-2
1528445577312010,-2,0,-1,-1,-1,0,0,-1
1528445577312010,-1,-1,-1,0,0,-4,-3,-1
1528445577332951,-2,-1,-1,-1,-1,-2,-3,-1
1528445577332951,0,0,1,0,-1,-3,-2,0
1528445577333949,0,-1,-2,0,-1,-1,-1,0
1528445577333949,-5,-5,-1,-1,-1,-1,-1,-1
1528445577345917,-3,-3,-1,-1,-2,0,-1,0
1528445577345917,0,-2,-1,-1,0,-2,0,0
1528445577354910,0,-1,-2,1,-1,-2,-1,-2
1528445577354910,0,-1,0,0,-1,1,-2,-2
1528445577369854,-1,-2,1,-1,-2,-3,-2,-1
1528445577369854,-1,0,-1,-1,-2,0,0,-2
1528445577371848,-2,-3,-1,-2,-1,-4,-2,-1
1528445577371848,-1,1,-2,-1,-1,0,1,-1
1528445577392793,-1,0,-1,-1,-3,-2,-3,-3
1528445577392793,-1,-1,-2,-1,-1,0,-2,-2
1528445577393803,0,0,-1,-2,0,-1,1,-2
1528445577393803,0,-1,-2,0,-1,-1,0,1
1528445577406791,1,1,0,-1,-2,-2,0,-2
1528445577406791,-1,-1,-2,0,-1,-1,-1,-1
1528445577413736,-4,-3,-2,-1,-1,-1,3,-1
1528445577413736,1,0,-2,-1,-2,-1,-1,-3
1528445577429727,0,-2,0,-1,0,1,-1,0
1528445577429727,-1,-2,-2,-1,-2,-2,-3,-1
1528445577431688,0,0,-1,1,0,0,-2,-2
1528445577431688,-1,-2,-1,-1,0,0,0,0
1528445577452779,2,4,-2,-2,0,-1,2,-1
1528445577452779,-5,-7,0,-1,-3,0,-3,-2
1528445577453775,0,2,0,-2,-2,-3,-5,-1
1528445577453775,5,6,-1,-1,-2,1,3,1
1528445577466740,-1,-1,-1,0,0,-3,0,-1
1528445577466740,-2,-1,-1,-1,0,1,1,-1
1528445577473721,-2,0,-2,-2,-1,0,-2,-1
1528445577473721,-3,-3,0,0,0,-2,-2,0
1528445577489712,1,1,-2,-1,-1,0,-1,-1
1528445577489712,1,1,-1,-2,-2,-3,-1,-1
1528445577491710,-2,-2,-1,0,-2,0,-1,1
1528445577491710,-1,-2,-1,-2,0,-1,1,-1
1528445577512618,-2,-2,-3,1,-1,-1,0,-2
1528445577512618,0,1,0,0,0,0,-1,-1
1528445577514635,1,-1,0,-2,-1,-1,-3,-1
1528445577514635,-1,-3,-1,-1,0,1,-1,-1
1528445577534600,-2,-2,0,-2,-1,0,1,0
1528445577534600,0,3,-1,-1,-1,-1,-1,-1
1528445577536559,-1,0,-3,-1,-1,0,1,-2
1528445577536559,-1,0,-2,-1,-1,-2,-3,-1
1528445577550517,0,-2,0,0,-2,-1,-1,-1
1528445577550517,0,0,0,-1,-1,-1,-2,0
1528445577551522,0,-1,0,-1,-1,-1,-1,-2
1528445577551522,-2,-1,1,-1,-3,-5,-3,-1
1528445577572459,-2,-3,-3,-2,-1,0,-1,-1
1528445577572459,-4,-5,-1,-1,1,-2,-1,0
1528445577574453,4,1,-1,-3,-1,0,0,0
1528445577574453,-2,-1,-1,0,0,2,2,0
1528445577586426,-2,-2,-1,-2,0,2,0,-1
1528445577586426,-1,-1,-2,0,0,-5,-2,1
1528445577595397,-3,0,-1,-1,-3,-2,0,-1
1528445577595397,-1,-1,-2,0,-1,0,-3,-1
1528445577609603,-2,1,1,-2,0,0,0,-2
1528445577609603,0,0,-1,-3,-1,1,0,-2
1528445577611561,-1,-1,-2,-1,-2,-2,1,-1
1528445577611561,1,-1,-1,-3,-2,-3,-2,-1
1528445577632668,-1,-3,-2,-1,-3,-3,-4,-2
1528445577632668,-2,0,-1,0,-1,-1,3,0
1528445577634499,-1,-2,-1,-1,0,1,0,-1
1528445577634499,-2,-1,-1,-2,-2,0,-3,0
1528445577646606,1,1,-1,-3,-1,-3,-3,-1
1528445577646606,1,0,-1,1,-1,-1,-1,0
1528445577655443,-2,-1,-2,0,-1,-2,-1,-1
1528445577655443,0,-1,-2,0,0,2,-1,-1
1528445577670403,-2,-2,-1,0,0,0,-1,2
1528445577670403,-1,0,0,0,-3,-1,-1,0
1528445577671400,-1,0,-1,0,-1,0,1,-1
1528445577671400,-3,-1,0,-1,-1,-5,-5,-2
1528445577692703,0,-1,0,-1,-3,-3,2,0
1528445577692703,-1,-2,-1,-2,-1,0,-1,-2
1528445577694538,-1,-1,-2,-1,0,1,-2,-2
1528445577694538,-2,0,-1,-2,-1,-1,-2,-2
1528445577706661,0,-2,0,-1,0,-3,-3,-1
1528445577706661,1,0,-1,0,-1,-1,-2,-3
1528445577715481,-2,-1,-1,-1,-2,-1,5,2
1528445577715481,0,-2,0,-2,0,0,-1,1
1528445577730453,-2,-1,-2,0,0,0,-1,-1
1528445577730453,0,-2,-1,0,-1,-2,-3,-1
1528445577731440,-2,-2,0,0,1,-2,-3,-2
1528445577731440,1,-1,-1,-1,-3,-2,0,-1
1528445577752525,-1,-2,-3,-3,-1,0,-1,-1
1528445577752525,0,0,-2,0,-1,0,-2,-1
1528445577754379,-2,-1,-2,-2,-3,-4,-1,-2
1528445577754379,-2,-2,-1,-1,-1,0,0,-1
1528445577766494,3,5,1,-2,-1,-1,-1,-1
1528445577766494,-3,-2,-1,-1,-1,-1,-2,0
1528445577775514,-2,-1,0,-1,-2,-2,-1,-1
1528445577775514,-2,-3,0,0,-2,0,1,-2
1528445577789844,-4,-2,-2,-2,-2,-3,-2,-2
1528445577789844,0,-1,0,-2,-1,-2,2,-3
1528445577791672,0,0,-2,-1,0,0,-2,-1
1528445577791672,0,-2,-2,-1,0,-2,0,0
1528445577812775,-1,-1,-2,0,-1,-1,0,1
1528445577812775,-1,-2,-2,0,0,0,-1,-1
1528445577814786,0,-2,0,-1,-2,-2,-2,-1
1528445577814786,-1,1,0,-1,0,1,-2,-1
1528445577826839,-1,-1,-2,-1,0,-1,-1,-2
1528445577826839,0,-2,-1,-1,-1,-1,-1,0
1528445577835882,-2,-2,0,-1,-1,-1,-3,-1
1528445577835882,0,-1,-2,-1,-2,1,3,1
1528445577849941,-2,-1,0,-1,-1,0,-1,0
1528445577849941,0,-1,-1,-2,-3,-2,0,-1
1528445577851775,-1,-1,0,0,0,0,2,-1
1528445577851775,0,1,-2,-2,-2,-5,-3,-1
1528445577873079,-1,-2,1,0,1,0,1,-2
1528445577873079,-2,0,-2,-1,-1,0,-1,-1
1528445577873964,-2,-1,0,-1,-2,-2,-1,-1
1528445577873964,-3,0,-1,-1,-2,-3,1,-1
1528445577886090,-1,-1,0,-1,-2,1,0,-1
1528445577886090,0,1,-2,-1,0,1,0,0
1528445577895066,-1,0,-2,-1,0,-4,-2,0
1528445577895066,-1,-2,-1,-1,0,-3,0,0
1528445577910182,-1,-2,0,-1,-1,0,-1,-1
1528445577910182,-1,-1,0,-1,0,1,2,-2
1528445577912024,-1,-4,1,-2,0,1,0,0
1528445577912024,-3,0,-2,-1,0,1,-4,-3
1528445577931306,-2,-2,-1,0,-1,-5,0,-1
1528445577931306,-2,0,-1,-1,0,-3,-2,-1
1528445577940335,0,0,0,0,-1,0,0,-1
1528445577940335,0,0,-3,-1,-1,-1,-1,-1
1528445577955614,-1,-1,-3,-1,-3,1,1,0
1528445577955614,-3,-1,-1,-1,-2,-1,-1,-1
1528445577956490,-2,0,-1,-2,-1,-3,-3,-3
1528445577956490,-2,-2,0,-1,-1,-1,-1,-2
1528445577978023,-3,-2,-2,-1,-2,1,-2,-2
1528445577978023,-1,-2,0,-1,-1,-3,-3,-1
1528445577978974,1,0,-3,0,-1,0,-1,-2
1528445577978974,0,-3,0,-1,-1,1,3,-1
1528445577999960,-1,-1,-1,-1,1,-4,0,1
1528445577999960,0,-1,-2,-1,-2,-1,-1,-1
1528445578001797,0,-1,-1,-1,-1,-1,-5,0
1528445578001797,-1,0,-1,-2,0,0,-1,-3
1528445578014919,0,-1,-1,0,-2,0,0,-1
1528445578014919,-1,-2,0,-1,-1,-2,-3,-1
1528445578016757,-1,0,-2,-2,-2,1,1,-2
1528445578016757,-1,0,-1,-1,0,0,0,1
1528445578037858,-1,-1,0,-1,-2,-1,-3,-1
1528445578037858,-1,-1,0,0,-2,-3,-4,-1
1528445578039763,0,-2,-1,-1,-2,1,2,0
1528445578039763,-2,-3,-2,-1,-1,-2,-1,0
1528445578051665,-1,-3,-1,-2,-1,-1,-2,-1
1528445578051665,-1,-1,-1,-1,0,0,0,0
1528445578058646,0,-1,-1,-2,-2,-5,-2,-1
1528445578058646,0,-1,1,-1,-1,0,-2,-1
1528445578074604,0,0,-1,0,-1,-1,0,-2
1528445578074604,2,-1,-2,-1,-1,-1,4,-1
1528445578076598,-1,-1,-1,0,-1,0,-2,-1
1528445578076598,0,0,-1,-1,0,1,0,-2
1528445578097541,-3,-2,0,-1,-1,-4,-1,-2
1528445578097541,-1,-1,0,0,-2,0,-2,-1
1528445578099536,-3,-2,0,-1,1,0,-1,0
1528445578099536,-1,-3,-1,-1,-3,-5,-2,-2
1528445578111506,-2,-1,-3,-1,-1,1,0,-1
1528445578111506,-1,1,-2,-2,-1,-1,-3,-2
1528445578120481,-1,-1,-2,0,-2,1,0,1
1528445578120481,-1,0,-1,-1,0,-1,-3,-1
1528445578142424,0,0,-2,-2,-1,-1,0,-2
1528445578142424,-2,-2,-2,-1,-2,0,-4,-1
1528445578144417,-1,0,-1,-2,-1,-2,0,-2
