timestamp,emg1,emg2,emg3,emg4,emg5,emg6,emg7,emg8
1528280737495232,1,-1,-1,0,1,9,-1,-1
1528280737495232,3,1,0,-1,-5,-4,0,0
1528280737507212,-5,-3,-2,-2,-12,-9,-2,-1
1528280737507212,0,-2,4,4,12,6,1,1
1528280737514229,-1,-1,3,2,8,4,1,0
1528280737514229,0,-3,-2,2,5,5,1,1
1528280737530177,0,1,0,0,5,1,-2,-3
1528280737530177,-3,-4,-4,-5,-15,-7,-3,-2
1528280737532134,-1,0,-2,-4,-6,-5,-2,-2
1528280737532134,-1,0,-2,-4,-10,-5,-4,-4
1528280737553080,-1,-3,0,-2,-4,-4,-1,0
1528280737553080,0,0,-1,0,3,3,-1,-1
1528280737555074,-1,-3,-1,-3,-6,-4,-1,0
1528280737555074,-1,1,-2,-2,-2,-2,-2,-1
1528280737567040,1,0,-1,1,0,-1,-1,-1
1528280737567040,-2,0,-2,-1,1,3,0,-2
1528280737574023,2,-3,-2,1,2,4,0,0
1528280737574023,-1,-1,1,0,-4,-9,-3,-1
1528280737589980,-1,-3,-3,-2,0,1,-4,-1
1528280737589980,1,1,1,-1,-3,-9,-2,0
1528280737591974,-2,1,0,0,-2,6,2,1
1528280737591974,-1,-7,0,16,17,10,7,1
1528280737603942,-1,0,-1,-14,-4,-8,-4,-3
1528280737603942,1,0,-2,5,7,11,3,0
1528280737612920,-2,0,0,-13,-13,-18,-6,-2
1528280737612920,0,1,-1,-4,-3,6,2,4
1528280737626883,0,0,1,6,21,15,5,1
1528280737626883,-1,0,-1,0,-2,-10,-3,-1
1528280737633863,0,-1,-2,7,-3,-3,-2,0
1528280737633863,-4,-7,-2,-5,-10,-12,-7,-11
1528280737650846,-2,-2,-1,0,0,5,2,0
1528280737650846,-2,-1,-1,7,7,2,-1,-2
1528280737651813,0,-5,3,9,1,-3,-1,2
1528280737651813,-2,5,-5,-28,-16,-8,-1,-1
1528280737672759,1,0,-1,-11,-3,8,1,0
1528280737672759,4,-1,-1,2,2,8,1,5
1528280737674782,0,2,0,-2,-2,-6,1,-2
1528280737674782,0,-1,0,8,8,0,-4,-1
1528280737687719,-1,-2,0,4,-8,-8,-2,0
1528280737687719,-4,-3,-3,-11,-17,-20,-8,-4
1528280737693702,-5,-5,-3,9,-9,-8,-7,-7
1528280737693702,2,1,3,14,21,16,5,3
1528280737709686,0,1,-1,4,5,6,4,3
1528280737709686,-2,-3,0,-3,-6,-6,-1,-4
1528280737723650,-2,-7,-4,-23,-8,-3,-1,-1
1528280737723650,-4,-3,-4,-4,-10,-10,-4,-6
1528280737732597,-3,-3,-4,9,0,-4,-6,-1
1528280737732597,-1,2,1,5,-2,-3,0,-3
1528280737734593,0,1,-1,-16,4,7,-1,-2
1528280737734593,-1,3,2,7,0,4,1,0
1528280737746619,-1,-7,-1,2,-5,-12,-3,-2
1528280737746619,-1,-1,-4,-22,-11,7,-2,-1
1528280737755537,-1,-1,-2,-1,7,2,0,0
1528280737755537,0,0,-1,1,4,0,-1,0
1528280737777477,-1,0,1,1,2,0,-1,0
1528280737777477,-2,-5,-1,4,-1,-3,-4,-3
1528280737779474,-1,2,0,3,1,-1,1,1
1528280737779474,1,0,-2,2,-4,-3,-3,1
1528280737793435,-4,-8,1,-5,0,1,-3,-3
1528280737793435,-2,0,-3,-2,3,1,3,-3
1528280737795435,-1,1,-4,2,-6,-4,-3,0
1528280737795435,-2,-4,-2,4,6,-1,-4,-1
1528280737806403,-2,2,2,0,0,5,1,-2
1528280737806403,0,0,1,-9,-5,1,2,2
1528280737815378,-1,-2,-2,6,9,0,-2,-3
1528280737815378,-1,-2,-2,-17,-17,-4,-2,-1
1528280737838315,-2,-1,-1,8,8,0,1,0
1528280737838315,4,1,0,3,4,2,0,0
1528280737840310,0,-4,-2,-2,-2,-2,1,-2
1528280737840310,-3,-2,-2,-2,-3,0,-3,-2
1528280737852278,5,4,1,-3,-6,-2,1,0
1528280737852278,-9,-9,-2,2,-7,-4,0,-2
1528280737860280,4,14,-4,0,-5,-7,-6,-3
1528280737860280,-6,-5,-1,-5,4,8,3,1
1528280737866241,-2,-1,-1,-7,-6,-4,-1,-1
1528280737866241,-2,8,0,11,6,1,-4,-2
1528280737875216,-2,-18,-3,-6,-5,1,-1,-2
1528280737875216,1,-1,1,-1,1,-6,-2,1
1528280737890209,-4,5,-3,-4,-5,-1,-2,-4
1528280737890209,1,-5,1,7,15,12,5,3
1528280737896190,-3,-2,-3,-20,-13,-5,-1,-2
1528280737896190,5,0,2,7,-1,-3,-1,-1
1528280737913115,-1,-5,-2,14,3,-3,-2,-3
1528280737913115,2,5,0,-17,-11,-4,-2,-1
1528280737915120,-3,-11,-3,-17,7,2,-1,0
1528280737915120,2,8,3,17,-4,-1,-5,0
1528280737926081,1,2,0,-8,-4,-2,8,5
1528280737926081,-2,-1,-3,6,3,-1,-2,-4
1528280737936090,-2,4,2,6,2,3,0,-1
1528280737936090,2,-2,-3,-9,-4,-4,-4,0
1528280737950357,0,-5,-3,-6,1,3,2,2
1528280737950357,-6,-8,-5,1,-2,-4,-4,-7
1528280737952223,19,20,7,7,1,2,15,11
1528280737952223,-3,-6,-1,-4,0,-2,-4,-5
1528280737973180,0,5,-2,-1,-3,-1,-2,-2
1528280737973180,-6,-9,-1,-5,0,-3,-2,-1
1528280737975182,-5,-6,-2,4,-1,-1,-5,-5
1528280737975182,-3,1,-3,-7,2,-1,2,1
1528280737986251,-2,2,1,-1,-2,-1,-3,-3
1528280737986251,6,4,0,1,-3,-4,-3,-2
1528280737995209,-7,-2,-1,8,3,-1,-3,-1
1528280737995209,-1,-2,-5,-11,6,5,5,0
1528280738010328,-1,-3,4,14,-8,-12,-8,-4
1528280738010328,-6,-4,-5,-29,-19,-5,0,-1
1528280738012164,4,0,1,9,0,1,0,1
1528280738012164,0,4,-2,-12,-5,-4,-4,-2
1528280738033291,1,-6,-3,8,8,8,4,2
1528280738033291,-1,1,-1,9,0,-7,0,-2
1528280738035447,-9,-8,-3,-6,-6,-2,-6,-9
1528280738035447,0,5,1,5,1,0,2,1
1528280738046412,0,-12,-5,-5,-2,-3,-6,-2
1528280738046412,3,7,4,7,4,6,0,2
1528280738055233,-4,-4,-3,-10,-6,-8,-31,-10
1528280738055233,2,2,0,8,0,2,40,7
1528280738078332,12,0,-1,-9,-6,-14,-2,0
1528280738078332,-8,-3,-1,-2,0,5,-28,-19
1528280738080327,8,1,2,12,18,21,38,29
1528280738080327,-12,-14,-3,-5,-7,-3,6,6
1528280738093292,3,9,-1,-15,-4,-1,-2,-12
1528280738093292,2,-2,0,17,1,-11,-7,2
1528280738095122,-10,3,-2,-4,-10,-10,-26,-21
1528280738095122,-2,-9,2,1,-2,-4,-1,-3
1528280738107089,-2,0,-2,-8,-4,3,18,25
1528280738107089,3,-2,-2,-1,11,7,15,4
1528280738115227,-2,2,0,1,-5,-11,-8,-3
1528280738115227,0,-2,-1,-1,8,17,-40,9
1528280738137914,2,5,-2,-1,-12,-3,53,-10
1528280738137914,-1,0,-2,1,7,8,-12,-7
1528280738139762,-2,-2,-3,3,11,1,14,2
1528280738139762,2,-2,0,-1,-5,-14,-17,-13
1528280738153070,-8,-1,-3,-8,-15,-13,-41,-10
1528280738153070,3,0,-2,-2,-11,-7,15,11
1528280738154945,-4,-4,-3,-6,-7,-5,6,-3
1528280738154945,-2,3,-1,5,-8,-3,-12,-12
1528280738167134,-3,-5,-4,-5,16,8,-11,-1
1528280738167134,-2,2,-8,-7,-5,-11,11,4
1528280738175301,3,-3,8,7,-1,2,-7,-1
1528280738175301,7,10,9,6,9,5,2,3
1528280738190423,-3,-4,-22,-18,-26,-2,2,0
1528280738190423,0,-1,-4,-8,-12,-6,-5,2
1528280738192258,-7,-5,-8,-13,20,4,-8,-7
1528280738192258,0,0,1,6,-14,0,12,2
1528280738213362,-3,-4,0,2,24,11,-3,-1
1528280738213362,1,-2,0,-5,1,-5,-7,-4
1528280738215355,1,-2,0,1,-14,-1,4,3
1528280738215355,-1,0,-7,0,5,-5,4,-3
1528280738226533,1,0,-1,-14,-5,-5,-13,-3
1528280738226533,-5,-11,-4,6,6,4,2,-2
1528280738235558,-4,-7,-3,-1,-14,-8,0,-2
1528280738235558,5,3,-1,-4,2,-2,-1,-1
1528280738258540,-3,3,9,15,6,2,-7,-2
1528280738258540,4,0,0,2,0,2,2,4
1528280738260548,0,2,-3,-3,0,0,2,-1
1528280738260548,-9,-7,-2,-2,-9,-18,-7,-6
1528280738271621,4,5,1,1,11,19,2,1
1528280738271621,-4,-1,7,4,0,-1,5,2
1528280738280434,2,6,2,-2,-1,4,-4,-2
1528280738280434,-11,-11,-7,-9,-7,-1,-1,-5
1528280738295552,1,-3,2,4,-7,-15,-5,4
1528280738295552,8,7,4,5,10,10,5,7
1528280738297388,-2,2,0,-5,-3,-4,-3,-10
1528280738297388,-5,1,-2,0,-2,-3,-9,-9
1528280738318333,-6,-5,1,1,5,1,12,13
1528280738318333,-4,-6,-1,2,-7,-3,-3,-6
1528280738320328,-2,3,-3,-1,-4,-3,1,6
1528280738320328,1,-4,-1,-4,4,4,-2,-3
1528280738332324,-4,-5,1,5,5,7,-5,-4
1528280738332324,-4,-1,0,-6,-2,-8,-4,-2
1528280738340274,3,3,-1,0,-9,-5,-2,-2
1528280738340274,0,-6,-2,-7,1,3,1,1
1528280738355234,-1,-4,-1,1,-10,-8,-11,-5
1528280738355234,1,-1,0,0,6,3,6,1
1528280738357228,-5,-3,-5,-1,1,-2,-3,-2
1528280738357228,0,-3,-1,2,-2,2,0,-1
1528280738378383,-3,0,1,-4,-2,-4,1,3
1528280738378383,6,4,0,-4,-1,0,0,-3
1528280738380388,1,-4,0,5,-6,4,2,2
1528280738380388,1,7,0,-2,4,0,4,3
1528280738391473,-5,-6,-2,-1,0,5,-2,-6
1528280738391473,-3,-1,1,10,1,-3,-5,2
1528280738400338,-2,-5,1,-16,-9,-3,1,0
1528280738400338,6,9,3,1,-1,-5,1,10
1528280738415265,-4,-5,0,-1,1,-6,-8,-18
1528280738415265,-1,1,0,1,-2,7,1,-4
1528280738417258,2,-1,-1,3,0,-1,1,2
1528280738417258,-3,1,-2,0,4,6,-1,-2
1528280738438296,3,4,-3,0,-5,-9,3,5
1528280738438296,-2,-4,-4,-4,2,0,-3,-1
1528280738439201,3,0,2,2,-6,-4,-1,0
1528280738439201,-4,-1,-2,-8,-8,-6,-3,-5
1528280738451336,0,2,1,5,6,3,-2,-4
1528280738451336,-1,-5,-3,-8,-8,-2,-7,-5
1528280738460323,-1,1,-3,-5,6,2,3,8
1528280738460323,-8,-13,0,9,-2,-1,8,0
1528280738475291,4,5,-4,-1,-4,-2,-6,-6
1528280738475291,-1,2,3,-10,-1,-12,-4,-3
1528280738477142,0,-1,-1,3,2,12,0,1
1528280738477142,-5,-3,-2,1,3,-2,-9,-3
1528280738498540,-4,-4,-3,-8,-9,-7,-69,-23
1528280738498540,-7,-3,-3,-2,-4,-4,36,-23
1528280738500542,6,9,3,7,7,9,52,32
1528280738500542,10,2,-1,-4,1,3,-7,0
1528280738511492,-11,-6,-1,2,1,7,17,13
1528280738511492,7,7,3,1,-4,-5,-12,11
1528280738520361,-10,-6,-4,-1,-7,-7,-24,-22
1528280738520361,-2,4,0,1,3,6,13,0
1528280738535295,-2,-1,-3,-5,-9,-15,-8,-7
1528280738535295,-4,-5,-3,-5,-1,2,-15,-3
1528280738537287,1,-1,-1,3,1,-3,5,3
1528280738537287,3,-4,-4,-10,-15,-7,-6,18
1528280738558366,5,7,1,11,22,16,13,-7
1528280738558366,-4,-2,0,3,9,1,0,-10
1528280738560363,-1,-2,-1,0,0,1,-8,6
1528280738560363,0,2,-3,-2,-3,-8,-13,-13
1528280738571320,4,4,3,-4,-11,-10,16,-8
1528280738571320,-6,-3,-4,-5,-7,7,7,8
1528280738580472,1,-2,2,-1,3,-1,-16,-14
1528280738580472,1,-5,0,-5,-3,-3,-1,1
1528280738595432,-1,-3,-1,1,0,-1,14,12
1528280738595432,-2,0,-1,1,-7,-7,-8,-2
1528280738597430,-7,-5,-9,-7,-5,-4,-12,-12
1528280738597430,1,1,4,12,6,7,8,0
1528280738618537,0,-10,-4,-6,-1,7,4,7
1528280738618537,-2,-4,-1,-1,-7,-5,-11,0
1528280738620503,6,4,0,-15,-27,-15,-2,0
1528280738620503,-1,5,0,12,26,7,9,1
1528280738640470,-3,-1,2,7,13,5,-5,-5
1528280738640470,0,-1,-4,-7,4,21,5,8
1528280738642307,-3,-6,-8,-15,-5,-5,1,-2
1528280738642307,-2,1,5,-2,-5,-5,-5,-2
1528280738655303,-6,1,-2,3,1,-3,0,1
1528280738655303,6,-2,0,-2,-8,-3,1,4
1528280738657266,3,4,4,9,6,-2,-4,0
1528280738657266,0,-4,-5,-8,-10,7,-1,-1
1528280738678544,-3,-2,-1,-4,1,-4,-1,0
1528280738678544,-3,-2,3,1,-2,-5,0,-4
1528280738680438,-2,-3,-1,5,9,4,-3,-8
1528280738680438,-14,-6,-6,-6,2,-4,-3,-3
1528280738691573,12,12,5,-1,-16,-1,4,6
1528280738691573,-11,-18,-5,1,1,-7,-3,-1
1528280738700386,4,3,-2,2,8,5,4,10
1528280738700386,-4,-2,-1,-5,-8,-5,-11,-10
1528280738715487,-1,2,-1,-5,-8,-2,9,0
1528280738715487,0,-2,-1,-4,0,-1,-3,-3
1528280738717484,-4,-4,3,4,0,-3,-4,-1
1528280738717484,2,-3,-2,-3,-1,2,6,3
1528280738738290,-5,-3,0,-3,1,-7,-7,-2
1528280738738290,2,2,-2,15,4,2,-5,4
1528280738740302,-3,-4,0,-15,3,6,6,0
1528280738740302,1,4,1,3,-6,-7,-5,-1
1528280738751283,0,-2,-2,-3,-1,1,-3,-4
1528280738751283,-4,1,-1,-4,-1,-6,1,-1
1528280738760318,3,-1,0,4,-1,0,-4,-1
1528280738760318,-4,-1,-1,-4,2,0,-3,-4
1528280738775290,3,2,2,-3,-7,-6,6,0
1528280738775290,0,-4,0,-1,3,2,1,4
1528280738781308,-7,-3,-2,3,2,-4,-14,-19
1528280738781308,1,-5,0,-3,-2,9,9,7
1528280738798266,-4,-5,-3,0,-4,-2,-4,0
1528280738798266,-3,6,0,-2,3,-3,-7,-11
1528280738800257,5,5,1,2,-2,0,6,2
1528280738800257,-3,-6,-3,-2,-8,-7,-7,-4
1528280738812092,-3,-2,-3,-3,-1,0,-1,3
1528280738812092,-1,0,0,2,0,1,-1,0
1528280738820347,-1,-1,0,1,-2,-7,-2,-1
1528280738820347,2,4,-1,0,4,6,5,-2
1528280738835227,0,-3,-2,-2,2,0,-1,2
1528280738835227,0,0,-3,-7,-8,-7,-2,4
1528280738837219,-5,-2,1,13,7,3,0,-4
1528280738837219,3,4,0,-10,-5,-7,-2,-4
1528280738858444,-3,-5,-1,4,1,6,1,-2
1528280738858444,-1,5,0,-2,-2,-4,-5,-3
1528280738860489,0,-3,-2,0,-3,0,2,3
1528280738860489,1,-1,-3,2,1,-3,-2,-3
1528280738871545,-3,1,-2,-2,-3,-6,-5,-3
1528280738871545,1,2,-1,-5,-4,0,3,3
1528280738880397,-5,-2,-2,0,0,-2,0,-1
1528280738880397,-2,-1,-2,0,0,-2,-3,-5
1528280738895484,0,-2,-1,-2,-1,1,6,12
1528280738895484,4,6,0,1,1,-2,-13,-9
1528280738897341,-12,-9,-3,-4,-2,-4,8,-4
1528280738897341,3,-2,-1,0,-4,-7,-6,-6
1528280738918535,-3,-6,-1,0,-1,1,-2,1
1528280738918535,-5,0,0,0,1,0,-2,-6
1528280738920531,6,3,-1,-5,-2,2,0,-4
1528280738920531,0,0,0,1,1,-3,8,10
1528280738931591,-1,-2,-2,-3,-2,-1,-3,-1
1528280738931591,0,0,-1,-8,-11,-13,-7,5
1528280738940436,-2,-2,-1,-1,-3,2,-14,-7
1528280738940436,-8,-4,-2,-1,-2,-1,1,-9
1528280738954383,6,2,2,6,10,7,10,9
1528280738954383,-5,0,-2,-1,0,0,4,-1
1528280738961393,3,1,-1,-3,-2,-10,-6,6
1528280738961393,-7,-4,-3,0,-3,-3,-34,-23
1528280738978318,1,-2,2,1,3,13,66,24
1528280738978318,3,0,-1,-1,3,4,-1,-12
1528280738980315,-4,0,0,-1,1,-2,-4,-6
1528280738980315,8,-2,0,-2,-2,-2,4,5
1528280738991329,-4,0,-2,-4,-4,-8,1,-3
1528280738991329,0,-5,-1,-3,1,4,9,-5
1528280739000260,-5,-2,2,0,-4,-2,-5,-3
1528280739000260,-1,2,-3,-4,-7,-3,-14,-7
1528280739015236,-4,-7,-3,-5,4,-1,-20,-16
1528280739015236,2,3,2,3,-5,-8,5,3
1528280739021225,-3,-2,-2,-2,-3,2,-15,-3
1528280739021225,-1,5,-1,-12,-18,-10,10,4
1528280739038158,-1,-2,1,11,21,4,-4,-2
1528280739038158,-2,-3,-4,0,-1,5,-7,5
1528280739040181,-4,-5,-5,-10,3,-5,-2,0
1528280739040181,5,-2,4,9,3,14,20,14
1528280739051123,0,0,-1,-7,-9,3,-9,-4
1528280739051123,3,0,-3,-2,1,-3,-7,-2
1528280739060099,-5,0,2,0,-8,-4,7,-3
1528280739060099,4,-2,-5,-9,-6,-6,7,6
1528280739075059,-1,7,0,2,-5,-9,-23,-11
1528280739075059,-3,-6,-2,4,8,3,5,8
1528280739082042,0,-4,-3,-11,-3,5,8,5
1528280739082042,-4,0,2,11,20,2,-2,-2
1528280739097002,-4,-4,2,9,5,2,-9,-4
1528280739097002,1,-2,-2,-12,-14,-3,1,3
1528280739105983,2,-2,-7,-3,9,-6,1,2
1528280739105983,-2,3,3,-5,-17,7,-3,0
1528280739119941,2,1,5,10,2,-3,-6,-7
1528280739119941,-6,-5,-3,-3,-8,-2,1,2
1528280739121936,1,-5,-6,-2,1,-3,-3,-5
1528280739121936,-8,-4,-3,-2,-3,-5,0,2
1528280739134900,-2,1,0,-9,-9,-2,0,4
1528280739134900,3,0,-1,3,6,-1,-1,-2
1528280739141882,1,4,4,0,-7,-3,-6,-4
1528280739141882,-5,-6,-2,4,12,0,8,0
1528280739157838,-2,0,-6,-9,-12,-2,-10,-3
1528280739157838,-2,-5,1,0,5,5,5,-1
1528280739159833,1,6,3,5,3,-1,-1,9
1528280739159833,-2,-4,-2,-2,3,0,3,-6
1528280739180777,-2,-3,-5,-5,-11,-16,-5,-4
1528280739180777,-2,-2,-1,-2,0,7,-2,-1
1528280739182771,-4,-6,-1,2,-4,6,1,1
1528280739182771,1,-1,-1,1,11,-2,-3,3
1528280739194740,1,0,0,-6,-7,-5,-5,-9
1528280739194740,0,0,1,1,-1,-3,3,1
1528280739201721,0,-1,0,3,-5,3,6,0
1528280739201721,-3,0,-2,1,0,-3,-7,-1
1528280739217678,2,1,1,-6,2,-3,-6,-2
1528280739217678,-1,-3,-3,0,-4,-2,-4,1
1528280739219673,2,-1,1,3,0,1,4,-1
1528280739219673,0,3,-1,-7,1,0,-4,-7
1528280739240617,-3,-6,-2,5,2,3,-1,1
1528280739240617,-1,-2,0,0,-5,-7,-5,-7
1528280739242612,5,6,2,-1,3,9,2,6
1528280739242612,0,-8,-2,2,-2,-4,2,1
1528280739253582,-3,-7,-7,-7,-6,-3,-6,-4
1528280739253582,-2,3,-1,0,0,-3,0,1
1528280739263608,-3,5,-3,0,-2,-7,4,-3
1528280739263608,2,-2,1,0,-3,0,-5,-4
1528280739277872,0,-1,-3,-1,0,1,-1,-1
1528280739277872,-2,-2,2,0,-1,-2,-2,0
1528280739279715,2,2,-1,2,3,0,0,1
1528280739279715,-1,2,0,-5,-10,1,1,2
1528280739300982,-1,-1,-2,0,7,-2,1,1
1528280739300982,1,1,-1,2,6,-1,-4,-3
1528280739302982,-1,-3,-1,0,-7,-5,-3,-5
1528280739302982,0,-1,-2,-1,-3,-7,-2,0
1528280739322809,0,0,2,1,-2,11,0,-1
1528280739322809,5,1,-1,-7,0,-2,0,3
1528280739324788,-10,-7,0,2,-2,-3,0,1
1528280739324788,-3,-1,-1,10,11,0,-1,-3
1528280739337753,3,1,-1,-9,-6,-15,-7,5
1528280739337753,-2,-1,-1,-1,1,7,5,-4
1528280739339747,2,-3,-2,3,3,3,-5,2
1528280739339747,-1,1,-1,-7,-8,1,4,-1
1528280739360692,-2,-3,-2,3,-3,-3,0,0
1528280739360692,-1,-5,-2,-3,-3,-4,-3,0
1528280739362687,-3,0,0,0,-2,-5,-1,-7
1528280739362687,-1,1,-3,-2,2,2,-2,2
1528280739373658,-2,-1,-1,0,-7,1,2,-4
1528280739373658,0,-2,-2,0,-2,-3,-1,2
1528280739383631,-1,-2,-4,-3,3,1,-3,0
1528280739383631,1,1,-2,-9,-3,-5,-3,0
1528280739397693,-4,-2,-1,3,-2,5,4,-3
1528280739397693,0,0,-2,1,-2,-3,-2,-2
1528280739399688,-2,0,-1,-5,-8,-4,-1,2
1528280739399688,-2,-1,0,0,3,3,-1,-2
1528280739420760,-2,-1,-2,-3,3,-1,1,0
1528280739420760,-2,-2,1,0,-2,2,-1,-2
1528280739422629,0,-2,0,-2,-2,-11,-7,-1
1528280739422629,-1,-4,-2,-2,-7,5,2,0
1528280739434626,-1,-1,0,0,1,-3,0,0
1528280739434626,-2,1,1,3,-1,0,-2,0
1528280739442890,0,-3,-3,-10,1,1,0,-2
1528280739442890,-1,0,-1,4,3,-3,-3,-2
1528280739457861,0,1,-3,-3,-3,1,-1,-1
1528280739457861,-1,-1,-1,-2,1,1,0,-1
1528280739459844,0,-1,-1,-1,0,-1,-1,-2
1528280739459844,0,-1,-1,1,-1,2,0,0
1528280739480794,-2,-2,-3,0,-1,1,1,-1
1528280739480794,-2,0,-3,-3,-1,-5,-1,0
1528280739482912,0,-1,-2,1,-3,3,-1,-1
1528280739482912,-4,0,-2,-1,-5,-18,-4,-3
1528280739494017,4,3,0,-1,0,15,2,-1
1528280739494017,-2,-5,-1,-4,-2,-2,-1,0
1528280739502991,-2,0,5,4,5,4,1,1
1528280739502991,-2,-2,-1,0,-2,-1,-1,-1
1528280739517952,-1,0,1,4,-10,-30,-12,-4
1528280739517952,-1,0,-3,-6,2,21,7,-1
1528280739519954,-1,-4,-3,1,1,-12,-4,-2
1528280739519954,0,-1,-1,-2,-1,14,1,1
1528280739540972,-3,0,-2,0,3,3,6,1
1528280739540972,2,1,3,10,-4,-7,-4,-2
1528280739542972,-2,-4,-3,-5,-4,-5,2,-3
1528280739542972,-1,-2,-5,-2,9,-1,-5,-2
1528280739553870,1,-3,0,-2,-4,0,1,0
1528280739553870,0,-2,-1,-2,1,-3,-1,0
1528280739568815,-2,2,1,4,-2,1,0,-1
1528280739568815,-1,-1,-1,-3,-4,-5,-1,0
1528280739578148,0,-1,-2,-6,-3,-8,-4,-2
1528280739578148,-3,-2,-2,-3,-1,7,0,0
1528280739580145,1,-1,-1,4,1,-2,1,1
1528280739580145,-3,-1,-1,-3,-8,-20,-8,-3
1528280739599935,-3,-5,-3,-2,5,16,1,-2
1528280739599935,1,1,-1,-2,-1,0,3,0
1528280739602928,1,0,-2,-2,-2,5,2,0
1528280739602928,1,-2,-2,-5,-6,-5,-4,-1
1528280739613898,-3,-4,1,3,0,-3,0,0
1528280739613898,-3,0,-4,-5,-5,-14,-6,-3
1528280739630850,-3,-1,-2,3,8,8,0,-1
1528280739630850,0,-1,1,1,0,10,2,-1
1528280739637835,0,2,-2,-6,-6,-6,-2,0
1528280739637835,0,-4,0,1,6,-2,1,1
1528280739639862,-4,3,0,-3,-5,3,-1,-5
1528280739639862,4,-3,-1,2,8,-23,-5,2
1528280739660781,-1,1,-1,-3,-2,28,4,-3
1528280739660781,0,1,0,0,5,-8,0,0
1528280739662765,1,0,1,-4,-8,-5,-2,0
1528280739662765,-3,-2,-1,0,-4,-1,1,-1
1528280739673735,-2,-2,-4,-4,-4,-5,-3,-1
1528280739673735,-2,0,0,5,-2,-7,-3,-1
1528280739682714,-1,-3,-3,-5,-3,-5,-5,0
1528280739682714,-1,2,-1,-1,0,18,6,0
1528280739697880,-1,-2,0,-1,-4,-30,-5,-1
1528280739697880,-4,-2,-2,4,-2,30,3,-3
1528280739699732,0,-1,0,-2,2,-9,0,1
1528280739699732,-1,-3,-7,-21,-7,-14,-7,-3
1528280739720676,0,1,0,5,3,21,7,-1
1528280739720676,0,1,3,2,7,-2,-1,0
1528280739722682,1,0,1,2,0,5,1,2
1528280739722682,-2,0,0,0,-12,-8,-1,-1
1528280739734639,-1,-2,-3,-2,1,-9,-5,0
1528280739734639,0,-1,-2,-2,-3,-2,-2,-1
1528280739742805,-1,-1,-3,2,10,-11,-5,-1
1528280739742805,-1,-1,0,4,7,23,4,-2
1528280739757635,-1,-1,-1,-6,-7,-4,2,0
1528280739757635,0,-2,-1,-5,-8,-6,-3,-2
1528280739759629,0,-1,-2,1,4,3,0,-1
1528280739759629,-2,-2,1,1,-3,-7,-3,0
1528280739780701,-2,-1,-3,0,4,5,-1,-1
1528280739780701,-3,-1,-3,-4,-7,-5,-1,-1
1528280739782688,-1,-1,-1,-4,-7,-5,-3,-2
1528280739782688,0,1,0,4,0,3,-1,-2
1528280739793620,0,-1,-1,-1,0,3,0,0
1528280739793620,0,0,-1,-3,-6,-25,-9,0
1528280739802765,-2,-1,-3,-3,-6,29,4,0
1528280739802765,0,-1,0,7,17,19,10,1
1528280739817752,0,-1,2,0,-2,-21,-8,-1
1528280739817752,-1,-1,-1,-2,1,-3,-1,0
1528280739819720,-2,-1,0,-1,-3,-8,0,0
1528280739819720,-2,-2,-2,-3,-8,-1,-3,-3
1528280739840673,-1,0,0,-1,0,6,3,-1
1528280739840673,0,0,-2,-3,-4,-3,-5,-2
1528280739842662,-1,-1,-1,-7,-11,-14,-4,-2
1528280739842662,1,-1,1,6,11,14,1,-1
1528280739854626,-1,1,-1,3,10,1,0,-1
1528280739854626,-1,-2,-1,1,1,0,-1,0
1528280739862608,-1,-1,0,-2,-4,1,-2,-3
1528280739862608,-2,1,-2,-3,-11,-14,-1,-1
1528280739877565,0,0,0,-1,0,0,-1,0
1528280739877565,0,-1,-1,-2,0,4,1,-1
1528280739884550,-4,-4,-3,1,1,2,0,-1
1528280739884550,0,1,-2,0,-2,-6,-1,-1
1528280739900507,0,-1,-2,0,0,-2,-2,0
1528280739900507,-1,1,-1,-2,0,5,0,1
1528280739902501,-1,-3,-2,-1,-5,-19,-7,-2
1528280739902501,-1,2,0,-1,0,15,4,0
1528280739922453,0,-5,0,-1,-3,8,3,0
1528280739922453,-2,1,-1,-1,-4,-6,2,-1
1528280739923442,0,0,-1,1,6,10,0,2
1528280739923442,-2,0,2,-2,-5,-9,-3,0
1528280739936411,-3,-3,-2,-3,0,-9,-6,-7
1528280739936411,0,-2,-1,2,6,-1,0,-1
1528280739944389,0,0,0,-1,-2,0,-1,-2
1528280739944389,2,-1,-3,-3,-4,-3,-2,1
1528280739959350,-2,-1,-1,-2,-4,-4,-2,-1
1528280739959350,-1,-3,1,-1,-4,1,0,-2
1528280739960362,-1,-1,-2,-1,0,1,1,-3
1528280739960362,-1,-3,-2,-1,0,-4,-1,-1
1528280739982429,-2,1,-2,-1,-3,-1,-1,3
1528280739982429,2,2,1,-1,-2,1,-1,-1
1528280739983283,-1,-2,2,0,4,3,-1,-5
1528280739983283,-1,-6,-4,0,-3,-3,-2,-1
1528280739996295,1,0,-2,-2,0,-2,-4,-2
1528280739996295,-4,-4,-3,-1,-5,-1,1,0
1528280740004349,-2,2,1,-2,-2,-1,0,1
1528280740004349,-2,-4,0,0,0,-4,-4,-2
1528280740020298,0,-1,-1,-1,-3,-1,1,1
1528280740020298,-3,-2,-2,0,-1,-7,-6,-3
1528280740020298,0,-1,-2,-1,-2,12,4,0
1528280740020298,-2,-2,-1,0,-1,-3,1,0
1528280740042427,-2,1,0,0,-3,-4,-4,-1
1528280740042427,-1,-1,-1,-2,-2,0,-1,-1
1528280740043554,-2,0,-3,-1,-1,-8,-4,1
1528280740043554,-2,0,0,-1,0,3,1,-4
1528280740065491,-1,0,0,0,-2,1,1,-2
1528280740065491,-2,-2,0,1,2,-1,-3,-3
1528280740066330,0,-2,-2,-2,-4,-1,6,-2
1528280740066330,0,5,2,0,2,2,-2,2
1528280740080293,-2,-6,-2,0,-2,-2,-1,-2
1528280740080293,-2,-3,-1,-1,-2,0,-2,-2
1528280740080293,-1,-4,-2,-2,-3,0,-3,-1
1528280740080293,-1,2,-2,-1,-2,-3,2,-1
1528280740102564,-3,-1,0,-1,-3,0,-3,0
1528280740102564,-1,0,-1,-3,-2,2,-1,1
1528280740103564,0,-1,-1,-1,3,1,-1,-2
1528280740103564,-1,0,-1,-1,-3,-2,-1,-2
1528280740117518,-1,-2,-2,-1,2,0,-2,-2
