timestamp,emg1,emg2,emg3,emg4,emg5,emg6,emg7,emg8
1528280742949130,-1,0,0,-1,0,-1,-1,-1
1528280742949130,2,-1,-1,1,0,1,1,0
1528280742963104,1,0,-2,-1,2,1,1,0
1528280742963104,0,-2,-2,-1,0,-1,-1,0
1528280742972069,1,-1,0,-1,-1,0,-1,-2
1528280742972069,-1,-2,0,-1,0,-2,-1,1
1528280742978072,-1,-1,-1,-2,-3,-2,0,0
1528280742978072,0,-1,-3,-1,0,1,1,-2
1528280742994019,-1,0,1,-1,2,1,-2,-1
1528280742994019,-1,0,0,0,0,-2,0,-1
1528280743000036,-1,-1,0,0,-1,1,1,0
1528280743000036,0,1,-1,0,0,0,-2,-2
1528280743015952,1,-2,2,0,-1,-1,0,0
1528280743015952,-1,0,0,0,-1,-1,-2,-2
1528280743022933,-2,0,0,0,-1,-1,-2,0
1528280743022933,-2,0,2,1,1,0,-1,-1
1528280743031923,0,-1,-2,0,-1,1,-3,-1
1528280743031923,-1,1,-1,0,-1,-3,-1,-1
1528280743037893,1,-1,-2,1,1,0,-1,-1
1528280743037893,-1,-1,0,0,-1,-1,0,-1
1528280743052855,0,1,1,-1,0,0,0,1
1528280743052855,0,0,-1,-1,0,1,-2,-1
1528280743060831,-1,-2,-1,0,0,-1,0,0
1528280743060831,0,-1,0,-1,-1,-1,0,1
1528280743075791,0,0,-3,-1,0,-1,-1,-1
1528280743075791,1,-2,-1,-1,-1,-1,-1,-2
1528280743082774,-1,0,1,-1,1,-2,0,-2
1528280743082774,0,0,-1,0,-1,-2,0,-1
1528280743091751,-2,-3,0,-1,-2,-3,-2,-1
1528280743091751,0,0,0,0,0,1,-1,-2
1528280743097733,1,-2,0,-1,-1,-2,-1,-2
1528280743097733,-2,-2,1,0,-2,-1,-2,-2
1528280743113690,-1,-1,-1,-2,-1,-1,-1,-1
1528280743113690,-2,-2,0,-1,1,-1,-1,-1
1528280743120671,-2,-2,0,0,1,-1,-1,-1
1528280743120671,-1,1,-2,-1,0,0,1,0
1528280743135631,-2,-1,0,-1,0,-2,0,-1
1528280743135631,-1,0,0,1,0,0,0,-1
1528280743142650,1,0,0,0,-1,-1,0,0
1528280743142650,-1,-1,-2,1,-1,1,0,-1
1528280743151598,-1,0,-1,-1,-1,0,0,-1
1528280743151598,-2,-2,-2,-2,-1,-1,0,1
1528280743157575,-1,0,0,0,0,1,-1,-1
1528280743157575,1,-1,1,-3,-1,0,-2,-1
1528280743173531,0,-1,-1,0,-1,-1,2,0
1528280743173531,0,1,-1,-2,0,1,-1,-1
1528280743180551,0,-1,-1,0,-1,-1,0,-1
1528280743180551,1,-2,0,-1,-1,0,-1,0
1528280743195471,-1,0,-1,-1,0,-1,-2,-1
1528280743195471,0,-1,-1,0,-1,0,-1,0
1528280743202509,0,-1,-1,-1,-1,1,-1,0
1528280743202509,-1,-1,-1,-1,1,0,-1,0
1528280743211429,0,-2,-1,1,0,0,-1,-2
1528280743211429,-1,1,0,0,-2,-1,1,0
1528280743217413,0,1,-1,1,-1,0,-1,-2
1528280743217413,-2,0,-1,0,-2,0,-1,-1
1528280743233370,-2,-1,0,-1,0,0,0,-1
1528280743233370,-1,-2,1,-1,0,0,-2,-2
1528280743240351,0,0,-2,0,-2,0,0,0
1528280743240351,-1,0,-2,-1,0,0,-1,-1
1528280743255313,0,0,-2,0,0,0,0,0
1528280743255313,1,-2,-1,0,0,-1,-1,-1
1528280743262293,-1,-1,-1,-1,0,-1,0,-1
1528280743262293,0,-1,-1,-1,-2,-2,0,-1
1528280743272266,-1,0,1,1,-1,1,-2,-1
1528280743272266,0,0,-1,0,-1,-2,1,-1
1528280743278250,-1,1,-1,-1,-1,-1,-2,0
1528280743278250,-1,0,0,0,-1,1,0,-1
1528280743293211,-1,-1,-1,-1,-1,0,-1,-1
1528280743293211,0,0,0,-1,-1,1,1,-1
1528280743300238,0,-2,-1,-1,0,1,0,-1
1528280743300238,0,0,-1,0,1,0,0,-1
1528280743316201,0,-1,-1,-2,-2,-1,-2,1
1528280743316201,1,-1,0,1,1,0,0,-2
1528280743323132,-1,1,0,0,-1,0,1,0
1528280743323132,-1,-1,1,0,-1,-1,0,-2
1528280743332127,-1,0,-1,-1,0,-2,0,1
1528280743332127,0,1,-3,-1,0,-1,0,1
1528280743346070,-2,0,0,-4,0,-1,-2,-1
1528280743346070,1,-1,0,-1,0,0,1,0
1528280743353051,-2,-1,-1,0,-1,1,1,-3
1528280743353051,0,-2,2,-2,0,0,-1,-1
1528280743360033,0,-1,-1,0,-1,-1,0,-1
1528280743360033,-1,0,0,-2,0,0,-1,0
1528280743375990,-1,0,-1,-2,0,0,0,1
1528280743375990,0,0,-1,0,1,1,1,-2
1528280743382971,-1,-1,-2,0,-2,0,-1,-1
1528280743382971,0,-1,-1,-2,-2,-1,-1,0
1528280743391947,1,0,0,0,0,0,-1,0
1528280743391947,-3,0,-1,-1,-2,0,0,-1
1528280743405910,0,-1,1,1,1,-1,0,0
1528280743405910,-2,0,-2,-1,-1,-1,-2,-1
1528280743412890,-1,-1,-2,1,0,-1,0,-1
1528280743412890,-2,0,-1,-1,-1,0,-2,-1
1528280743419873,0,-1,-1,-4,0,-2,0,-1
1528280743419873,-1,-1,1,0,1,-1,0,-1
1528280743435830,0,0,1,0,0,-1,0,0
1528280743435830,0,-2,0,-1,0,-2,-2,-2
1528280743442812,0,-2,0,-2,-2,-1,-2,0
1528280743442812,0,0,0,-1,0,0,0,-1
1528280743451788,1,0,0,0,-1,1,0,-2
1528280743451788,-1,0,1,0,0,-2,0,0
1528280743465804,-1,-1,-1,1,0,0,-2,-1
1528280743465804,1,0,0,-2,-1,0,-1,1
1528280743472731,-2,0,-2,1,-1,1,0,-1
1528280743472731,0,-2,0,-2,-2,-1,-1,0
1528280743480727,-1,-3,-1,-1,-1,-2,-1,0
1528280743480727,0,-1,0,-1,-1,-2,0,0
1528280743503649,-1,-2,1,-1,0,-1,0,-2
1528280743503649,-1,-1,0,-1,-1,-1,0,0
1528280743504645,-1,-1,-1,0,-1,1,1,-1
1528280743504645,0,0,-1,0,0,1,0,0
1528280743511628,-1,1,-1,-1,-2,-2,-1,-3
1528280743511628,-2,-1,-2,-1,2,0,-2,-2
1528280743525628,0,1,1,0,-1,-1,-3,-2
1528280743525628,-2,-1,-2,0,0,0,0,0
1528280743533568,0,-3,-2,1,0,1,0,1
1528280743533568,0,0,-1,1,-2,0,0,-1
1528280743540551,0,0,-1,0,-1,1,0,0
1528280743540551,-1,-2,0,0,1,-1,-2,-1
1528280743555527,0,0,0,-2,0,0,-1,-1
1528280743555527,0,0,-3,-2,-1,0,1,-1
1528280743562491,-1,0,-2,-1,-1,-2,-1,-1
1528280743562491,0,0,0,0,0,0,1,-1
1528280743571467,-1,-2,-1,-1,0,-2,0,-2
1528280743571467,0,1,1,0,1,1,-2,0
1528280743586588,1,0,-1,-1,3,0,1,1
1528280743586588,0,-2,0,-1,-2,-3,-3,-2
1528280743592578,-1,-2,0,-2,-2,0,-1,-1
1528280743592578,-2,-1,0,0,-1,-2,0,-1
1528280743600556,-1,-1,1,2,0,1,-1,-1
1528280743600556,0,-1,-1,0,-1,-1,0,1
1528280743615561,0,0,-1,-1,1,0,0,0
1528280743615561,0,-2,0,0,1,0,-1,-1
1528280743622498,-1,-1,-3,-1,-1,0,-1,-2
1528280743622498,-1,0,0,-1,0,-1,0,-2
1528280743631471,0,-1,2,-1,-2,0,-1,0
1528280743631471,1,-1,-1,0,0,-2,1,0
1528280743646607,-1,-1,-1,-3,-2,0,0,-2
1528280743646607,-1,0,0,0,-1,0,-2,0
1528280743653417,-1,0,-1,-1,-1,0,-1,0
1528280743653417,-1,0,1,-1,-1,0,-1,0
1528280743660744,0,1,0,-2,-2,-2,0,-1
1528280743660744,0,-1,-1,0,0,0,1,-1
1528280743675562,0,-1,-2,0,0,0,-1,-1
1528280743675562,-1,-1,-3,-1,0,-2,-1,-1
1528280743682547,0,0,-2,0,1,0,-1,0
1528280743682547,-1,0,0,0,-1,-1,-1,0
1528280743691633,-2,0,-2,1,-1,-1,-2,-1
1528280743691633,-1,-1,-1,-1,-1,0,-1,-1
1528280743706483,-1,1,-1,-1,0,-2,0,-1
1528280743706483,-1,-1,-1,-3,-1,-3,0,-2
1528280743712462,-1,0,-1,-2,-3,-1,0,-2
1528280743712462,-1,-1,0,1,-2,-1,-1,1
1528280743720585,-1,-1,0,0,0,1,-1,-1
1528280743720585,0,0,1,-1,1,-2,-1,-1
1528280743735401,1,-1,-1,1,-1,-2,0,0
1528280743735401,-3,-1,-1,0,-1,-2,0,0
1528280743743383,1,0,0,0,0,-1,-3,-1
1528280743743383,-3,-1,-2,-1,-2,0,-1,-1
1528280743751397,-1,0,0,0,-1,-2,-1,-1
1528280743751397,-1,1,0,-1,0,-1,1,-1
1528280743766449,-3,-1,-1,0,0,-1,0,0
1528280743766449,1,0,-1,0,-2,-1,0,0
1528280743773359,1,-1,0,-2,0,0,0,-1
1528280743773359,0,0,-1,-1,0,0,-2,-1
1528280743780419,-2,-1,1,-1,0,-1,-2,-1
1528280743780419,0,0,0,0,0,-1,0,1
1528280743795590,0,1,-2,-2,0,1,2,0
1528280743795590,-2,-2,0,-3,0,0,-1,-1
1528280743803427,-1,-1,-1,0,-1,0,-1,0
1528280743803427,0,0,-1,0,0,1,-1,1
1528280743818402,0,0,-2,0,2,0,-1,-2
1528280743818402,1,-2,-1,0,-1,-1,0,-1
1528280743826374,0,-1,0,-1,-2,-1,0,0
1528280743826374,-1,-1,-1,1,0,1,0,-1
1528280743841320,-1,-1,0,0,2,-2,-2,1
1528280743841320,-2,-1,-2,0,0,1,-1,0
1528280743842317,0,0,0,-1,-1,-2,1,0
1528280743842317,0,-1,-1,-2,0,0,-1,0
1528280743855140,1,-1,-1,-1,-1,0,1,-2
1528280743855140,0,0,-1,-3,-1,0,-1,-1
1528280743863244,1,-2,0,-2,-1,-1,0,0
1528280743863244,-2,-2,1,1,-1,-1,-1,-1
1528280743878359,-2,0,0,-1,-2,-1,0,0
1528280743878359,1,-1,-1,-1,-1,-2,-2,0
1528280743886243,-1,1,-1,-1,-2,1,0,-1
1528280743886243,0,0,0,0,-1,-1,-2,-1
1528280743901203,-2,-1,0,-1,-1,0,-2,1
1528280743901203,-1,-2,-1,-1,1,-1,-1,-1
1528280743902203,-2,-1,-3,-1,-1,0,-1,2
1528280743902203,0,-2,0,0,1,1,-1,0
1528280743915167,0,0,-2,1,-1,-2,0,-1
1528280743915167,-1,0,-2,0,-1,0,-1,0
1528280743922366,-2,-2,0,-2,1,0,0,-2
1528280743922366,-2,0,0,-2,-2,-2,-1,0
1528280743937482,-1,-1,1,-1,-2,-1,-1,-1
1528280743937482,-1,0,-1,-1,0,1,0,-1
1528280743946459,0,-1,-1,1,-1,0,-2,0
1528280743946459,0,0,0,-1,-3,0,0,-1
1528280743960791,1,-1,-1,0,-1,-2,-1,-1
1528280743960791,-1,-2,0,0,-1,-2,-2,-1
1528280743961628,-1,0,-1,0,-1,0,-1,-1
1528280743961628,-1,2,-2,-1,0,-1,0,-1
1528280743975898,0,-2,1,-1,0,2,0,1
1528280743975898,-1,-1,0,0,0,-1,1,-2
1528280743982783,0,0,-1,-1,-1,-1,-1,0
1528280743982783,-1,-1,-1,1,-1,-2,-1,-1
1528280743997939,-1,-3,-2,-1,0,-2,1,-1
1528280743997939,1,0,0,-2,-1,-3,-1,1
1528280744005915,-1,-1,-2,-1,-1,0,-1,0
1528280744005915,0,0,0,0,-1,-2,0,0
1528280744021048,-1,-1,-2,1,-2,-1,-1,-3
1528280744021048,1,-2,0,1,-1,0,1,0
1528280744022069,1,0,-1,-1,1,-1,1,0
1528280744022069,-1,-1,-1,-1,-1,-1,0,0
1528280744035157,0,1,-1,-1,-1,1,-1,0
1528280744035157,1,1,1,-1,-2,0,-2,0
1528280744043340,0,0,1,-2,1,0,0,0
1528280744043340,-2,-1,0,0,0,-1,-2,-1
1528280744058382,-2,-1,0,-1,-1,1,-2,0
1528280744058382,0,-1,0,0,0,0,0,-1
1528280744066367,0,-3,-1,-2,0,-3,0,0
1528280744066367,0,-1,-2,-1,-2,-1,-2,-2
1528280744080792,-2,0,-1,1,1,-1,-1,0
1528280744080792,-2,-2,-1,-2,-1,-1,0,1
1528280744081629,-1,0,0,1,-1,1,-1,-1
1528280744081629,0,-1,1,-1,-1,1,-1,1
1528280744095934,0,-2,0,0,-1,0,0,0
1528280744095934,0,0,-1,-1,1,1,0,-1
1528280744103079,-1,1,0,1,-1,-2,-1,0
1528280744103079,-1,-2,0,-1,0,-1,0,-1
1528280744118080,-1,0,-1,-2,0,0,1,0
1528280744118080,0,0,-2,-2,1,0,-3,-1
1528280744126043,1,-1,-1,-1,-2,-1,0,-1
1528280744126043,0,0,1,0,0,-1,0,0
1528280744141000,-1,0,-1,2,0,1,0,0
1528280744141000,0,0,-2,0,-1,-3,-2,-1
1528280744141859,-1,-1,-1,-1,-1,-1,1,1
1528280744141859,0,1,0,-1,0,-1,0,-1
1528280744154999,-1,-1,0,-1,0,0,0,-2
1528280744154999,0,-1,0,-2,-2,0,0,-1
1528280744163120,-1,-1,0,1,-1,-1,-1,-2
1528280744163120,1,0,-2,1,-1,0,0,0
1528280744178347,-1,-1,-3,-1,1,-1,0,0
1528280744178347,-1,-1,0,0,-1,1,0,0
1528280744186164,-1,-2,0,-1,-1,0,0,0
1528280744186164,-2,-1,-1,-1,1,0,-1,-1
1528280744201264,0,0,-1,-1,-2,-4,0,0
1528280744201264,-2,1,-1,0,0,-1,-2,-1
1528280744202277,0,0,0,-1,-1,0,-2,-1
1528280744202277,-1,0,0,0,-2,0,-2,-1
1528280744215242,0,1,-1,-2,0,-1,-1,-2
1528280744215242,0,-1,0,-2,0,-2,1,0
1528280744223221,-2,1,-1,0,0,0,1,1
1528280744223221,1,0,0,0,0,-1,-1,0
1528280744238025,0,-2,2,-1,-2,-3,1,-1
1528280744238025,-2,0,-3,1,-2,-1,-1,-1
1528280744246163,-1,0,-1,-1,-1,-2,-2,-1
1528280744246163,-3,-2,0,-2,0,-1,0,1
1528280744261121,-1,0,0,0,1,0,1,-1
1528280744261121,0,-3,-2,-1,2,0,0,-1
1528280744261964,-1,-1,0,-2,0,-2,-1,-2
1528280744261964,-1,0,-2,1,-1,-1,-1,-1
1528280744275949,-2,-1,-2,-1,0,-1,-2,-1
1528280744275949,-2,0,1,0,-1,-1,-1,-2
1528280744283061,0,0,-1,-1,-1,0,-1,0
1528280744283061,1,-1,-1,-3,-2,0,1,0
1528280744298023,-2,-2,-1,0,1,1,-1,0
1528280744298023,0,-1,-2,0,-1,-2,0,-2
1528280744305844,-1,0,-1,0,0,0,1,0
1528280744305844,0,-1,0,0,0,-1,-2,-1
1528280744320006,-2,-1,-1,-3,-1,-1,-1,0
1528280744320006,-1,0,-1,1,1,0,0,0
1528280744329078,0,-2,-1,-2,1,-1,-1,-3
1528280744329078,-1,1,-2,-1,0,0,0,1
1528280744334986,1,-2,0,-1,-1,-2,0,0
1528280744334986,0,-2,0,-1,-1,0,0,0
1528280744343089,-1,-3,0,0,0,-1,0,1
1528280744343089,0,-2,-1,-1,0,-2,-1,-2
1528280744358065,-1,-1,-1,-1,-1,-1,-1,0
1528280744358065,0,0,1,-2,-2,-2,0,0
1528280744366226,1,-1,1,1,0,0,-1,-2
1528280744366226,0,-1,0,1,0,-1,-1,-1
1528280744380180,-2,-1,-2,1,-2,0,-1,-1
1528280744380180,-1,-2,-1,-1,0,-2,-1,-1
1528280744388224,-2,-1,0,-1,-1,-1,1,0
1528280744388224,1,0,-1,-2,0,0,1,-2
1528280744395895,0,1,-1,1,1,0,-1,-3
1528280744395895,-1,-2,-2,-2,-1,-3,-2,1
1528280744403000,0,0,0,0,-1,0,0,0
1528280744403000,-2,-1,0,1,-1,0,-3,0
1528280744417841,0,-2,-1,-1,-1,0,0,1
1528280744417841,0,-2,0,-2,0,0,1,-1
1528280744425817,-1,-1,-3,-2,-1,0,0,0
1528280744425817,-1,-1,-2,-1,0,0,1,-1
1528280744440910,0,-1,-2,-1,-1,-1,-3,-1
1528280744440910,0,0,0,1,0,-3,-2,0
1528280744449124,0,-1,-1,0,-1,-2,-1,0
1528280744449124,-1,-1,0,0,-1,-2,0,0
1528280744455110,-1,-2,0,-1,0,0,1,2
1528280744455110,0,1,-1,0,0,2,-1,-1
1528280744463313,-2,-3,-2,-1,-2,-2,-1,0
1528280744463313,-1,-2,-1,2,0,1,1,-1
1528280744478379,1,-2,0,-3,-1,0,-1,-1
1528280744478379,-1,-1,-1,-1,0,-1,-1,0
1528280744486616,-1,-2,0,-1,1,1,-1,1
1528280744486616,1,0,-1,-2,-2,0,-1,0
1528280744500763,-1,0,0,1,0,-1,1,-2
1528280744500763,-1,0,-1,-2,-1,-2,-1,-1
1528280744508742,0,0,0,-1,1,0,-1,-1
1528280744508742,0,-1,0,-1,0,-1,0,1
1528280744523682,0,1,-2,1,0,-2,0,0
1528280744523682,0,-1,-1,0,0,-1,-1,-1
1528280744524679,-2,1,0,0,0,0,1,0
1528280744524679,-2,-2,-2,0,0,1,0,-1
1528280744537509,0,1,0,0,1,1,0,0
1528280744537509,1,-1,-2,1,-1,1,-1,1
1528280744546638,-1,0,-1,-2,-2,-2,1,-1
1528280744546638,-1,-1,0,-2,-1,0,-2,-1
1528280744560448,-1,1,-2,-1,-2,1,0,-1
1528280744560448,-2,-2,2,-1,0,1,1,1
1528280744568439,0,-1,0,0,0,-1,-1,-1
1528280744568439,-1,0,-1,-2,-1,-3,0,0
1528280744583434,0,-2,0,0,-2,0,-1,1
1528280744583434,0,-1,1,-1,0,-1,0,-2
1528280744584433,1,-1,-1,-1,-1,0,-1,-1
1528280744584433,-1,0,-3,-1,0,0,0,0
1528280744597348,-1,-1,1,-3,-1,-1,-1,1
1528280744597348,-1,0,0,1,-1,-1,0,-1
1528280744606325,0,0,-1,1,0,-1,-1,1
1528280744606325,1,0,-1,0,-2,0,-2,0
1528280744620287,-1,-2,-1,0,1,-2,-1,-1
1528280744620287,0,-2,-2,-1,-1,-2,-1,-1
1528280744628266,0,-2,-1,-1,-1,-1,-3,-1
1528280744628266,1,0,0,-1,-2,-1,-1,-1
1528280744643226,0,-2,0,-2,0,1,-1,-1
1528280744643226,0,0,0,-1,-1,-1,-1,0
1528280744644223,-1,1,-1,0,-1,-2,0,-2
1528280744644223,-1,-2,0,-1,0,-1,-1,-2
1528280744658186,-1,-1,-2,1,0,-1,0,0
1528280744658186,-1,0,0,0,0,0,1,0
1528280744666164,-1,0,-1,-1,-1,0,-2,0
1528280744666164,-2,-1,1,-1,1,0,0,1
1528280744680127,-2,1,1,-1,-1,-2,-1,-1
1528280744680127,-1,-1,-2,0,-1,-1,1,-1
1528280744688118,-1,-2,-1,-2,-1,0,-1,0
1528280744688118,-1,-2,0,-1,-1,-1,1,0
1528280744704072,-1,-1,0,-2,-2,-1,-1,1
1528280744704072,-1,-1,-2,-2,1,0,-1,-1
1528280744704072,-1,1,0,1,-2,-1,0,-2
1528280744704072,-1,0,0,-1,-1,0,-1,0
1528280744718026,-1,0,-2,0,0,0,0,-1
1528280744718026,-1,0,0,-1,0,-1,-1,0
1528280744726005,-2,-1,-1,0,0,-1,-1,1
1528280744726005,-2,-1,-1,0,0,-2,-1,-2
1528280744739967,0,0,0,0,0,-1,0,-1
1528280744739967,-2,-1,0,-1,-1,0,-1,-1
1528280744748943,-2,-2,0,-1,-1,0,-1,-2
1528280744748943,0,-1,-1,-1,-2,-1,1,-1
1528280744763904,-1,-2,-1,-1,-1,-3,-1,0
1528280744763904,0,1,-1,0,-1,-2,1,0
1528280744763904,1,0,-2,-1,-2,-1,-1,0
1528280744763904,0,-1,0,-1,0,0,0,0
1528280744777921,0,-2,-1,0,-1,2,0,-2
1528280744777921,0,-1,-1,-1,-1,1,-1,-1
1528280744785898,1,-1,0,-1,1,-1,1,1
1528280744785898,0,-1,0,-1,0,-1,-1,-2
1528280744799867,0,0,0,-1,-2,0,1,-1
1528280744799867,-1,0,0,-1,-1,-1,-2,-2
1528280744808839,-1,0,-2,0,-1,-1,0,0
1528280744808839,-1,1,-2,0,-1,-1,-2,-1
1528280744823803,0,1,1,-1,0,-2,-1,-1
1528280744823803,0,-2,-1,0,0,1,-3,1
1528280744824788,0,-2,-1,-2,0,0,-1,-1
1528280744824788,-1,-1,0,-1,-1,-2,0,-1
1528280744837748,-1,-2,-1,0,-1,2,0,0
1528280744837748,0,-1,-1,0,-1,-2,-1,2
1528280744845741,-1,-1,-1,-1,1,-2,0,-1
1528280744845741,0,0,-1,-1,0,-1,0,-1
1528280744860700,0,0,-1,0,-1,-1,-2,0
1528280744860700,0,1,-1,0,-1,1,1,-1
1528280744868676,-1,0,-1,-1,-1,1,-1,-1
1528280744868676,-1,0,0,0,-1,0,-1,0
1528280744883587,0,0,-1,-1,-2,-3,0,-1
1528280744883587,-2,-1,-1,0,-1,0,0,0
1528280744884584,-1,1,1,-1,-1,0,-1,0
1528280744884584,0,0,0,-1,2,1,1,-1
1528280744897547,0,-2,-1,0,0,-1,-1,-1
1528280744897547,0,-2,1,-1,0,-1,0,1
1528280744906457,-2,-1,-1,-1,0,0,0,-1
1528280744906457,0,-1,-1,0,0,-1,0,1
1528280744920669,-1,-2,-2,-1,1,-1,-1,0
1528280744920669,0,-1,-1,-1,-1,0,0,-3
1528280744928627,-1,-1,0,0,-1,-2,-1,-1
1528280744928627,0,-1,-2,-1,-2,0,-2,0
1528280744943549,-2,0,0,-1,0,-2,-1,-1
1528280744943549,0,-2,-1,-1,-1,0,-1,-1
1528280744944569,0,0,0,1,-2,-1,-1,0
1528280744944569,0,-1,0,-1,0,-1,-2,0
1528280744957510,-1,-1,-1,-1,0,-1,-1,1
1528280744957510,0,-1,-1,0,-1,0,-1,-1
1528280744966549,-2,-1,1,-1,-1,-2,-1,0
1528280744966549,1,0,-1,-1,-2,-2,0,-1
1528280744980456,-1,-1,-3,-1,-1,1,0,-1
1528280744980456,-1,0,0,-1,-1,-1,0,0
1528280744989425,1,-1,1,-1,-1,-2,1,-2
1528280744989425,-1,-2,-1,-1,-1,-1,0,0
1528280745003435,0,-1,1,-3,0,-1,0,0
1528280745003435,0,-1,0,-1,-1,-2,-1,-3
1528280745011368,-1,-1,-1,0,-1,0,-1,-3
1528280745011368,0,-1,-1,0,0,-1,0,-3
1528280745017349,-1,-1,-1,0,-1,1,-1,0
1528280745017349,-2,-1,-1,-1,0,-1,-1,0
1528280745027326,0,1,-2,-1,-2,0,0,-1
1528280745027326,-2,-1,-2,-2,-1,-2,-3,-1
1528280745040485,-2,0,1,-1,-2,-1,-1,-1
1528280745040485,-1,-1,0,-2,0,-2,-1,-3
1528280745056592,-1,-2,0,0,-1,-2,0,1
1528280745056592,-2,-1,-2,-1,-1,0,0,0
1528280745063425,0,-2,0,0,0,-1,0,-1
1528280745063425,-1,1,1,1,-1,-1,0,1
1528280745071404,-2,-1,0,-2,-1,-1,-2,-1
1528280745071404,-1,-1,1,1,-2,-1,-1,-1
1528280745078386,2,1,0,-2,0,-2,0,-2
1528280745078386,1,1,-1,1,0,1,0,1
1528280745087364,0,-1,-1,-2,0,-1,0,-1
1528280745087364,1,2,-1,0,1,-2,-2,1
1528280745100413,-1,1,-1,0,-2,0,-1,-2
1528280745100413,-1,0,-1,-3,0,-2,0,0
1528280745109579,0,0,0,-1,0,1,-2,0
1528280745109579,0,-1,0,-2,0,0,-1,-1
1528280745123542,-1,0,0,0,0,-1,-3,-1
1528280745123542,1,-1,-3,0,-2,-1,-1,0
1528280745131735,-2,-1,-2,2,-2,-2,0,0
1528280745131735,0,0,-1,0,-1,0,0,-1
1528280745137719,-2,0,-1,1,0,-1,2,-1
1528280745137719,-1,0,1,-1,-1,1,-1,1
1528280745146696,0,-2,0,1,-1,0,1,0
1528280745146696,0,-1,1,-2,0,0,0,-1
1528280745160679,-1,-2,0,-1,1,0,1,-1
1528280745160679,0,-1,-1,-1,-1,1,-1,-1
1528280745169635,0,-1,-2,-1,0,-1,-1,-2
1528280745169635,-1,-1,-2,-1,0,-1,-1,-1
1528280745183628,0,-1,0,0,-1,-1,-1,0
1528280745183628,0,1,0,-1,0,-1,-1,-1
1528280745191606,1,-1,-1,-1,-1,-1,0,-1
1528280745191606,-3,-1,-2,0,0,-1,-1,0
1528280745197563,0,0,-2,-1,-2,0,-3,-1
1528280745197563,-1,-1,0,1,-1,-1,-1,-1
1528280745206699,0,-1,0,-1,-2,-1,-2,0
1528280745206699,1,-2,0,0,1,-2,0,0
1528280745220722,0,-1,1,-1,0,-1,0,0
1528280745220722,-1,-1,0,-1,-1,0,0,1
1528280745229773,-1,1,-1,-1,-1,0,1,0
1528280745229773,0,0,-1,0,0,-1,1,0
1528280745243604,0,0,0,0,0,-1,0,0
1528280745243604,0,-2,-1,-1,-2,0,0,0
1528280745251751,-2,0,0,-3,-1,-1,0,1
1528280745251751,-1,1,0,0,-1,0,-1,1
1528280745258097,0,0,0,-1,0,0,0,1
1528280745258097,0,0,0,1,0,-1,0,-2
1528280745266926,-1,-1,-1,-1,0,1,0,0
1528280745266926,-1,-2,-1,-2,-1,0,1,-2
1528280745280258,-1,-1,-1,0,0,-1,-1,-2
1528280745280258,-1,-2,-1,-2,0,-1,-2,0
1528280745289236,0,-1,-1,0,0,-1,0,-1
1528280745289236,-1,-1,0,0,0,0,-1,-2
1528280745303198,-1,-1,-2,-1,0,-1,-1,1
1528280745303198,0,-2,-2,-2,0,0,-1,-1
1528280745312331,-2,-1,0,0,0,-1,-1,-2
1528280745312331,-1,-2,2,0,-1,1,0,-1
1528280745318300,0,-1,-1,-2,0,-1,-2,0
1528280745318300,-1,-2,-1,1,0,1,0,1
1528280745327290,0,-2,-3,1,-2,-2,-3,0
1528280745327290,0,-1,-1,0,-3,-3,-1,-2
1528280745340102,1,1,-2,0,0,0,0,-1
1528280745340102,1,-1,-2,-1,-2,-2,-2,0
1528280745349145,0,0,0,1,0,-1,-2,0
1528280745349145,-1,-2,0,0,1,1,-2,-1
1528280745363108,0,-2,1,-2,-2,-2,-1,-1
1528280745363108,-1,0,0,0,0,0,0,-1
1528280745372085,0,-1,0,1,0,-2,1,0
1528280745372085,1,0,1,-2,-1,-1,-1,1
1528280745378209,-2,2,-2,0,0,0,0,0
1528280745378209,0,-2,0,0,-1,-2,0,0
1528280745386378,1,1,-2,-1,-1,-1,-1,-1
1528280745386378,-1,0,-3,0,-1,-1,-1,-1
1528280745400343,0,-1,0,-1,0,0,-1,-2
1528280745400343,-1,-1,-1,0,-1,-1,-1,-2
1528280745409316,-2,-2,0,0,-1,0,1,-1
1528280745409316,-1,-1,-1,0,0,-1,-1,0
1528280745423279,-1,-2,-1,0,-1,0,-1,0
1528280745423279,-3,-1,0,-2,0,-2,0,-1
1528280745432257,0,-1,1,-1,0,0,-1,0
1528280745432257,-1,-1,-1,-1,-2,0,2,0
1528280745447271,0,0,0,0,0,-1,-1,1
1528280745447271,0,0,1,-1,-2,-2,-3,-1
1528280745448212,-1,0,1,0,-1,-1,-1,-1
