timestamp,emg1,emg2,emg3,emg4,emg5,emg6,emg7,emg8
1528445741609614,-1,0,-1,-1,0,0,-1,-3
1528445741609614,-2,-1,-1,0,-2,-3,-1,3
1528445741610613,-1,1,-1,-2,0,-2,-1,-2
1528445741610613,-2,0,-3,-1,-1,-1,-1,-2
1528445741611610,-1,0,0,0,-1,-1,-2,-1
1528445741611610,-1,-1,-1,0,-1,0,-1,-3
1528445741612607,-2,0,-2,-2,0,0,-1,-1
1528445741612607,1,-2,0,-3,-2,-2,-1,0
1528445741613604,-2,0,-1,0,-1,-2,-1,-2
1528445741613604,-1,0,0,-1,0,1,0,-4
1528445741626569,2,-2,0,1,-2,-1,-1,5
1528445741626569,-2,-1,-1,-1,-2,-1,-2,-2
1528445741636591,-1,-2,-1,-3,-2,-1,1,1
1528445741636591,-1,-1,0,-2,-2,-1,-1,1
1528445741649508,-2,-1,-3,0,-1,-2,-1,-1
1528445741649508,1,0,-2,-2,1,0,-1,0
1528445741657528,0,-2,-2,1,0,-1,-1,0
1528445741657528,-2,-1,-1,0,-1,-1,0,-1
1528445741671448,-1,0,-1,-3,0,-2,-1,-2
1528445741671448,-1,-1,-2,-1,-1,-1,0,2
1528445741679444,-1,1,-1,-1,-1,0,0,-2
1528445741679444,-1,-1,-1,-1,0,-1,-2,0
1528445741711344,-1,-1,-2,-1,-1,-2,0,2
1528445741711344,-1,-1,-1,-1,-1,-2,-1,-1
1528445741718323,-4,-2,-1,-1,-2,-2,-2,-4
1528445741718323,0,-2,-2,0,-1,-3,-1,6
1528445741719321,-2,0,-1,0,-1,-1,0,-2
1528445741719321,-2,-1,-2,-1,-2,-1,-2,-1
1528445741721315,0,-3,-1,-1,-2,-1,0,0
1528445741721315,-3,0,1,-1,-1,0,-1,-6
1528445741731289,-3,0,-3,0,-1,-1,-2,-2
1528445741731289,0,0,-3,-1,0,-1,-1,2
1528445741741263,-1,-1,-2,-2,-1,-3,-1,-3
1528445741741263,0,-1,-2,-1,-1,0,-1,-2
1528445741754228,1,0,-1,-1,0,1,1,0
1528445741754228,-1,0,-1,-1,1,0,0,-2
1528445741761247,-1,-1,-2,1,0,1,-1,-2
1528445741761247,1,-2,-1,-2,1,1,0,-2
1528445741769187,0,-2,-2,-2,0,-1,-1,-1
1528445741769187,0,-1,0,-3,-3,-1,0,0
1528445741784147,0,0,0,-1,0,0,0,4
1528445741784147,-1,0,0,0,0,-1,-2,-2
1528445741792127,0,-2,-1,-1,0,0,-3,0
1528445741792127,0,-1,0,0,0,-1,-1,-2
1528445741814069,-1,0,-2,-3,-1,-2,-3,0
1528445741814069,0,-1,0,-1,-1,0,-4,-2
1528445741815066,0,-2,-1,-2,-1,-2,-1,-1
1528445741815066,-6,-1,-1,-2,0,-2,-1,-5
1528445741829028,3,1,0,-1,1,1,0,6
1528445741829028,-1,-2,-3,-2,-3,-3,-2,-2
1528445741830024,0,0,-1,0,0,0,-1,-4
1528445741830024,1,-2,-1,1,0,-1,1,1
1528445741844985,0,-1,1,0,-1,-1,-1,-4
1528445741844985,-3,-3,-2,-1,-1,-1,0,1
1528445741850996,-3,-2,0,1,-2,-1,-1,-1
1528445741850996,-1,-1,-3,-1,-2,-2,-2,-2
1528445741866927,-2,-1,-1,-1,0,1,-2,-6
1528445741866927,0,-1,-2,-2,-1,-3,-1,5
1528445741867926,-1,-1,-1,-2,-3,-1,-1,-4
1528445741867926,-1,1,-1,-1,-1,0,-2,0
1528445741888867,-2,-1,-2,-2,-1,-1,-1,-2
1528445741888867,-3,-1,0,0,0,0,0,-4
1528445741889865,-2,1,0,-2,-3,-1,0,-4
1528445741889865,2,-2,0,-1,-4,-2,1,4
1528445741903828,0,-3,-2,-1,-1,-2,-1,1
1528445741903828,0,-1,-2,-1,-2,-1,-1,-1
1528445741910809,-2,-1,0,0,1,-2,-2,-2
1528445741910809,-1,-1,0,-1,1,-1,0,-5
1528445741926766,1,-1,-3,-1,-1,0,0,5
1528445741926766,-1,-1,-2,-1,-1,-1,2,-1
1528445741927763,2,0,0,1,-1,-3,-1,1
1528445741927763,-4,-2,-2,-1,-2,0,-2,-6
1528445741949722,0,-2,-1,-1,-1,-2,1,-1
1528445741949722,-1,-2,-1,-1,0,-1,-1,-2
1528445741949722,-1,-3,-2,-3,0,0,-1,-1
1528445741949722,-1,0,-2,1,-1,-1,-1,-1
1528445741963716,-3,-3,-1,-2,-4,-2,-2,-4
1528445741963716,-2,1,0,0,-1,-1,0,-3
1528445741970692,0,-2,-2,-2,0,-2,-1,3
1528445741970692,-3,1,-1,0,0,-3,-1,-7
1528445741986654,-3,-1,-1,-1,0,-3,-1,-2
1528445741986654,6,-1,-1,1,-1,-1,1,5
1528445741987605,-2,0,0,-1,-1,0,-1,-3
1528445741987605,0,-2,-2,-1,0,-2,-1,5
1528445742009574,-4,-2,-1,0,0,0,-1,-5
1528445742009574,-1,-1,-1,-2,-3,-3,-1,1
1528445742010543,-1,-1,0,0,-1,0,-1,0
1528445742010543,0,-2,0,1,-1,0,-1,-1
1528445742031516,0,0,1,1,-1,-1,-1,-2
1528445742031516,-3,-3,-1,0,0,1,-2,-5
1528445742032484,1,0,-2,-2,0,-2,-1,2
1528445742032484,1,-1,-2,0,-1,0,-2,-1
1528445742046475,1,-1,-2,-1,-1,-1,0,2
1528445742046475,-2,-1,-3,-1,0,-1,-2,-2
1528445742047444,-2,-1,0,0,-2,-1,-2,-2
1528445742047444,-1,-1,0,-3,1,1,0,0
1528445742069385,1,0,-3,-1,-1,-1,-1,-5
1528445742069385,-1,-1,1,-4,-1,-1,-2,1
1528445742070383,-1,0,0,0,-1,-2,-1,-1
1528445742070383,0,-1,0,-3,0,-2,-1,0
1528445742092324,1,1,-1,0,-1,0,0,-2
1528445742092324,-2,-1,-1,-2,1,-1,0,-3
1528445742093323,-1,0,-1,-2,-2,-2,-1,1
1528445742093323,-3,0,-1,0,-1,-1,-1,-2
1528445742107286,-3,0,-1,0,0,-1,0,-1
1528445742107286,-1,0,0,1,-1,-1,0,-5
1528445742107286,2,-1,-1,-1,0,-1,-1,3
1528445742107286,-1,-3,0,-1,-1,-1,-2,-2
1528445742129225,0,-2,-1,0,-2,0,-1,-6
1528445742129225,1,1,-1,-1,-1,-1,0,5
1528445742130223,-1,-3,-1,0,-1,0,-1,-2
1528445742130223,-1,0,-1,0,0,-1,0,-2
1528445742152218,-2,-1,0,-3,-2,0,-2,1
1528445742152218,-3,-2,-1,-1,-1,-2,-2,-4
1528445742152218,-2,-1,0,0,1,-1,-1,-2
1528445742152218,0,1,-1,-3,-2,-1,-1,2
1528445742167155,-1,-1,1,-1,-1,-2,-2,0
1528445742167155,-1,0,-2,0,0,0,0,-4
1528445742167155,-2,0,-1,-1,-1,0,-1,-2
1528445742167155,-1,0,-2,0,-2,-1,0,-2
1528445742189092,-1,-2,-2,-1,-1,0,-1,-1
1528445742189092,0,-1,-2,0,-1,-1,-3,1
1528445742190063,-1,-3,-1,-1,-1,-1,-1,-3
1528445742190063,-2,-1,-1,-1,-1,0,0,-1
1528445742212040,-1,0,0,0,0,-2,-1,0
1528445742212040,1,-1,0,-3,0,0,-2,-3
1528445742213160,-2,-2,-2,-2,-2,-2,-1,-3
1528445742213160,0,-3,-2,0,-2,-2,-2,-2
1528445742226965,0,-1,0,1,-1,-1,-1,1
1528445742226965,-1,0,1,0,-1,0,-1,-2
1528445742227997,0,-3,0,-3,-1,-2,-1,-1
1528445742227997,-1,-1,0,-1,-2,-1,-2,-2
1528445742248906,-2,-1,-3,-1,0,0,-1,1
1528445742248906,-2,0,-1,-1,-2,0,-2,-1
1528445742249904,0,-2,-2,-1,-2,0,-1,0
1528445742249904,0,-3,-1,-1,-1,-2,1,-2
1528445742271843,-1,-2,-2,-3,-2,-3,-1,-1
1528445742271843,-2,-1,-2,-2,-2,0,0,0
1528445742272842,-1,0,-2,0,-1,0,-1,-2
1528445742272842,0,-2,-2,-1,0,-1,-1,-1
1528445742286805,0,-2,-1,1,-2,-2,-2,0
1528445742286805,-2,-1,0,-2,0,-3,-1,-1
1528445742287802,-2,0,-2,0,0,1,-1,-2
1528445742287802,0,0,0,-1,-1,-1,-1,-2
1528445742308745,-2,0,-1,-1,-1,-1,-1,-1
1528445742308745,0,-1,-1,0,-2,-2,0,-1
1528445742309759,-1,0,0,-1,-2,-2,0,-1
1528445742309759,-1,-1,-1,-2,-1,-2,-3,-1
1528445742331685,0,-2,0,-1,-1,0,0,0
1528445742331685,-2,-2,-2,-1,0,-1,0,-1
1528445742332683,0,-2,-1,0,-1,0,-2,0
1528445742332683,0,-2,0,1,-2,0,1,-1
1528445742346700,-1,0,-1,-1,0,0,-1,2
1528445742346700,0,-1,-1,1,0,-1,-3,-3
1528445742347696,-1,-2,-2,-1,-2,-1,0,-2
1528445742347696,0,-1,-1,-1,0,0,-1,0
1528445742369584,0,-3,-1,-2,-2,-1,-2,-1
1528445742369584,1,-3,1,0,-1,0,-1,0
1528445742369584,-3,-2,-2,-1,0,-2,0,-3
1528445742369584,1,-1,1,-2,-1,-2,0,5
1528445742391551,-1,0,-2,-3,0,-1,-1,-2
1528445742391551,-2,-2,-1,-2,0,1,-2,0
1528445742392522,-2,-2,0,-1,-1,0,-1,-3
1528445742392522,-3,-2,0,-1,0,-2,-2,-2
1528445742406484,-1,-1,-2,-1,-2,1,-1,-3
1528445742406484,-2,0,0,0,0,-1,0,-2
1528445742407482,-2,-1,-2,-2,0,-2,-1,1
1528445742407482,-3,-2,-1,-1,-2,1,-2,-2
1528445742429475,0,0,-1,-1,-1,-1,1,-2
1528445742429475,-1,-2,-1,-2,0,-2,-1,0
1528445742430472,1,-1,0,-1,-2,-1,-1,-1
1528445742430472,-2,0,-1,-3,-2,-1,-2,-2
1528445742451419,-2,-2,-1,0,-2,-1,-1,-1
1528445742451419,1,-1,-3,-1,-1,-2,-1,-1
1528445742452362,-2,0,-1,-1,1,-1,2,-1
1528445742452362,0,0,-1,-2,0,-2,-3,-3
1528445742466325,-2,-1,-1,-1,-2,0,-2,-2
1528445742466325,-2,-2,-1,0,-2,0,0,0
1528445742467322,-1,-2,-1,0,-2,0,-2,0
1528445742467322,-2,0,-1,0,0,0,-1,0
1528445742489317,-1,-2,-2,-2,1,-3,-2,0
1528445742489317,-1,0,0,-1,-2,-1,-2,-1
1528445742490261,-1,-1,0,-2,0,-1,-1,-2
1528445742490261,-1,-1,-2,-2,0,-1,0,-1
1528445742512201,0,0,0,-1,-2,-1,-1,-2
1528445742512201,0,-1,-3,-2,-2,-1,-1,0
1528445742512201,-1,0,0,-1,0,0,-1,3
1528445742512201,-2,-1,-1,0,0,-1,0,-5
1528445742526198,0,-1,-2,-1,0,1,1,1
1528445742526198,-1,-1,0,-1,-1,-2,-1,-1
1528445742534197,-3,0,-1,-1,-1,-2,-1,-1
1528445742534197,2,-1,-1,-3,-3,1,0,6
1528445742557136,-2,-3,-1,-1,0,-2,-1,-4
1528445742557136,1,-1,0,0,-2,0,-1,-1
1528445742558080,-1,-2,-1,-2,-2,-2,-2,-1
1528445742558080,-2,-1,-1,-1,-3,-2,-1,-2
1528445742572096,-1,-1,0,-1,-1,0,-1,-1
1528445742572096,-1,-1,-2,0,0,-2,-1,-2
1528445742573088,1,0,-1,-2,-1,-1,-2,-2
1528445742573088,-1,-1,-2,-2,0,-1,-1,-1
1528445742586041,-2,-2,-1,-4,-1,-1,-1,-2
1528445742586041,-1,-2,-2,-2,0,-1,-2,-2
1528445742594041,0,-2,-2,2,-1,-1,-2,-1
1528445742594041,-1,-2,0,0,-2,-1,-1,-1
1528445742608997,0,-1,-1,-2,0,-1,-1,-2
1528445742608997,-2,-1,0,0,-1,-3,-1,-1
1528445742609941,-1,-1,-1,0,-2,-2,-1,-1
1528445742609941,0,-2,-1,-2,-2,-2,-1,0
1528445742631883,0,-1,-1,1,-1,-2,-2,0
1528445742631883,0,-2,-1,-1,0,-1,-2,-1
1528445742632880,-1,-1,-1,0,-1,0,-1,0
1528445742632880,-1,-1,-2,0,-1,0,1,0
1528445742645846,-2,-1,0,-1,-2,-1,-1,-1
1528445742645846,-1,-2,-1,-1,-1,-1,-2,0
1528445742653823,-2,0,1,0,-1,0,0,-3
1528445742653823,-2,-2,-1,-1,0,0,-2,-2
1528445742670211,-2,0,-2,-1,-1,0,-1,0
1528445742670211,-2,-1,-3,-1,0,-2,-2,1
1528445742670211,0,0,0,-3,-1,-1,-1,-2
1528445742670211,-1,-2,-1,0,0,-2,0,-2
1528445742691979,0,-1,-1,0,-2,0,-1,-2
1528445742691979,-1,-1,0,-2,-2,1,-1,0
1528445742692719,-1,-2,-3,-2,-1,0,-2,1
1528445742692719,-2,-1,-2,-3,-3,-2,-1,-1
1528445742715193,0,-2,0,-1,-2,-2,-2,1
1528445742715193,-2,-1,-2,-1,-1,-1,-1,-1
1528445742715956,-2,-1,0,-3,-1,0,0,-2
1528445742715956,-2,-1,0,-1,0,0,-1,-2
1528445742737954,-1,-1,-2,-1,-2,-1,-1,0
1528445742737954,1,-2,-2,-1,-1,-1,-1,-1
1528445742739013,0,-2,-1,-2,-1,-3,-2,-2
1528445742739013,-2,-1,-1,-1,-1,-1,-3,-2
1528445742752174,0,-2,-1,-2,0,0,0,3
1528445742752174,-1,0,0,-1,-1,-1,-2,-4
1528445742753169,-1,-2,-3,0,-2,-1,0,0
1528445742753169,0,-1,0,-1,-1,0,-2,0
1528445742775162,-3,-1,-1,-1,0,1,0,0
1528445742775162,-2,0,-2,-2,0,-1,-1,-3
1528445742776158,0,-1,-2,0,-1,-1,-2,-1
1528445742776158,-2,-2,0,0,-1,0,-3,0
1528445742797102,-2,0,-1,0,-1,-1,0,-1
1528445742797102,-1,-1,-1,0,-2,-1,-2,-1
1528445742798099,0,-1,-1,-1,-2,-1,-1,-2
1528445742798099,-1,-3,-1,-1,-1,-3,-2,-1
1528445742812316,-1,0,-1,-1,-1,-1,-2,-2
1528445742812316,-1,-1,-2,-2,-1,1,0,1
1528445742813314,-3,-2,0,-1,1,0,-1,1
1528445742813314,-1,0,-2,-3,-1,-1,0,-1
1528445742835662,0,-1,-1,-1,-2,0,-1,-1
1528445742835662,1,-1,-1,-1,-2,-2,-1,0
1528445742836307,0,0,-1,0,-1,-2,-1,0
1528445742836307,-1,-1,-1,0,-1,-1,0,-1
1528445742857252,0,-2,-1,0,-2,-2,0,-1
1528445742857252,-3,-2,1,1,-1,-3,-1,-1
1528445742858263,-1,-2,-2,-1,-1,-1,-1,-2
1528445742858263,-1,0,1,-2,-1,-2,-2,-2
1528445742872209,0,-2,-3,-1,-1,-1,-2,-1
1528445742872209,-1,-2,-2,-3,-3,-1,-1,0
1528445742872209,-1,-2,-1,-3,-2,-1,0,-1
1528445742872209,1,-1,-2,-1,-1,-2,1,0
1528445742895625,-4,0,-1,-1,-1,-2,-1,-3
1528445742895625,-1,-1,-1,0,-1,-1,-2,-1
1528445742896490,-2,-1,-4,-1,-1,-1,-1,-1
1528445742896490,-2,-3,-2,-1,-3,0,-1,-1
1528445742917768,-2,-1,-1,-2,-1,-1,-1,-1
1528445742917768,2,-1,-1,-1,-3,-2,-2,0
1528445742919767,0,-1,-1,-1,-2,0,-2,-2
1528445742919767,-1,-1,-2,-1,-1,-2,-1,-2
1528445742931135,0,-2,-1,-1,0,-1,0,-2
1528445742931135,-1,-1,-2,-3,-2,-1,-1,0
1528445742940034,-1,-1,-1,-2,-2,-1,-2,-1
1528445742940034,-1,-1,-1,0,-2,1,-1,1
1528445742962613,-1,-1,-1,0,-2,-1,-1,-3
1528445742962613,-1,0,-1,0,0,-1,-1,-1
1528445742964600,-1,-1,0,0,-1,-2,-1,0
1528445742964600,-1,-1,-1,0,-1,0,-2,-1
1528445742977935,2,-3,-2,-1,-1,-1,0,-1
1528445742977935,-1,-1,0,0,-1,-1,1,-1
1528445742978978,-1,0,-1,-2,-1,0,-1,-1
1528445742978978,-1,-1,-1,0,-2,-1,-1,-1
1528445742991143,-1,0,-1,0,1,-1,-2,0
1528445742991143,-3,-1,-1,-1,1,-1,-1,-1
1528445742999881,-1,-1,0,-1,-1,-2,1,-1
1528445742999881,-1,0,-1,-1,0,-1,-1,-1
1528445743014935,0,0,0,-1,-2,-3,-1,-3
1528445743014935,-2,0,-3,0,-1,0,-1,0
1528445743016884,0,-1,-1,0,-1,0,-1,-1
1528445743016884,-2,-2,-2,0,-1,-1,0,-1
1528445743037746,-2,0,0,-1,0,-2,-1,-1
1528445743037746,-1,-2,-1,0,-2,-2,-1,-1
1528445743039379,-1,-2,0,0,-1,-1,-2,-1
1528445743039379,0,1,-1,-2,-1,-2,-1,-1
1528445743051612,-1,-2,-1,-2,-2,-1,0,1
1528445743051612,0,-1,0,-1,0,-1,-1,-1
1528445743060322,0,-1,0,-1,-2,1,-1,-1
1528445743060322,0,-2,-2,0,-1,1,-2,0
1528445743074589,-1,-1,-1,-2,-1,0,-2,0
1528445743074589,-2,0,0,-1,-2,-1,0,-2
1528445743076584,0,0,-2,0,-2,-1,-1,-2
1528445743076584,-2,0,-1,-1,-1,-2,-2,0
1528445743098108,-1,-1,-2,-1,-1,-1,-2,-1
1528445743098108,0,-1,-1,0,-1,-2,0,-2
1528445743098833,0,-1,-3,0,0,-2,-1,0
1528445743098833,0,-1,-1,-1,-1,-1,0,-1
1528445743111853,1,-1,-1,-2,-1,-1,-1,-2
1528445743111853,-2,-2,0,-1,1,-1,-1,-2
1528445743120044,-1,-2,-2,-1,1,-1,-1,-2
1528445743120044,-2,-1,-1,-1,-2,1,0,0
1528445743135458,0,-1,1,0,-3,-2,-1,-1
1528445743135458,-1,0,-1,-3,0,-1,0,-2
1528445743137037,0,-1,0,-2,-1,0,-2,-1
1528445743137037,-2,0,-3,0,1,0,0,0
1528445743158231,-2,-1,0,-1,-1,-1,1,-1
1528445743158231,-2,0,-1,0,-1,-1,-1,-1
1528445743158978,0,-1,-1,-1,-2,-1,0,1
1528445743158978,1,0,0,-1,-1,-2,0,-3
1528445743171956,0,-2,-1,-1,-1,-2,-1,-2
1528445743171956,-1,0,-1,0,-1,0,-1,0
1528445743180449,-2,-1,-1,-1,-1,-1,-1,-1
1528445743180449,-4,-1,0,1,-1,-1,-2,-1
1528445743195772,-2,0,-2,0,-1,-2,-1,-1
1528445743195772,-2,-2,-1,-1,0,0,-1,-1
1528445743196727,0,-1,-1,-1,-1,-1,-1,-1
1528445743196727,-1,-2,0,-1,0,-1,-1,-1
1528445743217926,0,0,-2,-2,0,-1,0,-1
1528445743217926,0,-3,-1,-3,-1,-1,-1,-1
1528445743219898,-1,-1,-1,-1,-1,-2,-1,-1
1528445743219898,-1,-1,-1,-2,-1,-2,-2,-2
1528445743231667,-2,1,0,-1,-1,0,-1,0
1528445743231667,0,0,-1,-2,-3,0,-1,-1
1528445743240872,0,0,-1,-2,-1,-1,-1,0
1528445743240872,-1,-3,1,-4,-2,-2,0,-1
1528445743254608,-1,-1,-1,-1,-2,-1,0,0
1528445743254608,0,-1,0,0,-1,0,-1,0
1528445743261553,-3,-2,-1,0,-2,-1,-1,-1
1528445743261553,-1,0,-1,-1,0,-1,-1,-1
1528445743277510,-3,-1,-1,-1,-1,0,0,0
1528445743277510,-2,-1,-1,-1,-1,-3,-1,0
1528445743279505,-2,0,-2,0,-1,-1,-1,-1
1528445743279505,0,1,-2,-2,-1,0,-2,-1
1528445743291717,-1,-1,-1,-2,0,0,-2,-2
1528445743291717,1,0,-2,-3,-2,-2,-1,-2
1528445743300481,-1,0,0,-1,-2,-1,-2,-2
1528445743300481,1,-1,-1,0,0,-2,0,-1
1528445743314719,-2,-2,-1,0,-2,-1,0,0
1528445743314719,-1,-1,0,-1,-1,-1,-2,0
1528445743321010,-2,1,-1,-1,-2,1,-1,0
1528445743321010,-1,-1,-1,-1,-1,0,0,1
1528445743337987,1,-1,0,-1,0,0,-1,0
1528445743337987,0,0,-1,-1,-2,0,-1,-1
1528445743339065,-1,0,-2,0,-1,-1,-1,1
1528445743339065,0,-2,-1,0,-1,-1,0,-3
1528445743351860,1,-1,0,-2,-1,-1,-2,0
1528445743351860,-2,-2,0,1,-1,-1,-2,0
1528445743360473,-1,-1,1,-1,0,-2,0,-2
1528445743360473,-1,-1,0,0,-1,1,1,-1
1528445743374679,0,-1,-2,-1,-1,0,-1,-1
1528445743374679,-1,-2,-1,-1,-1,-1,0,-2
1528445743381626,-2,-2,-2,1,0,0,-1,-2
1528445743381626,-1,-2,-3,-1,-1,-3,-2,-1
1528445743397658,-1,-4,-1,-1,0,0,-1,-1
1528445743397658,-1,0,0,-1,-2,-2,-1,0
1528445743398631,0,-2,-2,-2,0,-1,-1,-1
1528445743398631,-1,0,0,-1,-2,-1,-2,-2
1528445743411958,-1,1,-1,0,0,-3,-3,0
1528445743411958,-1,-3,1,0,0,-1,-2,-2
1528445743420028,0,-2,-2,-1,-1,-3,-1,0
1528445743420028,0,-1,-2,-2,-1,-1,-2,-1
1528445743435230,0,-1,0,0,-2,-1,-1,-2
1528445743435230,-1,-1,-1,1,-2,0,0,-1
1528445743440972,-3,-1,0,0,-2,-2,-1,-2
1528445743440972,-1,-1,-2,0,-1,-2,-1,-1
1528445743458193,-2,-1,0,0,-2,0,-1,1
1528445743458193,-1,0,-1,-1,-1,0,-2,0
1528445743459124,0,-1,-1,-2,-1,1,0,-3
1528445743459124,-2,0,-2,0,-1,-1,0,0
1528445743480224,0,-1,-2,0,-3,-3,-1,0
1528445743480224,-1,-1,-2,-1,0,-1,0,0
1528445743481222,1,-1,-2,-2,0,-2,-2,0
1528445743481222,-1,-1,1,-1,-1,1,-1,0
1528445743494449,-1,1,-2,-1,-2,-1,-2,-2
1528445743494449,-1,-1,-1,-1,-2,-1,-1,1
1528445743501437,-1,-1,-1,-1,-1,-1,-1,-2
1528445743501437,-1,0,0,-1,0,0,-1,-2
1528445743517761,0,-1,-1,0,0,-1,-1,-2
1528445743517761,0,-2,-1,-1,-1,-2,-1,0
1528445743519417,-2,-2,-2,0,1,-1,0,1
1528445743519417,0,0,-1,-3,0,-1,0,-1
1528445743540759,-1,0,0,-1,-3,0,0,0
1528445743540759,0,-2,-1,2,0,-3,0,-2
1528445743542536,1,-1,-1,-1,-3,-2,0,-1
1528445743542536,-2,-1,-1,0,-1,-2,-1,-1
1528445743554325,-1,-2,0,-2,0,1,-1,0
1528445743554325,-1,0,-3,-2,-2,1,0,0
1528445743561613,-2,-1,-1,-2,1,-1,-1,-1
1528445743561613,-1,-1,-1,-1,0,-2,-1,0
1528445743578302,-2,0,-2,-1,0,-1,-1,-1
1528445743578302,-1,-1,-2,-1,0,-1,-1,-1
1528445743579256,0,-1,-2,0,-1,-1,-1,-1
1528445743579256,-1,-2,-1,-3,-1,-1,-1,-1
1528445743600466,-1,-3,-1,-3,-1,-2,-1,-2
1528445743600466,-2,-1,-3,-1,-2,0,-2,-1
1528445743602433,-2,-1,-2,-1,-1,0,1,0
1528445743602433,-3,-3,-1,0,0,0,-2,1
1528445743614510,-1,-1,-1,-1,-1,-1,0,-1
1528445743614510,0,-2,0,-2,-2,0,-1,-2
1528445743622836,1,-2,1,-1,-2,-2,-1,-2
1528445743622836,-1,-1,0,0,-1,0,-2,-1
1528445743637834,-2,1,-1,1,-1,-1,0,0
1528445743637834,-1,0,-1,-2,0,-2,-1,-1
1528445743638812,0,-1,-1,-2,-1,-1,-1,-2
