timestamp,emg1,emg2,emg3,emg4,emg5,emg6,emg7,emg8
1528446929720954,-1,0,-1,-2,0,-1,-1,0
1528446929720954,-1,-2,0,-1,-1,0,0,0
1528446929742895,0,0,-1,-1,-1,-2,-1,0
1528446929742895,-1,0,-2,-1,0,-1,-2,-1
1528446929750873,0,-1,-2,-1,-2,-3,0,0
1528446929750873,-2,-1,-3,-2,-2,-1,-1,-1
1528446929765847,-1,-1,1,-1,2,0,-1,-2
1528446929765847,0,2,3,3,2,4,1,1
1528446929772815,0,0,0,0,1,0,0,1
1528446929772815,-1,0,0,-1,-1,-3,-1,0
1528446929795781,-2,0,-2,0,-2,-3,-6,-3
1528446929795781,-2,-4,-3,-4,-6,-6,-5,-1
1528446929802762,1,0,-2,-2,-2,-4,-4,-3
1528446929802762,2,0,0,0,6,6,2,0
1528446929817697,-3,0,-1,-3,-6,-4,-6,-5
1528446929817697,-1,0,2,2,2,-1,-3,-2
1528446929825675,2,-1,-1,0,-1,-2,10,8
1528446929825675,-2,-3,0,1,5,20,13,1
1528446929840634,-4,-4,-6,-4,-8,-11,-11,-9
1528446929840634,0,-1,-1,-5,-10,-24,-18,-5
1528446929855614,-6,0,0,-3,-6,-11,-8,-15
1528446929855614,2,-2,2,-2,-3,-6,-9,8
1528446929862576,-1,3,2,1,0,0,-6,-2
1528446929862576,3,0,0,1,-1,-2,8,1
1528446929877537,2,-4,0,-2,1,14,15,8
1528446929877537,3,3,1,2,6,-3,6,0
1528446929885516,2,0,2,-1,1,9,-10,-4
1528446929885516,-6,-3,-3,-2,-4,-15,-2,3
1528446929900474,15,9,6,2,5,7,4,16
1528446929900474,-7,-2,2,-1,0,10,4,1
1528446929915445,-4,-10,-7,-1,-1,-9,-6,-6
1528446929915445,-3,-5,-6,-5,-6,-3,-12,-4
1528446929923455,-13,-9,-4,-5,-6,-16,-23,-14
1528446929923455,6,6,2,-1,-2,4,18,3
1528446929938626,-2,0,-4,-1,-3,-2,-6,-1
1528446929938626,-2,1,9,2,1,-2,-1,1
1528446929945750,5,-1,-10,1,-2,9,17,5
1528446929945750,-6,-6,-5,0,-1,-6,-13,-5
1528446929960850,-3,-1,4,1,3,13,7,-1
1528446929960850,-2,-2,-3,-1,-8,-16,-14,-8
1528446929975810,-3,0,1,-5,-12,-48,-36,-7
1528446929975810,-4,0,1,2,-5,-9,-26,-11
1528446929982682,5,4,6,9,19,39,58,17
1528446929982682,8,1,-2,1,12,44,35,21
1528446929997628,9,7,13,15,11,4,12,19
1528446929997628,-4,-8,-9,-3,-6,-1,13,5
1528446930012923,-7,-1,-3,-2,-5,-18,-26,-13
1528446930012923,-3,-1,0,4,0,-2,-14,-16
1528446930027767,-6,-5,-1,-7,-6,-13,-19,-17
1528446930027767,-1,0,0,-15,-10,-29,-31,-14
1528446930042748,0,-2,-3,-11,3,5,8,8
1528446930042748,2,0,-3,-5,7,9,7,2
1528446930050717,0,1,0,-6,3,18,24,12
1528446930050717,-4,-1,0,-6,8,-2,-1,2
1528446930065637,-4,-1,3,0,-1,-12,-9,-3
1528446930065637,3,3,7,-9,2,14,7,1
1528446930080798,0,0,1,4,1,1,-1,0
1528446930080798,-1,-3,-5,1,-5,-5,-5,0
1528446930095758,-3,-1,2,-7,-3,0,-1,-5
1528446930095758,-2,0,2,-9,-2,2,0,-1
1528446930102909,0,1,2,-11,6,0,6,-2
1528446930102909,5,0,3,-11,5,7,9,15
1528446930117849,1,2,4,-12,3,11,14,1
1528446930117849,-1,0,-3,-15,-2,-5,-6,-4
1528446930125876,-5,-5,-7,-8,-5,-10,-16,-13
1528446930125876,3,0,-1,6,-4,-10,-5,5
1528446930140998,-2,-1,-1,2,-6,-8,-2,2
1528446930140998,-2,-3,-3,1,-6,-18,-17,-10
1528446930155957,-1,-1,-2,0,4,9,7,-3
1528446930155957,1,0,1,9,1,14,12,-2
1528446930162939,1,-2,1,17,3,1,0,8
1528446930162939,-4,-2,-5,9,-3,-2,-1,-7
1528446930177900,-4,0,-1,6,-2,-7,-10,-13
1528446930177900,3,-1,-1,4,2,0,5,12
1528446930193061,3,-2,-3,-3,-3,-5,-6,0
1528446930193061,4,6,8,4,5,14,13,3
1528446930207859,4,0,4,-3,-6,-11,-10,11
1528446930207859,-2,-4,-3,4,-1,0,-2,-5
1528446930223089,0,1,1,6,1,8,7,0
1528446930223089,-5,-6,-11,-3,-4,-5,-5,-10
1528446930231024,-3,2,2,3,0,0,-2,-5
1528446930231024,-3,0,0,2,1,-2,-1,-14
1528446930237993,9,2,3,1,1,7,10,31
1528446930237993,-7,-3,0,6,1,3,0,-10
1528446930244973,1,1,1,-1,0,1,3,-4
1528446930244973,-3,-4,-6,-3,-4,-6,-5,6
1528446930260930,-2,-4,-10,-1,-2,-1,1,-4
1528446930260930,-5,-1,-5,0,-4,-7,-9,-10
1528446930275890,0,7,9,2,-2,-5,-8,-9
1528446930275890,2,0,-1,3,7,16,13,9
1528446930282926,-2,-2,-1,0,0,1,3,-6
1528446930282926,3,3,5,2,1,5,6,7
1528446930297833,-5,-2,-5,-4,-4,-6,-11,-9
1528446930297833,-6,-2,-3,1,-3,-6,-10,-17
1528446930305856,-1,-1,-2,1,1,-2,3,7
1528446930305856,1,0,-3,3,2,4,3,6
1528446930320826,7,-1,-8,-2,-4,-2,-3,19
1528446930320826,-1,-3,-4,-4,-3,-3,2,-3
1528446930335784,-1,-2,1,-3,1,6,3,-10
1528446930335784,-2,-1,0,2,1,-1,2,8
1528446930342765,-2,1,10,-1,-3,-5,-8,-10
1528446930342765,-1,-2,-1,2,2,1,5,1
1528446930357728,-5,1,0,1,0,2,-2,-10
1528446930357728,-2,-2,-7,-1,-8,-11,-9,-22
1528446930365707,-1,-1,2,0,0,2,1,14
1528446930365707,7,4,5,3,1,-6,3,15
1528446930380665,1,1,0,1,-3,-6,-7,-10
1528446930380665,-4,0,0,-3,-3,-6,-6,-7
1528446930395625,-6,-1,-2,-4,-11,-20,-17,-13
1528446930395625,7,-5,-2,-6,4,5,4,20
1528446930402606,-3,-1,-3,1,2,-2,2,-12
1528446930402606,1,-2,-2,4,3,16,9,5
1528446930418529,-8,-1,-2,1,9,8,2,-27
1528446930418529,5,-1,3,-4,-7,-9,-3,21
1528446930425525,2,-5,-5,-3,-2,-3,-2,18
1528446930425525,-3,4,4,-1,-3,0,-3,-8
1528446930440450,-2,3,1,4,3,5,1,-11
1528446930440450,-6,-5,-4,5,-1,-12,-10,-10
1528446930455410,13,-3,-4,2,-1,4,10,26
1528446930455410,3,3,5,3,3,4,6,6
1528446930463389,-1,-2,-1,-3,-1,4,2,-3
1528446930463389,-5,-3,-3,-7,-3,-2,-6,-7
1528446930478349,-3,-2,-1,-5,-1,-7,-7,-5
1528446930478349,-2,1,3,-5,-2,1,0,-3
1528446930485330,1,0,-1,-4,-2,0,-1,1
1528446930485330,-2,1,0,-1,-2,-5,-7,-7
1528446930508270,2,-1,-4,4,5,7,6,6
1528446930508270,1,1,1,-4,-1,2,6,3
1528446930515289,-6,0,2,-5,-2,-5,-4,-13
1528446930515289,2,-1,-1,3,3,2,4,10
1528446930530266,4,0,-2,-4,1,6,6,3
1528446930530266,-5,-1,1,-5,-5,-3,-7,-7
1528446930545171,-1,1,5,0,-4,-6,-5,-7
1528446930545171,0,-5,-8,-2,-1,0,-2,1
1528446930560172,-1,2,1,6,-1,3,2,1
1528446930560172,0,-3,-6,0,1,-2,-1,-1
1528446930568269,-1,1,-5,2,5,7,4,0
1528446930568269,-3,-3,-1,-6,-9,-4,-3,-1
1528446930583367,2,-1,2,1,6,2,-3,0
1528446930583367,2,0,1,1,-1,-5,2,4
1528446930598192,0,0,-2,-5,-3,-2,0,-2
1528446930598192,-4,2,2,-3,-4,2,0,0
1528446930605302,1,-2,-5,1,1,-5,-2,-4
1528446930605302,1,3,2,-3,4,13,9,4
1528446930621139,-4,-3,-1,-3,-1,-2,-2,-4
1528446930621139,1,0,-1,-2,0,3,5,2
1528446930628240,-4,-3,-3,-4,-5,-11,-8,-2
1528446930628240,-2,-1,0,1,2,4,-2,-5
1528446930643197,-2,-1,1,0,-3,-2,-3,-9
1528446930643197,-1,0,-1,0,-1,-3,0,5
1528446930658161,0,2,4,-4,-1,-4,-3,1
1528446930658161,-10,-5,-8,-2,-3,-6,-9,-28
1528446930666153,11,-1,-4,-5,-3,-3,4,39
1528446930666153,0,1,1,-2,-3,1,-3,-1
1528446930680943,-2,0,5,3,3,4,-1,-1
1528446930680943,2,-2,-2,-3,-1,3,2,0
1528446930696113,-5,-2,1,4,2,4,3,-8
1528446930696113,-4,0,0,2,-4,-3,-6,-15
1528446930711117,4,-3,-17,-3,0,-6,3,11
1528446930711117,3,2,0,2,0,-3,-6,-1
1528446930733149,-5,1,1,2,-2,-1,-4,-9
1528446930733149,2,0,2,0,0,-3,-3,3
1528446930741109,2,0,1,-1,1,5,7,-1
1528446930741109,-2,0,3,-1,0,-3,-3,0
1528446930747953,-1,-3,1,-1,-5,-10,-7,-4
1528446930747953,2,1,1,4,2,7,4,0
1528446930756088,-3,-1,2,0,3,10,3,-12
1528446930756088,4,1,-2,-7,-1,-3,2,13
1528446930778443,0,-1,-4,-3,-3,0,0,-1
1528446930778443,1,2,2,-2,0,-3,-2,-2
1528446930785425,2,-4,-8,-3,-4,-6,-5,6
1528446930785425,-5,-2,-1,0,-1,-3,-2,-10
1528446930808607,0,2,4,0,0,2,3,-6
1528446930808607,3,0,0,5,0,0,3,20
1528446930815551,1,4,6,-6,-1,1,-2,-5
1528446930815551,2,3,1,0,0,2,4,4
1528446930830894,-3,-4,-2,-1,1,4,-1,-3
1528446930830894,-2,0,2,0,3,2,2,-5
1528446930846009,1,0,-1,1,-1,0,-1,0
1528446930846009,-2,-4,-9,-1,-2,-1,0,-1
1528446930860970,2,3,5,5,6,5,6,6
1528446930860970,2,2,9,-4,-5,-2,2,10
1528446930867953,-2,-2,-2,1,0,3,4,4
1528446930867953,-3,-1,-1,-1,-3,-6,-8,-9
1528446930883314,-1,0,0,-3,-5,-6,-6,-1
1528446930883314,-3,0,2,1,1,4,0,-11
1528446930891124,7,0,-2,-2,1,3,3,10
1528446930891124,2,-1,-3,-5,-4,-5,1,16
1528446930898109,-6,-2,2,-5,-8,-14,-10,-9
1528446930898109,-1,-3,-2,0,3,-1,-5,-8
1528446930905088,9,5,3,7,7,19,18,15
1528446930905088,-4,-2,-2,2,3,8,7,-10
1528446930921135,1,0,-1,-2,-2,0,3,7
1528446930921135,-4,-3,-2,-3,-10,-13,-10,0
1528446930928164,-3,1,4,1,0,-8,-5,-8
1528446930928164,2,-1,-1,3,3,10,4,2
1528446930943352,-1,2,6,-1,0,2,1,-3
1528446930943352,2,-4,-6,-2,-1,-1,2,5
1528446930951148,-6,-1,-2,-3,-4,-8,-9,-8
1528446930951148,0,2,1,0,-5,-6,-7,-6
1528446930958294,1,-3,-1,-2,-2,-3,-5,-2
1528446930958294,0,-2,-1,1,5,10,6,1
1528446930966157,0,0,1,-2,0,1,3,4
1528446930966157,-3,-1,-1,2,0,0,2,-7
1528446930980230,-5,0,-9,-6,-8,-7,-3,0
1528446930980230,4,-3,4,2,-3,-10,-7,-9
1528446930988209,0,8,2,2,3,9,13,17
1528446930988209,4,0,-4,-4,3,3,0,1
1528446931003618,-2,-1,0,0,2,5,5,-2
1528446931003618,5,11,2,1,1,2,1,2
1528446931010685,-9,-14,-12,-1,-5,-8,-11,-9
1528446931010685,-1,-3,6,-11,-4,-5,-5,-6
1528446931017848,-3,-4,-6,-8,2,3,1,1
1528446931017848,-3,-4,-6,-4,-6,1,0,0
1528446931033662,5,1,4,2,-1,-3,-2,-1
1528446931033662,-1,0,-7,-10,-2,-2,-1,0
1528446931048101,2,0,12,30,8,1,1,-3
1528446931048101,1,4,4,-1,-1,-3,-2,10
1528446931056112,2,-9,-11,-3,1,1,5,7
1528446931056112,-3,-1,4,0,1,1,-3,-2
1528446931071043,2,0,-1,-12,-4,-1,-2,5
1528446931071043,-4,-4,-19,4,5,6,6,1
1528446931078183,1,-4,-1,-2,4,6,5,7
1528446931078183,-3,0,6,1,-2,-5,-4,-6
1528446931086134,-1,-4,-12,-16,-7,-1,-1,-2
1528446931086134,-3,-4,0,5,2,-2,-1,-1
1528446931101121,2,4,2,11,-6,-7,-8,-3
1528446931101121,-1,1,3,-2,2,3,1,-5
1528446931107940,1,4,7,-4,1,-1,4,2
1528446931107940,1,2,3,0,3,4,5,5
1528446931130884,0,1,-3,0,8,7,6,4
1528446931130884,-3,-5,-5,-3,4,4,2,-1
1528446931138018,-1,3,7,0,-10,-10,-8,-5
1528446931138018,-2,-1,-1,-1,-2,-3,-10,-5
1528446931146094,1,-3,-6,-7,-2,-2,2,1
1528446931146094,-2,3,8,-2,-18,-19,-7,-3
1528446931153090,2,0,-2,3,33,34,15,6
1528446931153090,-3,-3,-3,0,1,4,1,-3
1528446931168133,0,-2,-6,-5,1,-1,3,1
1528446931168133,0,0,1,-1,0,5,3,3
1528446931183072,-1,-1,2,2,-3,0,-4,-4
1528446931183072,1,-2,0,4,3,6,6,3
1528446931191053,-1,-3,1,10,3,4,3,-1
1528446931191053,2,-1,-2,13,2,1,1,0
1528446931206005,-1,1,1,25,-6,-6,-4,-4
1528446931206005,-1,-1,-4,35,-4,-8,-7,-3
1528446931212986,-3,0,1,29,-3,-7,-8,-6
1528446931212986,1,-2,-2,30,0,3,5,2
1528446931227946,-3,-1,-1,32,-2,-2,-2,-2
1528446931227946,0,0,0,28,5,4,2,-1
1528446931236108,-1,-1,-1,17,0,-2,0,-2
1528446931236108,-2,2,0,-8,-6,-5,-4,-6
1528446931251139,-4,0,3,-4,-3,-2,0,-7
1528446931251139,1,0,-1,2,-3,-4,0,0
1528446931258258,1,0,-1,-12,1,2,3,2
1528446931258258,-2,-1,-1,-17,1,1,-1,-4
1528446931266114,0,-1,-2,-8,-4,-5,-5,1
1528446931266114,1,-1,0,-10,1,2,1,2
1528446931280203,-1,0,-1,-14,0,2,0,-2
1528446931280203,1,2,0,-20,-4,-4,-2,-3
1528446931288234,-3,-5,-3,-24,-1,0,1,-3
1528446931288234,1,0,0,-18,0,0,-2,0
1528446931303404,-1,-2,-5,-22,1,2,4,3
1528446931303404,-1,-1,-1,-19,0,-2,0,-1
1528446931310370,-2,-2,-1,-24,-2,-2,-3,1
1528446931310370,-2,0,0,-20,0,-1,-1,-3
1528446931318365,2,0,4,-16,-1,-2,-2,2
1528446931318365,-1,-1,0,-12,2,4,2,1
1528446931325346,-1,-1,-5,-10,-1,0,1,-1
1528446931325346,-2,-3,-2,-5,3,2,2,3
1528446931340416,-2,-1,-2,-3,-1,-1,-1,-1
1528446931340416,0,1,0,1,-2,-3,-1,1
1528446931348243,-1,0,0,3,-1,-1,-2,1
1528446931348243,-2,3,2,3,-3,-3,-2,-4
1528446931363357,-1,-2,0,1,2,3,2,0
1528446931363357,1,-3,0,0,0,-2,-3,2
1528446931370542,-2,-1,0,-3,-1,-2,-3,-5
1528446931370542,0,-3,-3,-3,0,3,1,2
1528446931378647,-3,-1,-2,1,1,-1,-1,-9
1528446931378647,2,1,1,0,-1,2,4,10
1528446931385696,1,1,2,1,-2,-2,-2,-2
1528446931385696,0,-2,0,-2,0,1,0,1
1528446931407701,0,1,2,0,-1,0,-1,1
1528446931407701,-4,-2,-6,1,-1,0,-1,-5
1528446931415869,1,1,-1,2,-2,-3,0,1
1528446931415869,0,0,1,4,0,-2,0,-1
1528446931430831,0,0,1,7,-2,-3,-1,-1
1528446931430831,-1,0,3,8,1,0,1,-2
1528446931437972,1,1,-5,8,0,0,-1,2
1528446931437972,-2,0,-2,11,-2,-3,-1,-3
1528446931452771,0,0,0,13,-1,-1,0,0
1528446931452771,0,0,2,10,0,-1,-4,-4
1528446931467740,1,-1,0,-4,1,2,1,1
1528446931467740,0,0,-2,-5,2,3,3,1
1528446931475710,0,0,0,-10,-1,-2,-2,-1
1528446931475710,-1,-1,-3,-12,-1,-1,-3,-2
1528446931490672,1,-1,0,-13,-2,-3,-4,-1
1528446931490672,-2,-1,0,-13,-1,0,-3,-2
1528446931497659,0,-1,1,-9,0,0,1,1
1528446931497659,0,1,1,-7,-2,-1,0,-1
1528446931505630,-2,0,-1,-6,1,2,1,1
1528446931505630,-1,1,0,-3,0,0,0,-1
1528446931520620,-2,-4,-6,1,2,4,3,3
1528446931520620,-1,1,-3,1,-1,1,1,2
1528446931528629,0,-1,-2,4,-1,-2,-1,0
1528446931528629,-2,-1,0,4,-2,-3,-2,-2
1528446931543588,-1,0,2,5,1,-1,0,-1
1528446931543588,-1,-1,1,1,1,2,3,-1
1528446931550875,0,-2,-2,0,0,-1,1,1
1528446931550875,1,-2,-1,0,1,0,0,1
1528446931557847,-1,-1,1,-3,-2,-2,-4,-1
1528446931557847,0,-1,-5,-4,-2,-2,-2,-1
1528446931565830,0,0,1,-2,0,-1,1,0
1528446931565830,-1,-2,-1,-5,-1,0,2,2
1528446931580863,0,-1,-2,-1,-2,-1,-1,-1
1528446931580863,0,-2,3,-1,0,-1,0,-2
1528446931587985,-1,-2,1,0,0,1,0,-2
1528446931587985,1,-1,-2,-1,0,-1,-1,0
1528446931603111,0,0,-2,-1,-2,-2,-1,-1
1528446931603111,1,-1,0,-1,-2,0,-3,0
1528446931611091,-1,-1,-1,0,1,-4,0,0
1528446931611091,-1,2,0,0,1,1,1,-1
1528446931618277,-2,-3,-1,-2,0,-1,0,0
1528446931618277,-1,3,1,1,-1,-2,-3,-2
1528446931625122,-1,-6,-7,-1,-2,0,-2,-1
1528446931625122,-2,0,1,2,1,1,-2,-1
1528446931648224,0,3,2,-1,0,0,0,0
1528446931648224,-2,-3,-5,1,-1,0,0,-2
1528446931655346,0,0,1,1,1,1,0,-1
1528446931655346,0,1,0,1,0,0,1,0
1528446931678147,0,0,-1,-1,-1,-1,-2,-2
1528446931678147,-2,-4,-5,3,-1,-1,-2,0
1528446931685267,-2,2,1,2,0,0,-1,0
1528446931685267,0,-3,-4,1,0,0,0,2
1528446931693107,0,0,2,0,0,0,-1,3
1528446931693107,-1,1,1,-1,0,-1,0,4
1528446931708096,-11,-5,-2,11,-1,-2,0,4
1528446931708096,-12,-7,1,7,-3,0,-1,4
1528446931715045,-9,-6,0,-10,-2,0,1,1
1528446931715045,-1,-4,-1,-10,-2,-2,0,-3
1528446931731003,19,7,-2,1,1,-1,0,-9
1528446931731003,18,5,-2,0,0,0,0,-9
1528446931737988,13,4,-2,1,-1,3,-2,-9
1528446931737988,8,5,2,0,0,-1,0,-7
1528446931745966,5,3,0,1,-1,1,-1,-5
1528446931745966,-2,3,0,3,-1,-1,0,-4
1528446931761088,-6,2,-1,4,-2,3,1,-1
1528446931761088,-7,0,1,2,-2,-1,-1,-1
1528446931767938,-9,-2,2,3,-2,1,-2,1
1528446931767938,-7,-2,-1,3,0,-1,-1,2
1528446931783022,-6,-1,0,0,-2,0,-1,3
1528446931783022,-5,-2,0,-3,-2,1,0,2
1528446931791020,-4,-2,-1,0,-2,-1,0,2
1528446931791020,-3,-3,1,1,0,0,-2,1
1528446931797845,-2,-3,-1,0,-1,-1,-1,0
1528446931797845,-2,-2,-2,-1,-1,-1,-1,-1
1528446931805827,-2,-1,0,2,0,0,0,1
1528446931805827,-2,-2,-1,-1,-1,-1,-1,1
1528446931820940,-2,-2,0,-1,0,0,0,-1
1528446931820940,-1,-2,-1,1,-1,-1,-1,0
1528446931827921,-1,-1,0,1,0,-1,-1,-1
1528446931827921,-1,-1,-1,-2,0,0,-2,1
1528446931842883,-1,-2,0,-2,-1,-2,0,-2
1528446931842883,1,-1,-2,-2,-1,0,-1,0
1528446931850862,2,-2,-2,-1,0,0,-1,-1
1528446931850862,1,1,-1,1,-1,1,0,0
1528446931857685,0,-2,-1,1,-1,0,-2,1
1528446931857685,0,-2,-1,-1,0,0,-1,1
1528446931865854,0,0,-1,-2,-1,-2,0,0
1528446931865854,0,-4,-3,-1,-1,-2,-1,-1
1528446931880800,-2,0,0,-1,-1,-2,0,0
1528446931880800,-1,0,1,-2,0,-1,1,-1
1528446931887922,-1,0,-2,0,-1,-2,0,-1
1528446931887922,1,-1,-1,1,0,-1,-1,0
1528446931902941,0,0,0,0,0,-1,1,-1
