timestamp,emg1,emg2,emg3,emg4,emg5,emg6,emg7,emg8
1528448466705711,3,1,5,9,17,14,11,6
1528448466705711,-1,0,0,-1,0,-1,-2,0
1528448466706709,-3,-2,-5,-6,-8,-10,-5,-5
1528448466706709,-5,-4,-7,-12,-20,-16,-10,-5
1528448466709701,-1,-3,-2,-8,-16,-13,-5,0
1528448466709701,-1,-1,-2,-1,1,-2,0,-4
1528448466710698,1,0,0,3,10,0,1,1
1528448466710698,-1,0,0,2,7,9,2,0
1528448466716681,0,-1,-3,-2,-1,0,-2,-2
1528448466716681,2,0,2,6,0,6,3,0
1528448466723664,0,0,2,2,12,10,2,2
1528448466723664,1,-1,-1,2,4,-1,3,1
1528448466732640,-3,-3,-4,-6,-11,-14,-10,-6
1528448466732640,-2,-5,-4,-7,-22,-14,-5,-4
1528448466745606,0,-1,0,0,8,11,4,1
1528448466745606,0,1,1,3,4,4,3,3
1528448466754580,-1,1,-1,0,0,3,2,-1
1528448466754580,-1,1,-1,-1,3,-8,-2,1
1528448466778515,-2,-3,-3,-2,-13,-9,-5,-3
1528448466778515,-2,-4,-4,-7,-14,-17,-8,-4
1528448466778515,-3,-2,-2,-1,5,7,-2,-2
1528448466778515,1,1,1,2,2,14,6,3
1528448466790483,3,2,5,7,11,3,4,3
1528448466790483,2,1,3,10,20,21,4,-2
1528448466799460,-4,-3,-4,-7,-10,-16,-7,-3
1528448466799460,-5,-3,-5,-8,-12,-14,-8,-5
1528448466815417,-4,-1,-3,-9,-11,-14,-7,-3
1528448466815417,2,-1,0,-3,-15,-2,0,1
1528448466816414,1,2,1,4,22,4,2,0
1528448466816414,1,-1,3,4,5,15,4,2
1528448466837360,-1,-2,-4,-4,-11,-8,-4,0
1528448466837360,-2,0,-1,0,12,3,-3,0
1528448466838357,2,0,0,3,-8,1,2,4
1528448466838357,-3,0,-2,-1,14,4,-1,0
1528448466850351,-5,-6,-6,-13,-18,-27,-11,-6
1528448466850351,-1,-1,1,-3,-2,16,9,3
1528448466859329,1,0,0,-3,-23,-11,1,3
1528448466859329,1,1,2,4,13,-10,-7,0
1528448466874260,2,2,3,11,32,37,3,2
1528448466874260,1,-1,-3,-1,-6,1,12,1
1528448466876256,0,-3,-6,-8,-5,-26,-15,-7
1528448466876256,-6,-3,-2,-5,-25,-9,0,-4
1528448466897199,-4,-1,-1,1,-17,-22,-3,-4
1528448466897199,-1,0,-2,3,12,5,-5,-5
1528448466898196,0,0,2,8,4,28,23,2
1528448466898196,1,1,-1,3,29,-8,2,-4
1528448466911162,2,1,2,2,-3,21,6,1
1528448466911162,-3,0,-3,-5,-34,-36,-16,-6
1528448466920139,-2,0,-1,-1,7,-5,-8,-5
1528448466920139,0,-1,0,1,14,13,-1,1
1528448466934127,-2,-3,-3,-4,-8,-3,-5,-2
1528448466934127,-3,-2,-2,1,-3,3,10,-1
1528448466936096,-3,-2,-1,-5,-5,-13,-8,-3
1528448466936096,-2,-3,-6,-6,-21,-6,-3,-3
1528448466957042,-1,1,0,4,3,0,-6,-2
1528448466957042,-1,-2,0,-2,-9,-7,-14,-2
1528448466959034,-1,1,2,6,27,19,7,4
1528448466959034,1,1,2,4,9,31,25,7
1528448466971004,-1,-3,-7,-10,-12,-22,-5,-1
1528448466971004,-5,-4,-5,-11,-24,-12,-10,-6
1528448466979979,1,2,5,9,23,18,8,3
1528448466979979,-1,-4,-3,-2,-3,0,-7,-2
1528448466994966,-3,-2,-4,-5,-8,-5,-3,-3
1528448466994966,-1,-3,-4,-8,-10,-24,-10,-2
1528448466995936,-2,-1,-1,-6,-24,-18,-16,-8
1528448466995936,1,2,-3,-15,-29,-18,-7,-2
1528448467016879,6,4,7,19,24,31,17,6
1528448467016879,-2,6,8,24,72,60,22,8
1528448467018874,-1,-4,-5,-8,-15,-10,-10,-3
1528448467018874,-4,-4,-5,-8,-21,-23,-11,-6
1528448467030869,-3,-4,-4,-10,-15,-24,-11,-2
1528448467030869,0,-4,-5,-7,-23,-30,-7,-3
1528448467039821,0,3,-1,-1,16,19,2,-2
1528448467039821,0,-3,-4,-5,-11,0,5,-1
1528448467053824,-3,-3,-2,-2,13,4,6,0
1528448467053824,1,2,3,7,5,9,10,0
1528448467060801,-2,0,0,1,-2,3,-5,0
1528448467060801,0,-5,-2,-1,2,0,3,-2
1528448467076758,-3,0,0,1,0,2,0,0
1528448467076758,1,-2,-4,0,13,-1,0,2
1528448467078714,0,-2,-3,-8,-23,-14,-5,-4
1528448467078714,-4,-2,-2,3,10,5,-5,0
1528448467090682,-2,-4,-4,-4,-2,3,9,-2
1528448467090682,-2,0,-2,-9,-12,-10,-7,-1
1528448467099658,-5,-7,-7,-7,-10,-9,-4,-2
1528448467099658,0,2,3,0,-4,-6,-4,-2
1528448467114660,-1,2,7,11,14,9,3,1
1528448467114660,-1,-4,-6,-5,3,9,8,2
1528448467115616,1,2,0,1,2,6,4,1
1528448467115616,1,-1,-2,-6,-7,-14,-10,-6
1528448467136563,-4,-1,2,3,-6,-8,-12,-1
1528448467136563,2,3,4,9,6,7,16,4
1528448467138567,-1,-2,-1,3,11,19,22,6
1528448467138567,-3,-4,-4,-2,1,-1,-8,-5
1528448467151547,3,1,1,-6,-10,-2,1,-1
1528448467151547,-1,-4,-3,-6,-7,-13,-15,-4
1528448467159500,-2,-3,-4,-3,-9,-11,-1,-1
1528448467159500,3,6,6,11,15,11,9,7
1528448467174459,-1,-1,-4,-3,2,2,-1,-2
1528448467174459,-3,-1,-1,-5,-7,-4,-7,-4
1528448467176455,0,-2,2,-1,-6,-10,-5,-3
1528448467176455,-2,0,1,2,6,7,1,1
1528448467196399,2,1,1,3,-1,1,0,0
1528448467196399,-1,-2,-6,-12,-9,-9,-8,-4
1528448467204378,-1,0,-4,-4,-10,-9,-3,-3
1528448467204378,-1,1,4,10,13,15,10,5
1528448467210363,-1,-1,0,3,5,-6,-7,-3
1528448467210363,2,1,3,4,8,11,6,4
1528448467219338,-2,-1,-5,-6,-2,-4,-4,-3
1528448467219338,-2,-4,-4,-6,-10,-9,-6,-3
1528448467234337,1,-3,-3,-5,-5,-4,-2,-2
1528448467234337,-2,-3,0,-4,-5,-4,-7,-4
1528448467240308,3,0,2,1,2,3,-1,-2
1528448467240308,-6,-3,-5,-7,-6,-4,-1,-2
1528448467257289,0,-3,-1,-2,-4,-5,-3,-1
1528448467257289,-1,-2,-5,0,-1,-1,0,-1
1528448467258286,1,2,7,12,10,5,1,0
1528448467258286,0,-2,-8,-2,-4,-2,-3,-4
1528448467270207,-1,-3,-6,-9,-7,-2,-1,-2
1528448467270207,0,0,3,4,5,1,2,1
1528448467280175,-3,-3,-4,-7,-5,-1,-4,-1
1528448467280175,0,0,5,4,4,2,0,-1
1528448467294140,-1,3,1,-1,-2,3,1,-2
1528448467294140,-1,-1,0,1,2,-1,-1,0
1528448467301122,-3,-2,-2,-2,-1,-4,-1,-2
1528448467301122,-2,-1,-1,-4,-3,-5,-4,-3
1528448467317132,-1,-1,-8,-9,-10,-4,-1,0
1528448467317132,-3,1,-3,-3,0,-5,-3,-3
1528448467319071,-1,2,1,5,1,3,2,1
1528448467319071,1,1,1,3,5,2,3,2
1528448467331040,-2,-2,-2,1,0,3,1,0
1528448467331040,-1,-1,-3,-7,-10,-10,-10,-6
1528448467340043,-3,-2,3,0,0,-6,-2,0
1528448467340043,1,2,1,2,2,10,9,4
1528448467362013,-2,-2,1,4,6,6,1,-3
1528448467362013,-2,0,2,5,10,6,-1,-1
1528448467363990,0,-1,-6,-7,-5,-4,-4,-2
1528448467363990,-2,-3,-3,-8,-13,-12,-10,-3
1528448467376950,-2,0,1,2,-1,-8,-3,-3
1528448467376950,0,-1,0,-1,-3,1,6,3
1528448467378911,1,0,-1,1,2,8,5,1
1528448467378911,-1,-1,-1,-1,5,3,-1,-1
1528448467390879,0,-2,-4,-7,-11,-5,-4,-3
1528448467390879,-1,1,0,3,-1,-6,-12,-4
1528448467399902,-1,-2,-1,3,4,4,10,6
1528448467399902,0,-1,-2,-6,-7,-1,4,0
1528448467413821,0,0,4,8,3,3,-1,-1
1528448467413821,-1,-2,-2,1,1,1,0,0
1528448467420826,0,1,-2,-2,-3,-2,-8,-1
1528448467420826,-2,-5,-6,-7,-8,-7,-6,-3
1528448467436758,2,0,1,2,5,1,4,1
1528448467436758,1,0,-2,-2,0,5,4,1
1528448467438752,0,0,4,4,1,2,-3,-2
1528448467438752,0,2,3,2,6,-1,0,-1
1528448467450720,0,-1,-4,-8,-17,-11,-6,-4
1528448467450720,-2,-3,-4,0,0,1,1,1
1528448467459696,0,-1,-5,-5,0,2,0,-1
1528448467459696,-3,-4,-1,1,0,-4,-3,-1
1528448467473659,-3,0,0,1,6,4,1,1
1528448467473659,0,3,1,-4,-9,-8,-4,-2
1528448467480639,-4,-6,-6,-10,-14,-12,-7,-5
1528448467480639,1,3,4,7,7,3,0,1
1528448467496598,-1,-3,-3,1,1,8,4,2
1528448467496598,1,-2,3,6,3,3,3,2
1528448467498593,-3,-1,-4,-1,1,0,-3,-2
1528448467498593,-2,-1,-3,-4,-8,-7,-6,-4
1528448467519551,-1,-1,-3,-3,-5,-5,-2,-3
1528448467519551,-2,-2,-2,-1,1,1,0,0
1528448467521558,-1,-2,3,-1,1,1,0,-1
1528448467521558,-1,-1,-3,2,2,1,0,-2
1528448467533544,-2,0,-5,-6,-5,-3,-4,-2
1528448467533544,-1,-1,-1,3,-3,-3,-3,-2
1528448467540506,-1,1,5,6,6,4,3,2
1528448467540506,-1,-3,-5,-2,-5,-2,-1,0
1528448467556438,-2,-1,0,-2,-3,-2,-2,-2
1528448467556438,0,-1,-4,-7,-5,-4,-2,-2
1528448467564415,0,-1,2,3,1,-1,-2,-1
1528448467564415,-2,0,2,1,3,3,1,1
1528448467579424,2,-3,0,1,1,2,1,3
1528448467579424,-3,-2,-3,-4,-3,-1,-2,-2
1528448467581416,-3,-1,0,0,-2,-2,-1,-2
1528448467581416,-3,-2,-4,-4,-9,-5,-6,-4
1528448467593386,3,1,0,-1,3,-3,1,-1
1528448467593386,-2,-1,2,2,4,7,5,-1
1528448467602322,-2,-1,-5,-4,-1,-1,-2,-1
1528448467602322,-2,-1,-2,-3,-2,0,-5,-2
1528448467617275,-4,-3,0,-3,-6,-7,-8,-5
1528448467617275,3,0,-1,0,-1,1,3,-2
1528448467618273,2,-1,1,4,2,3,12,12
1528448467618273,5,1,0,0,5,3,1,-3
1528448467639215,-5,-1,-3,-1,1,-1,-2,-3
1528448467639215,2,-2,-1,-7,-6,-7,-7,-3
1528448467641212,3,-1,-2,-3,-1,-5,-8,-4
1528448467641212,-9,-2,0,1,1,-1,2,0
1528448467653180,-3,0,-1,1,0,1,0,-1
1528448467653180,-2,-2,-2,-2,1,-1,-2,0
1528448467662155,0,-1,-3,-4,-5,-1,-4,-4
1528448467662155,1,1,1,-2,-3,-3,-2,0
1528448467676139,-2,-2,0,2,3,3,1,-1
1528448467676139,-3,0,-1,-1,-5,-2,0,0
1528448467685109,-3,-3,-2,-3,0,-1,-1,0
1528448467685109,0,1,1,2,1,-1,-1,-4
1528448467700248,-2,-2,-6,-7,-6,-4,-3,-2
1528448467700248,2,0,1,-1,3,0,-1,0
1528448467701052,-3,1,1,3,1,2,0,-1
1528448467701052,-2,-1,0,0,-2,0,0,0
1528448467722323,0,-3,-2,-3,-2,-3,-4,2
1528448467722323,2,0,-2,-2,-4,1,4,0
1528448467723514,-1,-1,0,2,2,-1,-1,-2
1528448467723514,0,-1,1,2,3,1,2,-1
1528448467735548,0,1,-1,-3,-1,-2,-1,-1
1528448467735548,-4,-1,-1,-5,-6,-4,-5,-3
1528448467744517,-1,1,-3,0,-1,-6,-1,0
1528448467744517,1,-1,-2,0,-2,2,0,1
1528448467767744,0,-1,0,2,2,2,3,0
1528448467767744,-2,0,0,1,1,0,-1,0
1528448467768743,1,-1,-4,-7,-6,-2,-3,-4
1528448467768743,3,-1,-5,-8,-8,-4,-5,-2
1528448467781906,-15,-2,-1,0,-6,-4,-1,-4
1528448467781906,-1,-1,-1,1,5,1,0,1
1528448467788919,-1,-2,4,11,9,2,0,0
1528448467788919,0,-1,-1,-1,0,-2,-2,-3
1528448467796122,2,-3,-5,-5,-8,-4,0,-1
1528448467796122,-2,0,-4,-4,-7,-3,-3,-2
1528448467804848,-2,-1,-4,-6,-3,-1,-2,-3
1528448467804848,0,-2,-1,0,3,4,2,1
1528448467819031,3,2,1,1,1,0,1,0
1528448467819031,-1,-1,1,4,2,-1,-1,1
1528448467827860,0,-2,-3,-5,-6,-3,-3,-3
1528448467827860,-3,-2,-3,-3,-5,-1,-1,-3
1528448467842396,1,0,-1,-2,1,0,-1,0
1528448467842396,-3,-3,-2,-1,1,0,-1,-2
1528448467844396,-2,0,-1,-4,-5,-1,-2,-1
1528448467844396,0,-1,-1,0,0,-2,1,0
1528448467856117,0,-2,0,2,5,2,0,-1
1528448467856117,0,0,-1,-5,-2,0,-3,-3
1528448467865324,-2,-2,0,2,-1,-3,-4,-2
1528448467865324,0,0,0,1,1,0,2,1
1528448467879281,2,2,2,2,5,-1,1,2
1528448467879281,0,0,6,10,8,4,1,1
1528448467886014,-1,-1,-3,-2,2,2,-2,-3
1528448467886014,-2,-1,-3,-4,-4,-4,-4,-2
1528448467901977,0,0,0,-1,-5,2,1,-1
1528448467901977,-1,-2,-3,-3,-5,-5,-2,0
1528448467903966,-1,-2,-2,1,2,1,2,1
1528448467903966,-4,-1,0,0,-1,-1,-3,-5
1528448467916324,1,-2,-3,-1,1,-2,0,0
1528448467916324,-1,-1,1,-7,-7,-4,-2,-2
1528448467931365,0,-1,-1,-1,0,1,0,-1
1528448467931365,-2,-3,-3,-3,-2,-6,-3,0
1528448467939468,-1,0,1,4,2,3,1,0
1528448467939468,1,0,3,3,5,6,3,1
1528448467946342,0,0,-2,-2,-3,-2,-1,-1
1528448467946342,0,-1,-2,-4,-7,-6,-3,1
1528448467962397,-2,0,-4,-7,-7,-7,-3,-2
1528448467962397,-2,0,0,3,8,7,1,-2
1528448467963395,-3,0,1,-1,1,4,3,1
1528448467963395,0,-1,1,3,5,4,0,1
1528448467976132,-1,0,0,-1,-2,-3,-3,1
1528448467976132,-1,-3,-8,-9,-11,-11,-3,-2
1528448467985094,-3,-2,-3,-7,-9,-6,-3,-2
1528448467985094,-2,0,-2,1,6,4,1,-1
1528448467999342,1,0,4,3,-3,2,1,-3
1528448467999342,0,-2,1,2,1,-2,0,1
1528448468006390,1,-3,2,3,3,3,1,0
1528448468006390,0,-1,2,0,-3,-2,0,-1
1528448468022856,-2,-3,-3,-1,6,10,0,0
1528448468022856,-1,1,-6,-4,-1,-4,-1,-2
1528448468023619,-1,-4,-4,-4,-8,-7,-1,-1
1528448468023619,-1,2,5,3,0,-2,-1,-1
1528448468044557,-1,-7,-15,-8,-6,-7,-4,-2
1528448468044557,-1,-2,-1,-6,-5,-3,-3,-1
1528448468046565,-1,1,0,-3,-5,-5,-3,-1
1528448468046565,0,-5,-2,-6,-7,-6,-5,-2
1528448468066779,1,-1,4,5,4,6,0,0
1528448468066779,-3,-6,-6,-4,5,5,0,0
1528448468068778,1,0,2,2,4,8,4,3
1528448468068778,-1,-2,3,5,16,5,-2,-1
1528448468081988,-1,-3,-2,-8,-6,-2,-1,-2
1528448468081988,-2,-2,-4,-5,-8,-7,-3,-2
1528448468083736,-2,-1,-2,1,-3,-6,-5,-6
1528448468083736,-2,1,3,6,-8,-5,3,-3
1528448468104950,-2,0,-8,4,4,-3,-2,-1
1528448468104950,-3,3,0,1,-8,-4,-3,-3
1528448468106875,-3,1,-4,0,-11,-8,-4,-2
1528448468106875,-1,-2,-16,-4,-8,-4,-1,-1
1528448468118908,0,2,2,2,4,4,-1,-2
1528448468118908,-1,-1,5,6,3,7,2,0
1528448468127619,0,0,-6,-2,7,4,-1,1
1528448468127619,2,0,0,-8,-2,3,-1,1
1528448468141596,-3,-2,-1,-4,-20,-22,-10,-6
1528448468141596,-2,-3,-3,-3,-16,-23,-7,-2
1528448468143577,2,0,6,11,36,33,13,5
1528448468143577,3,6,3,12,28,41,17,6
1528448468164835,0,-6,4,4,16,12,3,3
1528448468164835,0,-2,-3,-8,-13,-13,-7,-1
1528448468166516,-5,-5,-7,-18,-33,-32,-17,-8
1528448468166516,-2,-3,-4,-5,-13,-12,-1,-1
1528448468178758,0,3,0,0,9,4,3,2
1528448468178758,-2,-1,3,5,9,8,1,1
1528448468187495,0,0,1,1,0,-4,-1,0
1528448468187495,-4,-2,-5,-11,-12,-9,-5,-3
1528448468201751,-1,1,4,1,-8,-3,-2,-3
1528448468201751,1,0,-3,-1,5,1,0,0
1528448468203748,0,-1,-1,0,2,4,1,-1
1528448468203748,-1,-2,6,2,-3,-6,-3,-3
1528448468225379,-1,-2,-1,-1,-4,-7,-2,0
1528448468225379,-2,0,2,3,6,7,2,0
1528448468226135,-1,0,-7,-9,-10,-5,-2,-2
1528448468226135,-1,-4,0,-5,-6,-14,-6,-2
1528448468238719,-2,-1,-1,2,-2,6,6,0
1528448468238719,4,2,4,11,15,14,5,4
1528448468247395,-1,0,3,5,11,8,0,0
1528448468247395,-3,-4,-7,-3,-2,-4,-4,-2
1528448468262340,-3,-1,-4,-12,-15,-7,-3,-2
1528448468262340,-1,-2,0,-1,-5,-5,-3,-2
1528448468263337,0,-2,-1,1,5,0,-1,0
1528448468263337,-2,-1,-2,-3,-3,-1,-2,-1
1528448468284280,1,-1,2,3,-1,-3,-3,0
1528448468284280,-1,0,-6,-4,-6,-1,-1,-2
1528448468284280,-1,-2,-1,-3,-3,-5,-1,-1
1528448468284280,-2,-2,0,-1,-2,-1,-1,0
1528448468306956,1,2,-1,1,2,2,1,-1
1528448468306956,0,-2,0,-2,2,-1,0,0
1528448468307828,-3,-2,0,-3,-2,-2,0,-2
1528448468307828,0,3,5,7,0,0,0,-1
1528448468322164,-2,-2,-1,-4,4,1,-1,-1
1528448468322164,-3,-7,-21,-12,-4,-5,-4,-2
1528448468322164,-2,-1,-1,-2,-7,-3,0,-3
1528448468322164,-2,2,1,1,1,1,0,-1
1528448468343949,0,3,0,0,2,0,-2,0
1528448468343949,0,1,6,1,-2,0,0,-1
1528448468345986,-3,-2,0,-1,-3,0,-2,-1
1528448468345986,-1,-1,7,11,3,-3,-2,-2
1528448468366992,1,-1,-6,-6,-1,3,-1,-2
1528448468366992,-2,-4,-2,-6,-5,-4,-1,-2
1528448468366992,0,-2,-4,1,1,0,-1,-3
1528448468366992,0,0,5,2,-2,-1,-2,-2
1528448468382149,-2,3,10,5,-1,-2,-1,-1
1528448468382149,-2,0,-8,-5,-1,-1,0,-1
1528448468382149,-4,-6,-25,-8,-5,-4,-2,0
1528448468382149,-2,3,-1,0,0,0,0,-2
1528448468404097,1,-7,-6,-4,-2,-2,-2,0
1528448468404097,-1,2,15,8,-1,-1,-1,-1
1528448468405202,4,0,1,0,-1,0,0,4
1528448468405202,-2,1,1,-3,-1,0,-1,-6
1528448468427103,-1,-1,-8,-3,-1,0,0,-2
1528448468427103,-6,-2,1,3,1,-2,1,-3
1528448468427103,-7,-3,-9,-6,-2,-2,-1,-6
1528448468427103,6,-2,3,1,-1,-2,1,7
1528448468441331,-1,0,-8,-10,-1,-3,-1,-2
1528448468441331,2,-2,1,7,-2,-1,-1,2
1528448468442995,0,2,6,1,2,1,-2,-5
1528448468442995,0,1,0,1,1,-1,-2,3
1528448468463944,-2,-2,-2,-10,-2,-1,0,2
1528448468463944,5,-4,-22,-12,-4,0,-3,-2
1528448468464946,-4,1,13,10,1,1,0,-5
1528448468464946,-2,-6,-18,-12,-4,0,1,-3
1528448468486885,4,3,8,8,2,0,1,4
1528448468486885,5,4,11,-1,2,-1,-2,-3
1528448468486885,1,-1,5,-2,1,-1,2,3
1528448468486885,-6,1,6,2,3,1,0,-1
1528448468502059,0,-16,-27,-19,-5,-5,-4,2
1528448468502059,-5,-1,0,-4,-2,-1,-3,-4
1528448468502059,5,2,7,5,-1,-3,-2,3
1528448468502059,2,3,2,-2,1,-1,1,1
1528448468524504,-4,1,4,3,1,-1,0,8
