timestamp,emg1,emg2,emg3,emg4,emg5,emg6,emg7,emg8
1528446919403365,-1,-1,1,0,-1,0,-2,-7
1528446919403365,0,-2,-2,-1,-1,-1,2,2
1528446919411344,2,-1,-1,1,-3,-1,-2,8
1528446919411344,-4,0,-1,-2,-2,-1,-1,-11
1528446919413338,1,-2,-1,-2,-2,0,-1,2
1528446919413338,-1,0,-1,-1,-1,-1,-2,-2
1528446919451237,0,-2,-1,-1,-2,0,0,-2
1528446919451237,-1,-1,0,-1,-3,0,-2,-1
1528446919453235,-2,0,-1,-1,-1,-3,-2,0
1528446919453235,-1,-1,-1,-1,-1,-2,-2,-9
1528446919453235,0,2,-1,-1,1,-3,2,4
1528446919453235,-1,-1,0,0,-2,0,-1,-1
1528446919457221,-1,-2,-1,0,0,0,0,-5
1528446919457221,1,0,0,-1,0,-2,-4,7
1528446919472182,0,1,0,0,-1,0,-1,-1
1528446919472182,-2,-2,-1,-1,-1,-1,-1,-4
1528446919473178,1,0,-1,-1,0,-1,0,2
1528446919473178,-3,-1,-2,-1,-2,0,-2,-9
1528446919494124,0,-1,-1,-3,-1,-1,-1,0
1528446919494124,2,-1,-1,-2,0,-2,0,5
1528446919496117,-3,-2,-2,0,-1,0,-2,-7
1528446919496117,-1,-2,-2,-1,0,1,-1,1
1528446919509084,-4,-1,0,-3,0,-1,-1,-2
1528446919509084,0,0,0,0,-2,-1,0,-3
1528446919515335,-1,-1,0,-2,-1,0,-2,-1
1528446919515335,0,-1,-2,-1,-2,-2,-1,1
1528446919532037,0,0,-2,-2,-1,0,0,1
1528446919532037,-1,-1,-1,-2,1,-3,-1,0
1528446919533037,-1,-2,-1,-2,-2,0,-1,-1
1528446919533037,-3,1,-1,1,0,1,0,-7
1528446919553989,4,1,0,-2,-1,0,2,10
1528446919553989,-4,-2,-1,1,-1,0,-1,-6
1528446919561957,-2,-1,-1,-1,-2,0,-2,-9
1528446919561957,-1,-3,-1,-2,-4,-4,-1,4
1528446919568965,-3,-2,-1,0,-2,-2,-3,-6
1528446919568965,0,-1,0,-2,-1,-2,-1,0
1528446919575920,0,0,0,-2,0,-1,0,2
1528446919575920,0,0,-1,0,0,0,0,2
1528446919598858,-3,-1,-1,0,-1,-2,-3,-10
1528446919598858,3,-2,-2,-1,-1,-1,1,11
1528446919600853,-3,0,0,-1,-1,-3,-3,-5
1528446919600853,-1,-1,0,0,-1,-2,-1,1
1528446919614852,-1,-1,-2,-1,0,0,-2,2
1528446919614852,-2,1,0,0,0,0,-2,-5
1528446919615813,-1,-2,-2,-1,0,-1,-4,-1
1528446919615813,-1,-1,-1,-1,-1,-1,0,2
1528446919627781,-2,-1,0,-3,-1,-1,-2,-5
1528446919627781,2,0,-2,-1,0,0,-2,5
1528446919636757,0,0,-1,-1,0,0,1,4
1528446919636757,-1,-2,-1,-2,-1,1,-2,-7
1528446919651719,-1,-2,-1,-2,-1,-1,-2,3
1528446919651719,-2,0,-1,0,-1,-1,-2,-6
1528446919653712,2,0,0,0,-2,-1,-1,2
1528446919653712,-3,-1,-2,-1,0,1,-1,-5
1528446919674704,1,-1,1,-1,-1,-2,-1,0
1528446919674704,-1,0,-2,-2,0,-1,1,-1
1528446919675704,-1,-1,-1,0,0,-1,-1,2
1528446919675704,-2,-2,-1,-2,-2,-2,-1,-4
1528446919687627,-1,0,-2,-1,1,-1,-1,-5
1528446919687627,0,0,0,0,-1,-1,-1,2
1528446919696598,-2,0,-1,-1,0,-2,-1,-4
1528446919696598,0,-2,-1,-1,-1,-1,0,4
1528446919726554,-3,-1,-1,0,0,0,-2,-4
1528446919726554,0,-2,-2,-1,-1,-1,-2,-1
1528446919728513,-1,-1,0,-1,-1,-2,0,-3
1528446919728513,-1,-1,-1,-2,-1,-1,-2,0
1528446919734548,0,-2,-1,-1,-2,0,0,1
1528446919734548,-2,-1,0,-2,-1,-1,-2,-5
1528446919735544,-1,-2,-3,-2,-3,0,-2,2
1528446919735544,-1,1,-1,-2,0,-1,0,0
1528446919748459,-1,-2,0,-1,-2,-1,-1,-6
1528446919748459,-1,0,-1,-1,-1,-2,-3,8
1528446919763471,-2,-1,-2,-1,-1,-1,-2,-4
1528446919763471,0,0,-2,-1,-1,-2,-1,1
1528446919771450,1,-3,-3,0,-1,0,0,-4
1528446919771450,-2,0,-1,1,0,-1,-1,-5
1528446919778380,0,0,-1,-1,-2,-1,1,4
1528446919778380,-1,1,0,-2,-1,2,-2,-4
1528446919794336,-2,-1,-2,-2,-3,-2,-3,-2
1528446919794336,-1,-1,-1,-1,-1,-1,2,-3
1528446919796332,0,0,0,0,1,-2,-1,3
1528446919796332,-2,-3,-2,0,-1,-2,-1,-7
1528446919808299,-1,-2,-2,-2,-2,-2,-2,1
1528446919808299,0,-2,-1,0,-1,-2,-1,-3
1528446919817277,0,0,-2,0,1,0,0,-1
1528446919817277,-4,-1,-1,-3,-1,-1,-2,-5
1528446919831291,2,-1,-2,0,-2,-1,1,9
1528446919831291,-2,-3,-2,-1,-1,0,-2,-2
1528446919838273,-3,-1,-1,-3,-1,-3,-1,-4
1528446919838273,0,-1,-1,-1,-1,-1,0,2
1528446919853233,-3,1,-1,-1,-1,0,-3,-10
1528446919853233,-2,-1,-1,-1,-2,0,-1,-2
1528446919862154,0,0,-1,0,-1,1,-1,0
1528446919862154,-4,-1,-3,-2,0,-2,-3,-2
1528446919877172,0,-1,-1,0,-1,-1,0,1
1528446919877172,-1,-1,-1,-2,-1,-2,-2,-4
1528446919878167,-2,-1,-1,0,-3,-1,-1,-3
1528446919878167,-1,0,-1,-1,-1,0,0,-1
1528446919899088,-4,-1,1,-1,-1,0,-2,-2
1528446919899088,-1,1,-2,1,-1,-1,0,3
1528446919901051,-1,-1,-1,0,-1,-2,-1,-3
1528446919901051,0,-1,-1,-1,-1,-1,0,2
1528446919921995,-1,-1,-3,-1,0,0,-1,-3
1528446919921995,0,-1,-2,-4,-4,-1,-4,3
1528446919922994,-4,-1,-1,-1,1,1,0,-7
1528446919922994,6,1,1,-1,-1,-1,4,9
1528446919951972,-2,0,1,-1,-1,-1,-1,-2
1528446919951972,-2,-1,-1,0,-1,-1,-1,-7
1528446919953965,-1,-2,-3,-1,-1,-1,-3,1
1528446919953965,-4,-3,-1,0,-1,0,-2,-1
1528446919958952,-3,-1,-1,-1,-1,-1,-1,-4
1528446919958952,0,-2,-1,-2,-1,0,-2,2
1528446919960896,2,-2,0,-2,-1,-2,0,9
1528446919960896,-2,-2,-2,-1,-1,-2,-2,-5
1528446919972913,0,-1,0,1,0,0,-1,-1
1528446919972913,-4,-2,-1,-1,-1,-1,0,-4
1528446919981836,-3,-2,-2,0,-4,-1,0,-6
1528446919981836,1,1,0,0,-1,-1,-1,6
1528446919996796,-1,-2,0,-1,-1,-2,1,0
1528446919996796,0,0,-1,0,-1,0,1,0
1528446919998815,-1,0,0,-1,-1,-1,0,-2
1528446919998815,-1,-3,-2,-1,-2,-2,0,4
1528446920020001,-1,1,0,0,1,0,0,-9
1528446920020001,0,-3,-2,-4,-3,-2,-1,-1
1528446920021768,-3,-4,-2,0,0,-1,-2,1
1528446920021768,1,-2,-1,0,-2,0,-2,1
1528446920033265,0,0,0,-1,-1,0,0,4
1528446920033265,-2,0,-1,-1,0,-1,0,-2
1528446920041817,-1,0,-1,-2,-1,0,-1,-4
1528446920041817,-3,-3,-1,-1,-1,-1,-2,-3
1528446920064816,-1,-3,-1,-1,-1,-4,0,4
1528446920064816,-1,-2,0,-1,-2,-1,-3,-3
1528446920065814,-1,1,1,-1,-2,-1,0,-5
1528446920065814,0,1,-3,0,-2,0,1,3
1528446920080039,-3,-1,-4,-1,-2,-1,-1,-1
1528446920080039,0,-2,-2,-1,0,-2,0,3
1528446920081771,2,0,-3,-2,-1,-1,-2,0
1528446920081771,-2,0,0,-3,0,-1,0,-4
1528446920093740,-1,1,-1,-1,0,0,-1,-2
1528446920093740,0,-1,-2,-1,-2,-1,0,-1
1528446920101994,-2,-1,0,1,-1,0,-2,-1
1528446920101994,0,0,-1,0,-1,-3,0,-2
1528446920115693,0,-2,-1,-2,-2,-1,-2,-7
1528446920115693,-2,-2,-2,-1,-2,-3,-1,4
1528446920117731,-2,0,-1,-2,-1,-1,-1,2
1528446920117731,1,0,1,-1,-1,2,1,0
1528446920138620,0,-1,-1,-2,-2,-1,0,2
1528446920138620,-1,1,-2,-1,-1,-1,-3,-3
1528446920139617,0,-1,-1,-2,0,-2,0,1
1528446920139617,-3,-2,-1,0,-2,-1,-2,-3
1528446920161968,-2,-2,-2,-1,0,0,-1,1
1528446920161968,-1,0,0,0,-1,-1,1,0
1528446920161968,-1,-1,-2,1,-2,-3,-2,0
1528446920161968,-4,-1,-2,0,0,0,-1,-6
1528446920176899,-3,-1,-1,-2,-2,-3,-1,-3
1528446920176899,-1,-1,-1,0,0,-3,2,-2
1528446920177857,-3,-1,-1,-1,-2,-2,-1,-7
1528446920177857,-1,0,-2,0,-1,-2,-3,0
1528446920199786,-2,0,-2,1,-2,-2,-1,-5
1528446920199786,0,1,0,-3,-1,-3,-2,6
1528446920200764,-1,-1,-2,-1,0,0,0,-3
1528446920200764,-2,0,-1,-2,-1,-2,-2,-2
1528446920221966,-1,-2,1,-1,-1,-1,1,1
1528446920221966,0,-1,0,0,-1,0,0,-2
1528446920221966,1,-1,-1,-1,-2,-1,-2,-2
1528446920221966,-1,-2,0,0,0,1,1,-1
1528446920236265,1,-1,0,0,-2,-1,-2,-1
1528446920236265,-1,0,-1,-1,1,-2,-1,-4
1528446920237233,-1,0,-2,-2,-1,-1,0,2
1528446920237233,0,0,0,-1,0,-3,-4,-6
1528446920259194,0,-1,0,-1,-3,-1,0,5
1528446920259194,-1,-2,-1,0,-1,0,-1,-4
1528446920259194,-1,-1,-2,-1,-2,-2,1,1
1528446920259194,-1,-1,-1,-2,-1,1,-1,1
1528446920282240,-2,-1,-2,-3,-1,0,-3,-6
1528446920282240,-2,0,-1,0,-1,-1,-2,-3
1528446920282240,-1,-2,-2,-1,0,-1,-3,2
1528446920282240,-3,-2,-1,-2,-2,0,-2,-5
1528446920305069,0,-1,-1,0,0,-2,-1,7
1528446920305069,-2,-1,-2,-2,0,-1,1,-8
1528446920305069,0,-1,0,0,0,-1,0,9
1528446920305069,-2,-2,0,-2,0,-3,0,-1
1528446920319255,0,0,-1,-2,0,-2,0,-2
1528446920319255,-2,-1,-1,0,-3,-1,-1,-2
1528446920320139,-1,-1,-2,-2,-1,-1,-1,-3
1528446920320139,-1,-1,-3,-1,-2,-1,-1,0
1528446920350042,-1,-1,-1,-2,-2,-1,0,0
1528446920350042,-1,-2,0,0,-1,1,0,-3
1528446920351018,-2,-1,1,0,-2,-2,0,-3
1528446920351018,-1,1,-1,1,-1,-1,-1,1
1528446920356945,-1,-2,-1,0,0,-1,-2,-6
1528446920356945,2,0,-1,-2,-1,-1,0,8
1528446920356945,-2,-2,-1,0,1,-2,-1,-1
1528446920356945,0,-1,-1,-1,-1,0,-1,-1
1528446920378859,-1,-1,0,-1,0,-1,-2,0
1528446920378859,-2,-1,-3,-1,-1,-2,-1,2
1528446920379853,-1,1,-1,0,-1,-1,-1,-6
1528446920379853,-1,-1,-1,-2,0,-2,-1,0
1528446920400798,-1,1,-1,-1,-2,-2,-1,-1
1528446920400798,-2,-2,-2,1,-1,-1,-2,-1
1528446920401794,0,0,-1,-1,-2,-2,-2,-3
1528446920401794,0,0,-3,-1,0,-3,-1,-1
1528446920416029,0,-2,0,-2,-2,-1,-1,2
1528446920416029,-1,-2,0,-1,-1,-1,-1,-1
1528446920417028,-1,-2,0,-3,-1,1,-1,-4
1528446920417028,1,-1,-2,0,-1,-2,-2,1
1528446920438968,-2,-1,-3,-1,0,-2,-2,0
1528446920438968,1,0,0,-1,-1,0,-1,0
1528446920439965,0,-1,0,-1,0,1,-4,-4
1528446920439965,0,-1,-2,-1,-1,0,0,-1
1528446920478523,1,-1,-2,0,1,0,1,8
1528446920478523,-1,0,-1,0,-1,0,-1,-5
1528446920479171,0,-1,-1,-2,-1,-3,-2,0
1528446920479171,-1,-2,0,-1,0,-1,-2,0
1528446920481422,0,-1,-1,1,-2,-1,0,-4
1528446920481422,-3,0,-2,-1,0,-1,-2,0
1528446920484161,-3,-1,0,-1,-1,-1,0,0
1528446920484161,-1,0,-1,-1,-1,-2,-1,-1
1528446920499119,-3,1,-3,-2,-1,-1,-2,-5
1528446920499119,2,-2,-2,-1,0,-3,-2,4
1528446920499119,-2,1,0,-2,-3,-1,0,-8
1528446920499119,0,-2,-1,-1,-2,-3,0,8
1528446920521722,-2,-2,-1,0,-1,0,-1,-3
1528446920521722,1,0,0,0,-1,-1,-2,-1
1528446920522456,-1,-1,-1,1,0,0,-1,2
1528446920522456,-2,-2,0,0,0,0,-3,-4
1528446920536305,-2,0,-1,-1,-1,-2,0,-3
1528446920536305,-2,-2,-1,-2,-1,-2,-2,-1
1528446920537038,1,-2,-1,-2,-1,0,0,6
1528446920537038,-1,1,0,-1,-2,0,0,-4
1528446920560311,-2,-1,-2,-2,-2,1,-3,-1
1528446920560311,-1,0,-1,-1,0,-3,-3,-2
1528446920561085,-1,0,-1,-1,-1,-1,0,3
1528446920561085,-2,-1,-2,-1,-2,-2,-2,-3
1528446920581588,-2,-1,1,-1,-2,-2,1,2
1528446920581588,-1,-1,-2,-2,-1,-1,0,-2
1528446920582354,-1,0,-1,-2,-1,0,-1,-1
1528446920582354,2,-1,-2,-2,-1,-2,-1,0
1528446920596314,1,-2,-2,0,-1,-2,-3,-1
1528446920596314,-1,1,0,-1,-3,-1,-1,-3
1528446920597537,-4,-2,-2,-1,-1,0,1,-6
1528446920597537,1,0,-1,0,-2,0,0,5
1528446920618533,-1,1,-1,-2,-2,-2,-2,-1
1528446920618533,-2,-2,-1,-1,-3,-1,0,4
1528446920626943,1,-1,-1,0,-2,-1,0,-2
1528446920626943,-2,0,0,-3,-2,0,0,-1
1528446920641026,-4,-2,-3,-2,-2,-2,-3,-8
1528446920641026,1,-1,0,-1,0,0,1,3
1528446920642788,1,0,-1,-1,-2,-2,-1,0
1528446920642788,-2,-3,-1,-1,1,-1,0,-1
1528446920656025,-2,-2,0,0,-1,-1,0,0
1528446920656025,-3,-2,0,-2,0,-1,-1,-6
1528446920657041,-1,-1,-1,0,-1,0,-2,1
1528446920657041,-1,-1,-1,-1,-1,0,-1,-4
1528446920679385,0,-1,-2,-1,0,-1,0,-1
1528446920679385,-4,-2,0,-1,-2,-2,-3,-5
1528446920679385,0,2,-2,0,0,0,0,4
1528446920679385,-2,-1,-1,-2,-1,-1,-3,-4
1528446920701265,-1,-1,0,0,-3,-1,-1,1
1528446920701265,-2,-2,-2,0,-1,-1,0,-2
1528446920702253,-3,-4,-2,-2,-3,-3,-4,-5
1528446920702253,-1,1,-1,-1,-1,1,0,-4
1528446920716268,0,0,1,-1,-1,-1,0,1
1528446920716268,1,0,-2,-2,-1,-1,1,3
1528446920717266,-1,-1,1,-1,-1,-2,-2,-3
1528446920717266,0,-3,-2,0,0,-2,-1,4
1528446920739207,1,0,1,0,-1,0,-1,-6
1528446920739207,-1,-1,-2,-1,-2,-1,-3,-4
1528446920740204,-1,-1,-2,-1,0,0,-2,0
1528446920740204,-2,-1,-1,-2,-1,0,0,-2
1528446920761447,0,-1,-2,-1,-1,1,-1,4
1528446920761447,-2,-3,0,0,0,-1,-1,-1
1528446920762657,0,0,0,-3,0,-1,-2,0
1528446920762657,-2,-3,-2,-2,-2,-1,-2,-2
1528446920776630,-3,-1,-2,-3,1,-1,-1,1
1528446920776630,-2,-1,-2,-1,0,0,0,-5
1528446920777400,0,-2,-1,-2,-1,-1,-1,3
1528446920777400,-1,0,-1,-1,-2,-2,-2,-3
1528446920798355,1,0,-1,-1,-1,-1,-1,-1
1528446920798355,0,-2,-1,-2,-1,1,-2,0
1528446920799350,-2,-1,-1,-2,0,-1,0,-1
1528446920799350,0,-2,-1,-1,-1,0,0,-1
1528446920821860,0,-2,-2,0,-1,-1,-2,0
1528446920821860,-1,0,-2,0,-1,-1,-1,-1
1528446920821860,-1,-1,-2,0,-1,0,-1,-3
1528446920821860,2,1,-2,0,-1,-3,1,3
1528446920836824,-1,0,-2,-2,0,-2,-2,-5
1528446920836824,1,-2,-1,-1,-1,-3,0,6
1528446920836824,-1,-1,0,-2,-1,-1,0,-4
1528446920836824,-3,-1,-1,0,-1,0,-2,-1
1528446920859352,-1,-1,-1,-1,-1,-1,-1,-1
1528446920859352,-2,1,-1,-2,-1,-1,0,-4
1528446920859352,0,0,-1,0,-2,-2,-2,0
1528446920859352,-3,-1,-2,-1,0,-2,-1,-1
1528446920882293,-1,0,-2,-1,-2,-1,0,1
1528446920882293,0,-2,-1,-2,-2,-1,-2,0
1528446920882293,-3,-1,-1,0,0,-1,-1,-1
1528446920882293,0,0,-1,0,-2,0,-2,-3
1528446920896534,-1,-2,-1,-1,0,-3,-1,-2
1528446920896534,0,0,-2,-1,-1,-1,2,1
1528446920897541,-1,-2,-1,-2,-1,0,-1,-1
1528446920897541,-1,-1,-1,-1,-2,-3,-2,-1
1528446920919234,1,-1,-2,-1,-1,0,-2,0
1528446920919234,-1,1,-1,0,-2,-2,-3,-2
1528446920919234,-1,-1,-2,-1,-1,-1,0,1
1528446920919234,-1,-1,-1,-1,-1,1,-1,-2
1528446920942465,-1,-2,-1,-2,-1,-1,0,0
1528446920942465,0,0,-1,-2,0,-1,-3,-2
1528446920943426,-1,0,-2,-2,-1,-1,-1,-5
1528446920943426,-1,0,-2,0,1,-1,-2,8
1528446920956184,-2,-2,0,0,-2,0,-1,-2
1528446920956184,-3,0,0,-1,-1,-1,-2,-1
1528446920957181,-2,-2,0,0,-1,-1,-2,1
1528446920957181,-1,-1,-2,-1,-1,-1,0,-4
1528446920978620,-1,1,-1,-1,-2,-2,0,0
1528446920978620,-1,-1,-2,0,-1,0,0,-2
1528446920980332,-2,-1,0,-1,-2,-1,-1,0
1528446920980332,-3,-1,0,-1,-1,0,-1,-6
1528446921002429,0,-1,0,0,0,0,0,1
1528446921002429,1,-1,0,-2,-1,-1,-1,-3
1528446921003199,0,-1,-2,-2,-1,-1,-1,1
1528446921003199,1,-1,-1,-2,-1,-3,-2,1
1528446921016162,-1,0,-1,-2,-1,-2,-1,-1
1528446921016162,-1,-1,0,-1,0,0,-1,-1
1528446921017162,-1,-2,-1,0,-1,-2,-1,-2
1528446921017162,-1,0,-1,-1,1,-2,-1,-1
1528446921039115,-2,-2,-1,-1,-1,-1,0,0
1528446921039115,-2,0,-1,0,-1,0,-1,0
1528446921040118,-1,0,-1,-1,0,0,-2,-1
1528446921040118,-1,1,-2,-1,-1,-2,-1,-2
1528446921062621,-2,-1,-2,0,-1,-2,-1,-2
1528446921062621,0,-1,0,0,0,0,0,0
1528446921062621,-1,0,-1,-2,-1,0,-1,-1
1528446921062621,0,-2,0,-1,-2,-1,0,-1
1528446921076852,-1,-1,-3,-1,0,-1,-1,-2
1528446921076852,-2,-3,-3,-1,-2,0,-1,5
1528446921076852,0,-2,-2,0,-1,-2,-1,-4
1528446921076852,-2,-1,-1,-1,0,0,0,0
1528446921105779,0,-1,-2,-1,-2,-1,-1,1
