timestamp,emg1,emg2,emg3,emg4,emg5,emg6,emg7,emg8
1528279628841192,-1,-1,-2,0,1,0,-1,0
1528279628841192,0,0,0,-1,-2,-1,-2,-1
1528279628842190,-2,-2,-2,-1,0,-2,0,0
1528279628842190,0,-1,0,-1,0,-1,-1,0
1528279628847179,-1,-1,0,-1,-2,-2,-1,0
1528279628847179,-2,1,0,-2,-1,-2,-1,0
1528279628854157,0,0,-1,0,-2,0,-1,-2
1528279628854157,-3,0,-2,0,0,0,0,-1
1528279628856166,0,0,-1,-2,-1,-1,-1,-1
1528279628856166,-1,-1,-2,1,-1,0,-1,-1
1528279628869118,0,-2,-1,-1,-1,-1,-1,-1
1528279628869118,0,-1,-1,0,-2,-3,-1,1
1528279628877098,-1,0,-1,1,-1,-1,0,0
1528279628877098,-2,0,-1,-1,-1,0,0,-2
1528279628883080,0,-1,0,-1,-1,1,0,-1
1528279628883080,0,1,-1,-2,1,-1,-2,0
1528279628898041,0,-2,-2,-1,0,2,0,-1
1528279628898041,0,-1,-1,-1,-2,-1,-1,-1
1528279628921977,-2,0,-2,0,-1,-1,-1,-1
1528279628921977,0,-2,-1,-2,-1,-1,0,-2
1528279628923971,0,1,0,0,0,-1,0,-1
1528279628923971,0,0,0,0,1,-2,0,0
1528279628934942,0,1,0,-1,-1,2,-2,0
1528279628934942,-3,-1,1,0,-1,0,0,1
1528279628975832,-1,-1,1,0,0,-1,-1,-3
1528279628975832,-1,0,1,-1,-1,0,2,0
1528279628976844,1,-1,-1,0,-2,-1,-2,-1
1528279628976844,-2,-2,0,-1,0,0,-1,-1
1528279628977827,-1,1,0,0,-1,-1,-1,0
1528279628977827,0,1,-4,0,-1,0,0,0
1528279628980818,-1,2,0,-2,1,-2,1,0
1528279628980818,-1,-1,-1,0,-1,0,-1,-2
1528279628981816,-1,-2,-1,0,0,-1,0,1
1528279628981816,-2,-3,0,0,-1,-1,0,0
1528279628994781,-2,-1,0,0,0,0,1,-1
1528279628994781,0,-1,-2,-1,-2,-1,-1,-1
1528279629002760,0,0,-1,-1,0,-1,1,0
1528279629002760,2,0,-1,0,-1,1,-1,0
1528279629011737,0,0,1,-2,0,-2,-2,0
1528279629011737,0,0,-1,-1,0,0,0,0
1528279629025699,0,-1,0,-1,-1,2,0,0
1528279629025699,0,-1,0,0,-1,-1,0,1
1528279629040660,-1,-1,1,0,0,0,0,-1
1528279629040660,0,0,0,0,0,-2,-1,0
1528279629041657,-1,0,-2,-1,-2,-2,0,-2
1528279629041657,1,0,-1,-1,-1,-2,-1,0
1528279629063598,0,-2,-1,0,0,0,-2,-2
1528279629063598,1,-1,-1,0,-1,-1,1,-1
1528279629064595,0,-1,-1,-1,-1,0,-1,-1
1528279629064595,-1,0,0,-1,-1,-2,0,0
1528279629086536,0,0,0,-1,-1,1,0,-1
1528279629086536,-1,-1,0,-1,-1,1,-1,-1
1528279629087534,0,-1,-1,0,0,0,0,0
1528279629087534,0,-3,1,0,-2,0,-2,0
1528279629101496,-2,2,0,-2,-1,-2,-1,-1
1528279629101496,0,0,-1,-1,-1,0,-1,-1
1528279629101496,-1,-1,-2,0,0,-2,-1,-2
1528279629101496,-1,0,0,-1,0,-2,1,0
1528279629123437,-1,0,0,-2,1,-1,0,-1
1528279629123437,-1,1,-2,-1,0,-1,-1,1
1528279629124445,1,-1,-2,1,-1,0,-1,-1
1528279629124445,-2,-1,-1,-1,-1,-1,-1,-1
1528279629146377,0,0,-1,-1,0,-1,-2,0
1528279629146377,-2,-1,0,0,0,0,-2,0
1528279629147381,-1,-1,0,0,-1,-1,0,-1
1528279629147381,0,-2,-1,0,0,0,-1,-1
1528279629160339,-1,0,-2,-1,-2,-1,0,0
1528279629160339,0,-1,0,0,-1,-1,0,-2
1528279629168318,0,0,-1,-1,-2,0,-1,0
1528279629168318,1,0,-1,0,-1,-1,-1,-1
1528279629183277,0,0,1,0,1,-2,1,-2
1528279629183277,0,0,-3,0,-2,-2,0,1
1528279629184286,0,0,-1,0,0,0,-1,1
1528279629184286,-1,-2,0,0,1,0,-1,-1
1528279629206216,-1,1,-1,-2,-1,0,0,0
1528279629206216,-1,-1,-1,-2,0,-1,-1,-2
1528279629207214,-2,0,-2,-1,-1,0,0,0
1528279629207214,0,0,-1,0,-1,0,-1,-1
1528279629220179,-1,1,1,0,-1,-2,-2,0
1528279629220179,0,0,-1,-1,-2,-2,0,-1
1528279629228158,0,-3,-1,-2,-3,-1,-1,-1
1528279629228158,-1,0,-1,1,-3,-1,-1,-1
1528279629243156,0,-1,-1,-1,-1,0,-2,0
1528279629243156,-1,-1,0,-1,0,-1,1,-1
1528279629244129,-2,0,0,-2,0,-1,0,0
1528279629244129,-1,-1,0,1,-2,0,1,0
1528279629267079,-2,-1,-2,-1,-1,-2,1,-1
1528279629267079,-1,-1,1,-1,1,0,1,0
1528279629267079,1,-1,-2,-2,0,-1,0,-2
1528279629267079,-2,0,-2,0,-1,-1,-3,-1
1528279629280260,1,-1,-2,1,1,-2,0,-1
1528279629280260,1,0,-2,-2,-1,0,-2,0
1528279629289241,0,-2,0,0,1,-2,0,-1
1528279629289241,-1,-1,-2,-1,0,0,0,-2
1528279629303990,0,0,0,0,-1,1,-1,0
1528279629303990,-1,-1,1,-1,0,0,-2,-1
1528279629303990,-1,0,-1,-1,-1,0,-1,-1
1528279629303990,0,-1,-1,-1,-1,1,-2,-3
1528279629326894,-1,0,-1,0,-2,0,1,-2
1528279629326894,-1,0,-1,-1,0,-1,0,-2
1528279629326894,0,-1,-1,-1,-1,-1,0,0
1528279629326894,-1,-1,-1,-1,-1,0,0,-1
1528279629339901,0,0,0,-1,-2,-1,0,0
1528279629339901,1,-1,1,-1,0,1,1,-1
1528279629348862,0,-1,-2,1,1,0,0,0
1528279629348862,0,-1,-1,-1,0,0,-1,-1
1528279629363796,0,0,1,0,-1,-1,-1,0
1528279629363796,1,-1,-2,-1,-2,-1,-2,0
1528279629363796,0,0,0,-1,-1,0,0,0
1528279629363796,-1,1,0,-2,0,0,-1,0
1528279629386785,0,-1,1,0,0,0,-2,-1
1528279629386785,-2,0,-1,2,0,-1,-1,0
1528279629387731,0,0,1,0,0,-1,-1,0
1528279629387731,1,0,-1,-2,-1,0,-1,1
1528279629400696,-2,-1,0,-1,0,-2,-1,0
1528279629400696,-1,-2,0,-1,0,-1,1,0
1528279629408676,-1,-2,1,0,1,-1,-1,1
1528279629408676,0,-1,-1,1,0,-1,-1,-2
1528279629423662,0,0,0,1,-1,0,-2,0
1528279629423662,1,0,0,1,-2,0,0,-1
1528279629424659,-1,0,-2,-2,-1,0,0,0
1528279629424659,0,-1,-1,-1,-1,-1,0,1
1528279629446619,-1,0,0,-1,0,-2,0,-1
1528279629446619,-1,1,-1,-1,-1,1,1,0
1528279629447572,0,0,-1,-1,0,-1,0,-1
1528279629447572,0,1,0,0,-1,0,-2,1
1528279629460536,0,-1,-1,0,-1,-1,0,-1
1528279629460536,0,0,0,-2,-1,-1,-1,-1
1528279629468569,0,0,0,-1,0,0,-1,-1
1528279629468569,0,0,-1,1,-1,-1,-1,0
1528279629483477,0,-1,-1,0,0,-1,0,0
1528279629483477,-2,-3,-1,-1,0,-2,-1,2
1528279629484474,-1,1,-1,-2,-2,0,-1,-1
1528279629484474,-1,-2,0,1,-1,-1,1,0
1528279629506414,0,-1,-2,0,0,0,-1,-1
1528279629506414,-1,-1,1,-1,-1,-1,-2,1
1528279629507412,-1,-1,-1,0,-2,-1,-1,-1
1528279629507412,-1,-1,0,0,0,0,0,-1
1528279629529352,-1,-1,0,-2,-1,0,-1,1
1528279629529352,-1,0,-1,-1,0,-1,1,0
1528279629530383,0,-1,1,-1,1,0,-3,0
1528279629530383,0,0,-2,-1,0,-1,-1,-1
1528279629543315,1,1,0,-2,0,-1,0,0
1528279629543315,-1,-1,0,0,-1,0,-1,-1
1528279629544312,0,0,0,-1,-1,-1,-2,-1
1528279629544312,0,-2,-2,0,-2,0,-1,-1
1528279629566255,0,-2,-3,-1,-1,0,-1,-1
1528279629566255,-1,0,0,1,-1,0,-2,-1
1528279629567252,-1,-1,0,-1,0,0,1,-2
1528279629567252,1,-1,0,-1,0,-2,-2,-1
1528279629589192,-2,0,2,-2,-1,-1,-1,0
1528279629589192,-1,1,0,-1,0,-1,-2,-1
1528279629590190,-1,0,-1,0,1,-1,0,-2
1528279629590190,0,-1,-1,0,0,-1,0,0
1528279629603155,-1,-2,-1,-2,-1,0,-1,0
1528279629603155,-2,0,1,-2,0,-1,-2,-1
1528279629604152,0,0,-1,-1,-1,1,-1,-1
1528279629604152,-1,0,-1,-1,0,-1,1,-1
1528279629634073,0,-3,0,-2,-2,-2,-1,0
1528279629634073,2,1,0,0,0,-1,0,-1
1528279629635070,-1,-2,-1,1,-2,0,0,0
1528279629635070,-1,0,-1,-1,0,0,-1,0
1528279629649078,-1,0,-1,1,-2,0,1,-1
1528279629649078,-1,1,-1,-1,-1,1,1,-1
1528279629650031,-2,1,1,-2,-1,-2,0,-1
1528279629650031,0,0,0,0,0,0,-1,0
1528279629662995,1,-1,-1,-1,1,-1,-2,-1
1528279629662995,0,0,-1,-1,0,0,-1,-2
1528279629671973,0,0,0,-1,-2,-1,0,-1
1528279629671973,0,1,1,-1,-1,1,1,-1
1528279629686965,-1,-1,-1,-1,-2,-1,-1,0
1528279629686965,-2,-2,0,0,-2,-1,-2,0
1528279629687976,-1,-1,-1,0,1,0,-2,-1
1528279629687976,1,-1,0,-1,0,-1,0,0
1528279629709905,-1,0,0,0,-1,-1,-3,1
1528279629709905,0,-2,-2,0,-1,0,1,-1
1528279629710910,0,2,-1,-1,0,-1,0,-1
1528279629710910,0,-1,0,0,-2,-1,-2,-1
1528279629722869,-1,-2,1,0,-3,-1,0,-1
1528279629722869,-1,-1,0,-1,-1,0,-1,0
1528279629731816,0,-2,1,-1,-1,0,0,0
1528279629731816,0,-1,-2,0,-2,-1,0,-1
1528279629746825,-2,-1,-3,-2,-1,-1,2,0
1528279629746825,-2,-2,0,-1,-1,-1,-1,0
1528279629748771,0,-1,-1,-1,-1,0,-2,-1
1528279629748771,0,0,-1,0,-1,-2,-1,-1
1528279629768767,-1,0,-1,-1,0,0,1,0
1528279629768767,-1,0,0,-1,1,-1,0,-1
1528279629770707,-1,-2,-2,0,0,-1,-2,-1
1528279629770707,0,2,-1,-1,0,-1,-2,-2
1528279629782677,0,-1,-1,0,0,0,-1,-1
1528279629782677,-2,-1,1,0,-1,1,-1,0
1528279629791662,0,0,-1,1,-1,-1,0,-1
1528279629791662,1,-2,-1,-1,0,-1,2,0
1528279629806612,0,-2,-1,-1,0,0,0,-2
1528279629806612,-1,0,1,1,1,-1,0,-3
1528279629808606,-1,0,0,0,0,-1,-1,-2
1528279629808606,-1,0,-1,-4,0,-1,-2,1
1528279629829582,1,0,-1,-1,0,-1,-1,-1
1528279629829582,0,-1,0,0,-2,-2,0,-2
1528279629830547,-2,0,1,0,1,-1,0,0
1528279629830547,0,1,-1,0,-1,0,-1,0
1528279629842516,-1,0,-1,-2,0,2,-1,-1
1528279629842516,0,-1,1,0,0,0,-1,-1
1528279629851510,1,0,0,-1,0,0,-1,0
1528279629851510,0,-2,-3,0,-1,-1,-4,-1
1528279629866451,1,-2,-1,0,-1,1,-2,-1
1528279629866451,0,-1,-2,0,0,-1,1,-2
1528279629868446,0,-1,-1,0,0,-1,1,-1
1528279629868446,-2,0,-1,0,0,0,-1,-1
1528279629896754,-1,-1,0,-1,-2,-2,-1,1
1528279629896754,-1,0,-1,-1,0,-1,-1,0
1528279629898367,0,-1,-3,-1,-1,0,-1,0
1528279629898367,0,-2,-1,-2,1,-3,1,0
1528279629903103,-1,-1,0,-2,-2,-2,-1,0
1528279629903103,1,-1,-2,0,-3,-1,0,0
1528279629911871,-1,0,-1,0,0,-1,-1,0
1528279629911871,0,-2,1,-1,0,0,1,0
1528279629926924,0,0,-1,0,-1,0,0,-2
1528279629926924,0,0,0,0,-1,-2,-1,-1
1528279629928664,0,-1,0,-1,-1,-1,-1,-1
1528279629928664,-2,-1,-1,-1,0,-1,0,-1
1528279629948940,0,0,-1,-2,0,-1,0,0
1528279629948940,-3,-1,1,0,-1,-1,1,0
1528279629963634,1,1,0,0,-2,0,-1,-1
1528279629963634,0,-1,-1,0,0,-1,-2,-1
1528279629972295,0,0,-1,-1,0,1,0,-1
1528279629972295,0,0,-1,-1,0,0,-1,-1
1528279629974067,-1,1,-1,-1,0,-1,-2,0
1528279629974067,0,-2,-2,0,-1,-1,-1,0
1528279629986162,-1,-1,0,0,0,-1,0,-1
1528279629986162,0,-1,-1,-1,-1,-2,1,0
1528279629994712,0,-1,1,0,0,0,0,1
1528279629994712,0,3,0,-1,1,0,1,0
1528279630009109,-1,-1,-1,-1,1,-1,-2,-1
1528279630009109,-1,-2,0,0,-2,-1,0,-1
1528279630015469,0,-1,0,-1,-2,0,-2,-1
1528279630015469,-1,-1,-1,0,-1,0,0,-1
1528279630032322,-1,0,0,0,-1,-2,-1,-1
1528279630032322,0,-1,-2,0,0,-2,-1,-1
1528279630032996,0,0,1,-1,-1,0,1,1
1528279630032996,0,-1,0,2,0,0,1,0
1528279630053975,2,0,-1,0,-2,0,-1,-2
1528279630053975,-1,-2,0,-1,-1,-1,-1,-2
1528279630055935,-1,-1,-1,-2,-1,-1,0,-1
1528279630055935,-2,0,0,-1,0,0,1,0
1528279630069219,1,-1,-2,-2,-1,-2,0,0
1528279630069219,0,-2,0,0,0,0,1,0
1528279630074892,0,0,-1,-1,0,-1,-1,-1
1528279630074892,0,-2,-1,0,-1,0,-1,0
1528279630092078,-2,-1,-2,-1,-1,-1,0,-2
1528279630092078,0,0,-1,-2,-1,0,-1,0
1528279630093877,1,2,1,-1,-1,1,0,1
1528279630093877,0,-1,-1,-1,-2,1,0,-1
1528279630113833,-2,0,0,1,0,1,0,0
1528279630113833,0,0,0,0,-1,-1,-2,-2
1528279630115776,0,0,0,2,-1,-1,-1,0
1528279630115776,-2,0,1,-4,0,-1,0,0
1528279630136718,-1,-1,0,0,0,-1,-1,0
1528279630136718,-1,0,-1,1,-1,-1,-1,-2
1528279630138770,0,-1,1,-1,-1,0,0,0
1528279630138770,1,-1,-2,0,-1,-1,-1,0
1528279630151901,0,-1,0,-1,-1,-2,0,-1
1528279630151901,0,1,-1,0,0,1,0,-1
1528279630153705,-1,-1,0,-1,-1,0,-2,0
1528279630153705,-2,-2,-1,-1,-2,-2,-2,-1
1528279630174812,-1,0,-1,0,2,0,0,-1
1528279630174812,-3,-1,-1,0,0,0,-1,0
1528279630175625,0,-2,-2,0,0,-2,0,-1
1528279630175625,0,0,-1,-2,-1,0,-1,-1
1528279630196863,3,2,0,0,-3,0,0,0
1528279630196863,0,0,0,-2,-2,-1,0,-2
1528279630198558,-2,0,-1,0,0,-2,-1,1
1528279630198558,-1,0,-2,-1,-2,-1,0,-2
1528279630211958,-1,-2,-1,-1,-1,-1,0,-1
1528279630211958,0,1,1,1,-1,1,-1,1
1528279630213516,-2,-1,-2,0,-1,-1,-1,1
1528279630213516,-2,1,0,-2,1,-1,-1,-1
1528279630234783,-1,-1,0,-1,-1,2,-1,0
1528279630234783,-1,-1,-2,0,1,-1,0,-1
1528279630235459,-1,-1,-2,-2,1,0,0,1
1528279630235459,0,-2,-2,-2,-1,-1,-1,-2
1528279630247422,0,1,0,-1,-1,0,0,1
1528279630247422,1,0,-1,-1,0,-2,0,-1
1528279630256410,-1,-1,0,-1,-2,-1,-1,-2
1528279630256410,1,0,-2,0,-2,-1,1,-2
1528279630272417,-1,0,-1,-1,-2,-1,-1,-1
1528279630272417,0,-1,1,-1,-2,1,0,1
1528279630273355,0,-2,-2,0,0,-1,1,-1
1528279630273355,0,0,-1,0,-1,-2,-1,0
1528279630293573,0,0,-1,0,-1,1,0,0
1528279630293573,-1,2,-1,-1,0,-2,0,-1
1528279630309601,-1,0,-1,-2,-1,-1,-1,-1
1528279630309601,-1,0,-2,-1,-1,-2,-1,0
1528279630310562,-1,-2,0,0,0,-2,-1,-1
1528279630310562,-1,-2,0,2,-2,0,-1,0
1528279630316660,-1,0,0,-1,0,-1,-1,0
1528279630316660,0,-1,0,-2,-1,-1,-1,1
1528279630331505,-1,-1,1,-1,-1,-1,0,-1
1528279630331505,-1,-1,-1,0,-1,-1,-1,-1
1528279630333499,0,-1,0,-3,-1,-1,-1,-1
1528279630333499,-3,-2,-1,-1,1,0,0,-1
1528279630362446,1,0,0,-1,1,-1,0,0
1528279630362446,-1,0,-1,-1,-1,-1,0,-1
1528279630363420,1,0,0,0,0,-1,1,0
1528279630363420,0,-1,-1,1,0,-1,1,1
1528279630368160,0,0,-1,0,-2,0,0,-1
1528279630368160,-1,-1,-1,-1,0,-1,-2,-2
1528279630376853,0,0,-1,0,1,-1,-2,1
1528279630376853,-1,-2,1,-2,-2,-1,0,0
1528279630392058,-1,0,0,-1,0,-1,0,0
1528279630392058,0,-1,1,0,0,-2,0,-1
1528279630393773,-1,-1,-1,-1,-1,-1,1,0
1528279630393773,-1,-1,-1,0,-1,1,0,-1
1528279630414727,0,0,-1,-2,-1,0,0,-1
1528279630414727,2,-1,-1,0,-1,-2,-1,-1
1528279630416702,-2,0,1,0,-1,0,-1,1
1528279630416702,-1,-2,-2,-1,0,-2,-2,-1
1528279630428686,0,-2,-1,-2,0,-1,-2,0
1528279630428686,0,-1,0,-2,-1,-2,-1,-1
1528279630436638,1,-3,-2,-1,-1,-1,-1,-1
1528279630436638,-1,0,-1,-4,-2,0,1,0
1528279630451949,0,-1,-2,-1,-1,-1,0,-2
1528279630451949,-1,0,0,1,1,-2,0,-1
1528279630453593,1,0,1,1,1,0,-1,-2
1528279630453593,-1,0,0,0,0,1,0,-1
1528279630474806,-1,-1,-1,-1,-1,-1,0,0
1528279630474806,-1,0,0,0,-1,-2,-2,0
1528279630475545,-1,1,0,0,-1,-1,-1,-1
1528279630475545,1,0,0,-1,-1,-1,-1,-1
1528279630488533,-1,-1,-2,-2,-1,-1,-1,-1
1528279630488533,1,0,-1,-1,-1,-1,-3,-1
1528279630496681,-1,-3,-1,-1,1,0,0,-1
1528279630496681,-1,-1,-1,-2,0,-1,-2,0
1528279630511752,-1,0,-2,-1,-1,1,0,-1
1528279630511752,-1,0,-2,0,-2,-1,0,1
1528279630512750,-1,-1,0,1,-2,0,-1,0
1528279630512750,-2,-1,-1,-1,0,0,-1,-1
1528279630534965,-1,-1,0,0,0,-1,0,-2
1528279630534965,-1,1,0,-1,0,0,0,0
1528279630535690,-1,0,0,-1,-1,-1,0,0
1528279630535690,-1,-1,-1,-1,-1,-1,0,-1
1528279630547658,-2,0,1,-1,-1,-1,1,0
1528279630547658,1,0,-2,0,1,0,-3,-1
1528279630556726,-1,-1,-1,0,1,0,-1,1
1528279630556726,2,0,0,-1,1,1,0,0
1528279630572824,1,-1,-1,-1,0,-2,-1,-1
1528279630572824,0,-2,0,-1,-1,-1,0,-1
1528279630585816,-1,-1,-2,-1,-1,-1,-1,-1
1528279630585816,-1,0,-1,0,-1,0,-1,-1
1528279630595033,-2,1,1,-1,-2,-1,-1,-1
1528279630595033,0,-1,-1,0,-1,-1,-2,-1
1528279630595827,0,0,0,0,-1,0,0,0
1528279630595827,0,1,-2,-1,-2,-2,-1,-1
1528279630608134,1,-2,0,-3,0,-1,-1,0
1528279630608134,-1,0,1,1,0,-1,-1,1
1528279630616771,-2,-2,-3,0,0,0,0,1
1528279630616771,-2,0,0,1,-1,0,-2,0
1528279630631732,0,1,0,-2,1,-1,-1,-2
1528279630631732,-2,-1,-1,-1,0,-1,1,1
1528279630633727,0,0,-2,-1,-1,-1,-2,-2
1528279630633727,-1,-1,0,-1,0,-1,-1,0
1528279630654957,0,-2,-1,-1,-1,-1,-3,0
1528279630654957,-2,-1,-3,-1,-1,1,-1,-1
1528279630655670,1,0,0,0,-1,-1,-2,0
1528279630655670,-2,0,-1,-1,0,0,-2,-2
1528279630667880,0,-1,1,-1,-2,-1,1,0
1528279630667880,0,-1,-1,0,0,-1,-1,-1
1528279630676920,-1,1,0,-1,-1,-1,0,-1
1528279630676920,1,-1,0,-1,-1,0,0,1
1528279630692228,-1,0,0,0,-1,1,0,-1
1528279630692228,0,-1,-1,0,0,0,0,1
1528279630693875,-1,0,-2,-1,-1,-1,-2,-1
1528279630693875,-1,-1,1,1,-1,0,-2,0
1528279630713873,-2,-1,0,0,1,0,0,-1
1528279630713873,1,-2,-2,-1,-1,-1,-1,-1
1528279630715816,0,-1,-2,0,1,0,0,-1
1528279630715816,1,0,-1,-1,-1,-1,-2,-1
1528279630728550,-2,-1,-2,-2,0,-2,0,-2
1528279630728550,-1,0,0,0,-1,0,-1,-1
1528279630754164,-1,-1,-2,-1,0,-1,-1,-1
1528279630754164,-1,-2,-1,0,-1,-3,0,-2
1528279630755272,-1,-2,-2,0,-2,-2,-2,0
1528279630755272,-1,0,0,-1,-2,-1,0,0
1528279630758393,0,0,-2,-2,0,0,-1,-1
1528279630758393,0,-1,0,0,0,2,0,1
1528279630774354,-1,-2,0,-2,1,0,0,-1
1528279630774354,0,-1,0,-1,0,-1,0,0
1528279630776358,0,0,1,1,-1,0,0,-1
1528279630776358,0,0,-2,0,-1,0,-2,0
1528279630788341,-1,-1,-1,-1,0,-1,-1,-1
1528279630788341,-1,-3,-2,-1,-2,1,0,-1
1528279630804582,0,0,-2,-1,-3,-1,2,-1
1528279630804582,-1,0,-2,0,0,-1,-1,-1
1528279630811892,-1,0,0,0,0,0,-2,0
1528279630811892,-1,0,-2,0,-3,-1,-1,-1
1528279630818619,-1,-1,-1,0,-2,-1,0,-1
1528279630818619,-1,-2,0,0,-1,-1,1,-1
1528279630834505,-1,-1,0,1,-1,0,0,0
1528279630834505,0,1,0,-2,0,-1,0,-3
1528279630835499,0,-2,-2,-2,-2,-2,-2,-1
1528279630835499,-1,-2,-1,-1,-1,0,-1,-2
1528279630864424,-1,-2,-3,0,-1,0,-1,0
1528279630864424,-1,0,-1,-1,1,-1,0,-1
1528279630865461,0,1,-1,1,-1,0,0,0
1528279630865461,-1,1,-3,-1,-1,-3,0,0
1528279630871435,0,-1,0,0,0,0,1,-1
1528279630871435,0,-1,-1,1,-1,0,0,0
1528279630877387,-1,0,-1,-1,-1,0,-1,1
1528279630877387,-1,-2,-1,-1,-1,-1,0,0
1528279630894396,0,0,-1,0,-1,0,0,0
1528279630894396,1,-2,-1,-1,0,0,-1,-2
1528279630895396,-2,-1,0,-1,-1,0,-2,1
1528279630895396,-2,-2,-1,-2,1,-1,-1,0
1528279630907359,-1,-1,-1,-2,0,-1,-2,2
1528279630907359,-1,1,-2,0,-1,0,-1,0
1528279630916338,1,0,-2,-1,0,0,-1,-1
1528279630916338,0,-2,-1,-1,-3,0,0,0
1528279630931296,0,-2,0,-2,-1,0,0,-1
1528279630931296,0,0,1,-1,0,-2,-1,-1
1528279630938294,-1,0,0,-2,0,-2,1,0
1528279630938294,-1,-1,-1,1,1,0,-1,0
1528279630954238,1,-2,-1,1,-1,-1,-2,0
1528279630954238,0,0,-2,0,-2,-1,-2,0
1528279630956231,0,-1,-2,-1,0,-1,-3,-1
1528279630956231,-3,0,-2,-1,0,-2,0,0
1528279630977121,-1,2,-1,0,2,-2,-2,0
1528279630977121,-1,1,0,1,1,-1,-1,0
1528279630978119,-1,0,0,-1,0,-1,-1,1
1528279630978119,0,-1,-1,-1,-2,0,0,0
1528279630991109,-1,-1,-1,0,0,-2,1,-1
1528279630991109,0,-1,1,-3,-3,-3,-1,-2
1528279630998120,0,0,-1,0,0,1,0,-2
1528279630998120,1,0,0,-1,-1,-1,-2,0
1528279631014022,-2,-2,-1,0,-1,0,0,0
1528279631014022,0,-1,-2,0,0,0,0,0
1528279631016017,0,-1,-1,-2,-3,-1,-5,-3
1528279631016017,0,-3,-2,1,1,1,0,-1
1528279631037012,0,-1,1,0,0,1,-1,-1
1528279631037012,0,-1,1,2,0,-1,0,0
1528279631037989,-1,-1,0,-2,0,0,0,0
1528279631037989,0,-2,-1,-2,1,-1,1,-2
1528279631050924,0,0,0,-1,0,0,0,0
1528279631050924,0,2,-1,-4,1,-2,-1,-1
1528279631057954,-1,0,0,-1,-2,-3,-2,-2
1528279631057954,-1,1,-1,-2,-1,-2,-3,-1
1528279631073883,0,0,1,-1,0,-1,1,0
1528279631073883,-1,0,0,-2,0,-1,0,-1
1528279631075857,-2,-2,-3,1,0,1,-1,-2
1528279631075857,0,-1,0,1,-1,0,-2,0
1528279631097798,-1,0,-1,-1,0,1,0,-1
1528279631097798,0,-2,0,2,-2,-1,0,-1
1528279631099795,0,-2,0,0,0,1,-1,1
1528279631099795,0,-2,-1,0,-1,0,0,-1
1528279631110778,-2,0,-1,-2,-1,-1,0,0
1528279631110778,-1,-1,1,-2,-1,-1,0,0
1528279631119807,1,-2,-2,-1,0,-1,-1,-1
1528279631119807,-1,-1,-1,0,-3,0,-1,0
1528279631133739,-2,-2,-1,0,0,-2,-1,-1
1528279631133739,-1,0,-1,0,-2,0,1,-1
1528279631135700,0,0,-1,1,0,-1,0,-1
1528279631135700,-1,-1,1,0,0,0,0,-2
1528279631156696,1,-2,-2,-1,0,0,0,-2
1528279631156696,0,-1,0,-2,1,-1,-1,0
1528279631158692,-2,1,-1,0,-2,0,0,0
1528279631158692,0,-1,-1,1,-2,0,-1,0
1528279631170637,0,-2,0,-1,0,0,0,1
1528279631170637,-1,0,-1,-1,-1,-2,-1,0
1528279631185563,0,-1,-1,0,-1,0,0,1
1528279631185563,0,1,-2,-1,-1,-1,-2,-2
1528279631194760,-1,0,1,0,1,0,-1,-1
1528279631194760,0,1,0,1,-1,-1,-1,0
1528279631195619,0,-1,0,0,0,-1,0,0
1528279631195619,-1,-2,-2,0,1,-1,0,-2
1528279631216696,0,-2,1,-1,-1,-1,1,-1
1528279631216696,-2,0,-1,-3,0,0,-1,0
1528279631218476,1,1,-3,-1,-1,-2,-1,-1
1528279631218476,0,-2,0,-1,0,1,-1,1
1528279631230746,-1,0,-1,-1,0,-1,0,-1
1528279631230746,1,-1,0,0,0,0,-1,-2
1528279631246846,0,0,-2,1,-1,-1,1,-2
1528279631246846,1,0,-2,-1,0,-1,1,-1
1528279631254795,0,1,0,-2,0,0,-1,-1
1528279631254795,0,-1,0,0,0,-2,-1,1
1528279631255808,1,-2,-2,-1,-2,0,-1,-1
1528279631255808,1,-1,-1,-1,0,-1,0,-2
1528279631277017,-2,0,-2,-1,-1,-2,-1,0
1528279631277017,-2,-2,-1,-2,-1,0,1,1
1528279631278750,0,-1,-1,-1,-2,-1,0,-1
1528279631278750,0,1,0,-1,-1,-1,-1,0
1528279631278750,0,1,0,-1,-1,-1,-1,0
1528279631278750,0,1,0,-1,-1,-1,-1,0
1528279631278750,0,1,0,-1,-1,-1,-1,0
1528279631278750,0,1,0,-1,-1,-1,-1,0
1528279631278750,0,1,0,-1,-1,-1,-1,0
1528279631278750,0,1,0,-1,-1,-1,-1,0
1528279631278750,0,1,0,-1,-1,-1,-1,0
1528279631278750,0,1,0,-1,-1,-1,-1,0
1528279631278750,0,1,0,-1,-1,-1,-1,0
1528279631278750,0,1,0,-1,-1,-1,-1,0
1528279631278750,0,1,0,-1,-1,-1,-1,0
1528279631278750,0,1,0,-1,-1,-1,-1,0
1528279631278750,0,1,0,-1,-1,-1,-1,0
1528279631278750,0,1,0,-1,-1,-1,-1,0
1528279631278750,0,1,0,-1,-1,-1,-1,0
1528279631278750,0,1,0,-1,-1,-1,-1,0
1528279631278750,0,1,0,-1,-1,-1,-1,0
1528279631278750,0,1,0,-1,-1,-1,-1,0
1528279631278750,0,1,0,-1,-1,-1,-1,0
1528279631278750,0,1,0,-1,-1,-1,-1,0
1528279631278750,0,1,0,-1,-1,-1,-1,0
1528279631278750,0,1,0,-1,-1,-1,-1,0
1528279631278750,0,1,0,-1,-1,-1,-1,0
1528279631278750,0,1,0,-1,-1,-1,-1,0
1528279631278750,0,1,0,-1,-1,-1,-1,0
1528279631278750,0,1,0,-1,-1,-1,-1,0
1528279631278750,0,1,0,-1,-1,-1,-1,0
1528279631278750,0,1,0,-1,-1,-1,-1,0
1528279631278750,0,1,0,-1,-1,-1,-1,0
1528279631278750,0,1,0,-1,-1,-1,-1,0
1528279631278750,0,1,0,-1,-1,-1,-1,0
1528279631278750,0,1,0,-1,-1,-1,-1,0
1528279631278750,0,1,0,-1,-1,-1,-1,0
1528279631278750,0,1,0,-1,-1,-1,-1,0
1528279631278750,0,1,0,-1,-1,-1,-1,0
1528279631278750,0,1,0,-1,-1,-1,-1,0
1528279631278750,0,1,0,-1,-1,-1,-1,0
1528279631278750,0,1,0,-1,-1,-1,-1,0
1528279631278750,0,1,0,-1,-1,-1,-1,0
1528279631278750,0,1,0,-1,-1,-1,-1,0
1528279631278750,0,1,0,-1,-1,-1,-1,0
1528279631278750,0,1,0,-1,-1,-1,-1,0
1528279631278750,0,1,0,-1,-1,-1,-1,0
1528279631278750,0,1,0,-1,-1,-1,-1,0
1528279631278750,0,1,0,-1,-1,-1,-1,0
1528279631278750,0,1,0,-1,-1,-1,-1,0
1528279631278750,0,1,0,-1,-1,-1,-1,0
1528279631278750,0,1,0,-1,-1,-1,-1,0
1528279631278750,0,1,0,-1,-1,-1,-1,0
1528279631278750,0,1,0,-1,-1,-1,-1,0
1528279631278750,0,1,0,-1,-1,-1,-1,0
1528279631278750,0,1,0,-1,-1,-1,-1,0
1528279631278750,0,1,0,-1,-1,-1,-1,0
1528279631278750,0,1,0,-1,-1,-1,-1,0
1528279631278750,0,1,0,-1,-1,-1,-1,0
1528279631278750,0,1,0,-1,-1,-1,-1,0
1528279631278750,0,1,0,-1,-1,-1,-1,0
1528279631278750,0,1,0,-1,-1,-1,-1,0
1528279631278750,0,1,0,-1,-1,-1,-1,0
1528279631278750,0,1,0,-1,-1,-1,-1,0
1528279631278750,0,1,0,-1,-1,-1,-1,0
1528279631278750,0,1,0,-1,-1,-1,-1,0
1528279631278750,0,1,0,-1,-1,-1,-1,0
1528279631278750,0,1,0,-1,-1,-1,-1,0
1528279631278750,0,1,0,-1,-1,-1,-1,0
1528279631278750,0,1,0,-1,-1,-1,-1,0
1528279631278750,0,1,0,-1,-1,-1,-1,0
1528279631278750,0,1,0,-1,-1,-1,-1,0
1528279631278750,0,1,0,-1,-1,-1,-1,0
1528279631278750,0,1,0,-1,-1,-1,-1,0
1528279631278750,0,1,0,-1,-1,-1,-1,0
1528279631278750,0,1,0,-1,-1,-1,-1,0
1528279631278750,0,1,0,-1,-1,-1,-1,0
1528279631278750,0,1,0,-1,-1,-1,-1,0
1528279631278750,0,1,0,-1,-1,-1,-1,0
1528279631278750,0,1,0,-1,-1,-1,-1,0
1528279631278750,0,1,0,-1,-1,-1,-1,0
1528279631278750,0,1,0,-1,-1,-1,-1,0
1528279631278750,0,1,0,-1,-1,-1,-1,0
1528279631278750,0,1,0,-1,-1,-1,-1,0
1528279631278750,0,1,0,-1,-1,-1,-1,0
1528279631278750,0,1,0,-1,-1,-1,-1,0
1528279631278750,0,1,0,-1,-1,-1,-1,0
1528279631278750,0,1,0,-1,-1,-1,-1,0
1528279631278750,0,1,0,-1,-1,-1,-1,0
1528279631278750,0,1,0,-1,-1,-1,-1,0
1528279631278750,0,1,0,-1,-1,-1,-1,0
1528279631278750,0,1,0,-1,-1,-1,-1,0
1528279631278750,0,1,0,-1,-1,-1,-1,0
1528279631278750,0,1,0,-1,-1,-1,-1,0
1528279631278750,0,1,0,-1,-1,-1,-1,0
1528279631278750,0,1,0,-1,-1,-1,-1,0
1528279631278750,0,1,0,-1,-1,-1,-1,0
1528279631278750,0,1,0,-1,-1,-1,-1,0
1528279631278750,0,1,0,-1,-1,-1,-1,0
1528279631278750,0,1,0,-1,-1,-1,-1,0
1528279631278750,0,1,0,-1,-1,-1,-1,0
1528279631278750,0,1,0,-1,-1,-1,-1,0
1528279631278750,0,1,0,-1,-1,-1,-1,0
1528279631278750,0,1,0,-1,-1,-1,-1,0
1528279631278750,0,1,0,-1,-1,-1,-1,0
1528279631278750,0,1,0,-1,-1,-1,-1,0
1528279631278750,0,1,0,-1,-1,-1,-1,0
1528279631278750,0,1,0,-1,-1,-1,-1,0
1528279631278750,0,1,0,-1,-1,-1,-1,0
1528279631278750,0,1,0,-1,-1,-1,-1,0
