timestamp,emg1,emg2,emg3,emg4,emg5,emg6,emg7,emg8
1528184229643793,-2,6,-2,1,-1,7,-3,-1
1528184229643793,-2,-2,4,1,-16,-25,-7,-1
1528184229648780,-1,2,0,-9,-6,9,1,-1
1528184229648780,0,0,5,2,-6,12,2,0
1528184229667730,-1,0,5,-1,27,-3,-1,-1
1528184229667730,0,3,-2,6,-13,3,11,2
1528184229682689,1,-1,-9,0,13,-23,-19,1
1528184229682689,-4,-4,5,-6,-41,1,8,-4
1528184229684684,0,-1,-6,-2,16,13,12,2
1528184229684684,-5,-2,3,-1,-18,-28,-7,-8
1528184229694658,1,-2,-6,3,17,24,-5,1
1528184229694658,2,2,13,4,9,0,-1,5
1528184229704631,-1,-6,-4,-7,-14,-13,-7,-1
1528184229704631,-1,-3,-3,10,17,1,3,-1
1528184229743527,-1,0,-6,-19,-15,-7,2,-2
1528184229743527,-1,0,0,0,3,0,-23,-4
1528184229744524,-1,1,1,1,17,5,26,3
1528184229744524,-1,0,0,4,-12,-2,6,2
1528184229747516,-1,-1,-2,3,13,6,3,-1
1528184229747516,-2,-1,5,5,-1,-1,-4,1
1528184229748514,-3,0,1,1,-1,-9,-17,-4
1528184229748514,-1,-1,5,1,-18,-1,-2,-2
1528184229755496,-1,-3,-15,0,4,-12,-1,0
1528184229755496,0,-3,-19,-18,2,3,2,-1
1528184229761479,-1,-3,8,15,-5,7,-8,-2
1528184229761479,-1,-1,-3,4,1,-19,3,0
1528184229778433,-1,-1,6,-2,-3,27,-5,-2
1528184229778433,0,1,10,4,-15,-7,9,0
1528184229784417,0,0,-24,-21,12,0,1,1
1528184229784417,-1,-2,-3,-8,1,-4,-9,-2
1528184229793394,-2,-1,-5,11,-5,-14,-6,-2
1528184229793394,0,3,6,-5,20,6,5,0
1528184229815335,-1,-2,0,-20,-17,-12,-4,-2
1528184229815335,-2,-1,5,12,1,12,-2,-2
1528184229817329,0,-1,-9,-18,-1,-5,1,0
1528184229817329,-1,-3,-6,25,-30,-1,3,0
1528184229829297,-2,-2,0,-1,17,-3,-3,-2
1528184229829297,-1,-3,2,-20,2,-17,-7,-1
1528184229838274,0,-1,-4,-12,19,15,8,-4
1528184229838274,-1,-3,9,6,-13,7,-7,0
1528184229860216,0,-5,-16,4,1,-7,11,0
1528184229860216,-1,-4,-3,-4,5,12,-4,-2
1528184229862210,-1,-1,0,-14,-30,-10,3,2
1528184229862210,-2,0,8,-8,-1,-8,-2,-4
1528184229875176,-1,0,23,30,-8,-11,-10,-1
1528184229875176,0,-1,-10,-6,24,0,2,0
1528184229877171,-2,-4,-12,-1,1,5,-5,-2
1528184229877171,-2,-4,-14,29,7,23,6,1
1528184229889139,1,3,14,-30,-2,7,0,0
1528184229889139,-1,3,31,14,-15,-13,-4,-3
1528184229898113,-1,-2,-9,-13,1,-16,-8,0
1528184229898113,0,-4,-13,5,-7,-6,4,1
1528184229913100,-2,-6,-5,-11,3,5,0,-3
1528184229913100,1,-3,-5,-21,4,7,-1,0
1528184229914098,0,-1,17,16,12,-5,-3,1
1528184229914098,0,-3,0,0,4,-9,-5,-3
1528184229942993,-3,0,-10,12,1,-6,-4,-1
1528184229942993,-1,0,-45,-69,-14,3,-2,-2
1528184229945008,0,-6,13,48,-10,24,6,0
1528184229945008,-2,1,29,37,15,-12,0,-1
1528184229948995,-2,-6,3,17,-6,8,-4,-2
1528184229948995,-1,0,-1,-26,-8,-12,-1,1
1528184229974909,0,2,28,9,-10,-12,-1,-1
1528184229974909,-3,3,5,3,8,-3,3,-2
1528184229975906,0,3,-5,-27,1,-2,-10,-4
1528184229975906,-2,1,-13,27,4,6,2,0
1528184229978897,-1,-2,5,-30,-19,-6,-3,0
1528184229978897,-2,1,-23,-72,-31,-7,-7,-4
1528184229995857,1,6,22,94,26,6,2,2
1528184229995857,-3,-5,-17,13,-4,8,3,-5
1528184229996851,1,7,30,54,20,-4,-3,-1
1528184229996851,-3,-7,-2,-37,-28,-4,-3,-2
1528184230008818,-2,-5,-38,-51,-14,-1,0,-1
1528184230008818,1,0,13,10,6,-5,2,-1
1528184230025773,-1,3,-19,-21,-3,3,-2,-1
1528184230025773,0,0,8,-6,-1,0,-3,-1
1528184230031756,1,0,-9,-11,9,3,8,1
1528184230031756,0,-2,13,76,-11,-21,-6,-2
1528184230040732,-2,-1,-1,-20,15,30,-1,-2
1528184230040732,2,7,5,-39,2,11,7,3
1528184230055710,-1,-2,1,-11,-31,-14,-2,1
1528184230055710,-1,1,13,9,52,11,6,1
1528184230056691,-2,-2,14,52,-3,-17,-3,-2
1528184230056691,0,-2,-24,2,10,1,-3,-1
1528184230068658,-2,3,-5,-80,-24,-2,-4,-2
1528184230068658,0,-6,-24,36,10,6,-1,0
1528184230083617,-3,-1,2,-2,3,-1,-1,0
1528184230083617,-2,-2,-5,35,15,2,0,-1
1528184230092640,-1,-9,37,3,-11,-5,1,0
1528184230092640,-1,2,-13,-76,-20,-2,-7,-2
1528184230099601,-3,-5,-16,-3,-5,-6,0,-1
1528184230099601,-4,-7,-37,-61,1,-6,-6,-2
1528184230115559,1,4,-12,38,-2,-2,1,1
1528184230115559,0,1,38,19,-12,-1,-11,-2
1528184230117533,0,-1,-45,-31,9,0,-11,-1
1528184230117533,-1,3,58,71,11,1,13,0
1528184230137508,-3,-3,-32,-2,3,2,-3,0
1528184230137508,-1,-2,13,12,-3,12,12,1
1528184230139478,-1,-3,-10,-38,-8,-10,-21,-3
1528184230139478,0,4,35,55,10,-3,-5,-2
1528184230152435,0,-3,18,-4,5,6,-1,0
1528184230152435,-4,-3,-9,-32,-12,-9,-15,-2
1528184230166430,1,0,-6,-12,-12,-3,9,2
1528184230166430,0,-4,-19,-9,6,-2,0,-4
1528184230175373,0,4,58,-21,-13,-1,-4,-1
1528184230175373,1,1,-17,49,8,-1,2,0
1528184230177367,-2,-2,-12,-4,-4,0,3,-1
1528184230177367,2,-2,-9,-8,-13,-9,-11,0
1528184230189336,-3,-2,-13,42,11,-2,-25,-4
1528184230189336,-2,0,-8,-65,-13,-1,4,-2
1528184230198312,2,7,27,-15,7,10,47,3
1528184230198312,-1,-1,-26,9,-3,3,17,1
1528184230228282,1,-1,-31,-7,4,7,51,7
1528184230228282,-2,-1,37,48,-14,-6,-21,-7
1528184230229261,-2,-2,0,-5,1,-9,-38,-7
1528184230229261,-2,-2,39,-11,0,-1,-6,-3
1528184230235239,-2,-2,-28,69,8,-3,-9,-7
1528184230235239,1,3,15,-53,20,6,4,4
1528184230237211,-1,0,20,75,-18,0,19,2
1528184230237211,-1,-2,1,-30,14,3,-20,-1
1528184230249202,0,2,25,-53,-8,-7,-20,-2
1528184230249202,-4,-12,-30,-14,-4,-4,-13,-3
1528184230258152,-2,-1,19,6,-4,4,11,-2
1528184230258152,3,7,22,5,1,9,44,4
1528184230272114,-5,-16,-64,45,7,-2,-21,-5
1528184230272114,1,4,-8,-20,-10,0,21,3
1528184230279095,0,0,-2,-21,0,-7,-16,-1
1528184230279095,-5,-5,5,-2,1,-4,2,-3
1528184230295088,1,5,10,-22,-13,-5,12,0
1528184230295088,-1,5,2,35,4,0,-9,-7
1528184230303038,-1,-4,0,-12,-6,0,-1,0
1528184230303038,0,0,-18,-2,-7,-4,-5,0
1528184230317991,-1,-2,-22,-38,0,-3,-11,-1
1528184230317991,-3,-3,2,2,-15,-5,2,-1
1528184230319987,-1,1,-31,-19,9,-2,-3,2
1528184230319987,0,-3,0,25,-9,2,-7,-4
1528184230331982,-1,1,-3,-23,4,3,0,0
1528184230331982,0,5,23,10,1,9,35,7
1528184230340931,1,3,-6,16,2,-7,-30,-3
1528184230340931,-1,-2,-41,-14,3,-4,-2,-3
1528184230355941,4,10,15,-12,-10,-6,-39,-1
1528184230355941,-1,-3,17,15,-4,6,23,1
1528184230356900,-3,-11,4,-2,4,-3,14,1
1528184230356900,-1,1,-27,-1,-2,-8,-19,-1
1528184230376862,-2,6,2,23,1,1,-13,-3
1528184230376862,1,-3,-6,-24,1,0,-12,-2
1528184230385811,0,1,15,18,4,-4,0,-7
1528184230385811,-1,2,31,-35,-1,-4,-7,2
1528184230391794,-1,0,29,44,-5,6,51,4
1528184230391794,-2,-6,-19,48,-1,-5,-26,-2
1528184230400770,-4,-8,-59,-43,-16,-11,1,-4
1528184230400770,-2,0,-4,-4,-22,-1,-12,1
1528184230415998,-4,-7,13,-9,52,10,-8,-3
1528184230415998,0,-3,-13,-44,-9,1,-18,0
1528184230417833,-3,-1,17,15,-7,0,33,-3
1528184230417833,3,0,-25,-30,-48,-13,-21,-1
1528184230445690,1,0,12,59,30,4,-2,4
1528184230445690,-1,-3,11,-8,-48,-12,15,-1
1528184230452634,-4,-2,8,46,37,6,-44,-4
1528184230452634,-3,-5,-39,14,64,13,29,-1
1528184230452634,1,-4,17,7,-27,2,20,-1
1528184230452634,-2,4,21,2,-15,-11,15,0
1528184230460610,-1,-4,-6,-34,-15,-4,12,1
1528184230460610,-1,-1,6,-18,-29,-28,-11,-1
1528184230477661,-1,1,-1,-5,-5,9,-4,-3
1528184230477661,-2,0,32,-29,27,19,2,-3
1528184230478562,-1,-1,-54,-44,-39,-22,-5,1
1528184230478562,-1,-4,4,14,24,7,4,0
1528184230497513,-1,-4,-21,-54,-12,-5,-6,0
1528184230497513,2,1,28,75,7,-20,-12,0
1528184230499508,2,9,-3,-2,11,29,4,1
1528184230499508,-4,-12,-1,-49,12,9,3,0
1528184230511475,-1,1,10,11,-19,-14,-1,-4
1528184230511475,0,7,-42,-36,3,7,-1,-1
1528184230528430,-2,-8,44,-22,-10,-7,1,0
1528184230528430,-1,0,-40,63,31,-2,-12,-1
1528184230535776,-4,-7,21,-70,-12,-8,-5,-5
1528184230535776,-1,-8,-50,17,2,-7,-1,1
1528184230536893,1,-1,-4,83,4,39,-15,1
1528184230536893,-1,0,19,-55,-14,-5,2,-4
1528184230558466,-2,-6,2,49,-14,-1,26,2
1528184230558466,1,1,-10,-33,31,-4,-5,-1
1528184230559123,1,1,13,-19,-3,-17,-1,-2
1528184230559123,-2,2,20,49,-4,14,-20,1
1528184230572088,0,0,-13,-28,1,-2,-37,0
1528184230572088,-1,-4,-7,-35,-20,-1,13,-3
1528184230580535,-1,-3,-32,-13,-5,-6,-10,1
1528184230580535,-1,1,13,-25,8,5,13,-2
1528184230597625,0,-1,-41,-4,-13,1,4,0
1528184230597625,-1,5,44,20,10,-1,-15,0
1528184230598385,-2,2,13,-4,10,1,-4,-3
1528184230598385,-4,-10,-41,-8,-23,-8,12,1
1528184230618467,-1,3,22,16,-15,-3,4,-5
1528184230618467,-2,-4,-33,20,44,19,2,0
1528184230619329,3,4,3,13,10,-12,-2,2
1528184230619329,-1,-1,24,32,1,-4,2,0
1528184230632492,-3,-1,-7,-46,4,9,1,-3
1528184230632492,0,-3,-8,-29,-25,-1,0,1
1528184230640272,-1,4,23,-19,5,-8,-47,0
1528184230640272,-1,0,-12,-45,-15,0,38,-5
1528184230656315,-3,-9,18,91,23,2,18,-2
1528184230656315,-3,-4,-12,7,-3,-10,-5,-3
1528184230657232,-4,-2,4,-26,-16,-7,-15,0
1528184230657232,3,5,43,26,-5,5,-11,0
1528184230678813,0,-1,-35,-24,2,-40,-98,-5
1528184230678813,-7,-7,0,-3,7,42,113,4
1528184230680227,-1,-3,-11,19,-9,7,-21,-5
1528184230680227,-2,0,-10,-15,3,-7,-10,-5
1528184230691214,3,6,24,-6,2,0,11,6
1528184230691214,3,3,4,7,0,-18,-71,0
1528184230700207,-1,1,31,46,-5,-6,14,-3
1528184230700207,-1,0,-50,-45,-5,-2,-4,0
1528184230723116,-2,-4,3,-39,-16,-1,4,1
1528184230723116,0,2,-78,-19,5,-2,-13,-2
1528184230724149,-5,-2,21,20,9,10,34,-1
1528184230724149,2,5,30,28,8,-3,-54,1
1528184230737077,-5,1,-10,-20,5,13,62,0
1528184230737077,0,-11,-3,0,-5,-4,-16,-4
1528184230752037,0,-2,15,-3,3,-5,2,-2
1528184230752037,-3,-7,-17,-3,-12,-10,-55,-3
1528184230761210,-2,3,23,0,-2,7,44,-2
1528184230761210,-3,-4,3,1,-2,-3,-46,-6
1528184230762011,2,0,-11,-24,5,-3,57,2
1528184230762011,2,3,14,21,-3,5,20,3
1528184230783195,-1,-4,-4,35,-5,-5,3,-1
1528184230783195,-2,3,18,-15,-12,-12,-15,-7
1528184230784949,-5,-12,-20,-19,-1,-1,-24,-5
1528184230784949,-1,1,-2,-6,-2,4,16,1
1528184230796917,0,5,-5,9,3,-1,0,-1
1528184230796917,-2,-3,-6,-19,-10,-9,-17,2
1528184230803899,1,3,8,-9,4,6,14,3
1528184230803899,-2,-3,18,11,4,1,20,-5
1528184230820853,-1,-1,13,-17,-3,-1,-24,-1
1528184230820853,0,2,14,8,-2,-6,-19,0
1528184230821860,-2,-2,-4,34,9,5,20,0
1528184230821860,-1,-2,-6,-46,-17,-9,-15,-1
1528184230842794,0,1,-23,11,19,7,8,0
1528184230842794,1,1,15,-41,0,-2,0,-1
1528184230844791,1,9,-5,11,-5,-2,-1,2
1528184230844791,-1,-10,-9,23,-3,1,-17,3
1528184230865733,-3,-3,5,-52,-10,-14,-47,-4
1528184230865733,-4,-2,-14,-6,-5,7,49,-5
1528184230866730,1,-4,16,21,19,13,45,7
1528184230866730,0,3,-17,-2,0,-1,-1,-4
1528184230887674,-5,-11,-17,9,-2,5,12,-1
1528184230887674,-2,0,40,36,1,-11,-40,-5
1528184230889682,0,2,-34,-17,-13,-9,-14,-4
1528184230889682,-3,1,13,-8,5,2,18,-2
1528184230902634,3,1,4,0,2,4,-4,-1
1528184230902634,-1,-1,-2,10,-10,5,28,3
1528184230904629,-1,0,-14,-47,-5,-7,-33,-1
1528184230904629,-3,-4,-4,59,7,6,4,0
1528184230916597,-2,6,8,9,-13,-6,-14,-5
1528184230916597,-1,-2,4,22,17,7,2,4
1528184230925574,3,-4,-5,-36,7,10,-2,-1
1528184230925574,1,4,-8,-41,-4,-4,-11,-1
1528184230940581,-2,-2,28,62,-6,1,-10,-1
1528184230940581,0,-3,23,16,-1,3,18,4
1528184230946570,-2,2,-16,2,-10,-12,-27,-7
1528184230946570,-1,-2,16,8,19,7,13,0
1528184230970509,-1,-2,-38,-33,-8,0,-18,-2
1528184230970509,0,1,11,2,13,1,2,1
1528184230972501,-2,1,13,14,3,-2,-12,-3
1528184230972501,-1,-2,-10,9,-2,0,11,1
1528184230976483,1,-1,-7,-15,-10,-3,-3,1
1528184230976483,0,1,10,1,-8,-4,10,1
1528184230985414,-3,-3,-23,16,3,-6,-10,-5
1528184230985414,-2,2,9,-13,1,-6,2,-2
1528184231000373,-1,0,22,1,-22,-4,7,0
1528184231000373,-1,-3,-67,-7,-6,16,0,-1
1528184231002368,-1,-1,20,-10,-7,-6,-4,-3
1528184231002368,-1,1,15,-30,-22,-4,6,1
1528184231023368,-5,-8,-46,60,54,-2,7,-4
1528184231023368,-4,1,23,-40,-30,-24,-14,-5
1528184231024320,1,-3,-5,19,-4,10,1,2
1528184231024320,-1,-3,-18,-17,-11,4,1,-2
1528184231036333,1,-2,-1,-36,-27,-19,-1,-2
1528184231036333,-1,1,9,17,-7,-7,-8,-4
1528184231053233,-3,-4,54,48,73,10,4,2
1528184231053233,-1,-5,-20,-20,-22,-3,6,2
1528184231060268,-3,-13,-39,-13,15,12,-10,1
1528184231060268,-1,-3,-13,-17,-19,-5,10,0
1528184231062209,0,-3,32,-20,-22,-12,-23,1
1528184231062209,-2,5,11,25,1,-4,16,-4
1528184231083209,-1,3,12,-22,5,3,28,4
1528184231083209,-2,-2,-12,16,7,14,9,-2
1528184231084204,-2,-3,-22,-28,-10,-9,-18,-5
1528184231084204,2,5,25,6,16,21,-8,1
1528184231096172,-1,4,8,41,-14,-11,-7,0
1528184231096172,1,0,-7,-42,3,-4,-3,0
1528184231105148,-2,-3,-18,25,-12,-6,-3,0
1528184231105148,-2,-2,6,1,-10,-15,-10,-2
1528184231120092,-1,1,33,11,6,5,6,-2
1528184231120092,2,-3,-15,-4,8,5,-10,2
1528184231122067,-2,-2,-24,-35,-17,-8,-4,-4
1528184231122067,0,-2,-4,27,9,-1,-1,-2
1528184231143248,-1,0,19,37,-4,10,12,1
1528184231143248,-2,0,14,16,21,0,-10,-3
1528184231144988,-2,2,-15,-40,-47,-25,7,-4
1528184231144988,0,-2,-10,18,36,10,6,0
1528184231166188,1,5,31,10,0,21,-5,-1
1528184231166188,2,5,15,8,-5,0,1,1
1528184231166944,-2,-6,-62,-12,0,-1,12,1
1528184231166944,-1,0,1,1,-24,-15,-11,-2
1528184231181265,-2,-2,-21,-32,5,-8,-19,-2
1528184231181265,-3,-2,-7,-9,-3,-9,8,-4
1528184231182931,3,5,38,41,12,9,8,5
1528184231182931,1,-3,-36,-24,-13,10,-29,-1
1528184231201869,0,-1,-5,-17,15,-4,11,-4
1528184231201869,1,0,12,12,-13,3,4,1
1528184231218081,0,4,13,0,1,0,-4,-3
1528184231218081,-1,-2,8,13,-2,-9,-12,1
1528184231218081,-1,-2,-32,-30,-5,-1,-15,-6
1528184231218081,-1,-2,22,27,15,0,8,1
1528184231225773,0,-1,-15,8,1,0,10,2
1528184231225773,-1,3,17,24,-4,-1,-3,1
1528184231248853,0,-5,-5,-12,-9,-4,-3,1
1528184231248853,-1,0,-24,-26,-8,-12,-6,-2
1528184231249708,-1,1,6,19,10,13,3,2
1528184231249708,-1,3,45,-6,0,1,4,1
1528184231263785,-1,1,-13,-16,-4,-3,3,0
1528184231263785,-3,-3,-7,-1,3,7,-11,-2
1528184231264668,1,0,16,-23,-1,10,13,0
1528184231264668,-3,-4,2,15,4,-10,-5,-6
1528184231276970,0,-1,29,3,-2,0,5,3
1528184231276970,1,1,-6,-30,-6,-6,-18,-2
1528184231285629,-1,-4,-27,25,-2,7,16,0
1528184231285629,-1,-2,-11,8,-1,-7,0,1
1528184231300815,-1,0,-11,-36,-5,-2,7,0
1528184231300815,-2,-3,-8,41,-3,-1,0,-1
1528184231302570,0,3,27,21,0,-5,-12,-1
1528184231302570,-4,-5,-15,-1,4,4,2,-4
1528184231330795,-1,0,3,-10,6,5,2,1
1528184231330795,-2,-1,-47,-30,0,-2,3,-2
1528184231331798,0,0,2,-7,-14,2,16,3
1528184231331798,-3,-2,2,5,7,-3,-22,-3
1528184231337342,-1,2,17,25,-8,0,-8,-2
1528184231337342,-5,-2,3,19,0,-4,-22,-3
1528184231346332,1,-2,-36,-45,-1,2,16,2
1528184231346332,0,0,10,16,5,4,23,-1
1528184231360346,-2,3,17,-4,-5,-4,-2,0
1528184231360346,-6,-6,16,19,2,-4,-16,-4
1528184231362337,-1,0,-27,-27,-1,-6,-20,-2
1528184231362337,0,-3,-25,-44,-8,-3,-9,0
1528184231390267,0,1,3,78,1,-4,14,-4
1528184231390267,-1,0,6,-1,1,6,4,2
1528184231392266,-1,1,12,-19,-12,-9,-31,-3
1528184231392266,-2,-3,7,-20,-2,-3,23,1
1528184231396288,1,5,-31,-14,-2,-1,6,1
1528184231396288,1,-4,17,22,2,1,-3,-1
1528184231413241,-1,-10,-17,3,8,1,17,0
1528184231413241,1,3,9,-52,-7,-2,-5,-4
1528184231420627,0,-1,21,31,10,5,-9,1
1528184231420627,1,4,21,-22,1,0,-4,-2
1528184231422914,-1,1,4,-19,-3,-2,-3,2
1528184231422914,-2,-2,-6,24,-1,-3,7,-1
1528184231442122,-1,-8,-19,-41,-7,3,27,0
1528184231442122,2,-2,2,9,5,4,8,5
1528184231450590,-2,-4,15,-17,-19,-3,-9,-3
1528184231450590,-5,-1,10,59,30,1,1,-5
1528184231456655,0,1,23,18,2,-6,-11,0
1528184231456655,1,-3,-26,-44,-19,-9,-4,-1
1528184231465580,-5,-3,-5,20,-4,-8,-14,-4
1528184231465580,4,4,33,-24,-17,-17,12,6
1528184231488602,-2,-8,-61,8,22,16,-10,-1
1528184231488602,-2,-2,24,-63,-22,4,0,-2
1528184231490430,1,-4,-39,-21,12,0,8,3
1528184231490430,0,0,17,23,-14,8,7,2
1528184231503523,-3,-3,11,-23,-15,-23,-6,-3
1528184231503523,-3,-2,-24,41,2,1,10,-3
1528184231504477,-2,0,23,-3,-6,6,-17,-6
1528184231504477,1,-1,-14,27,36,4,-10,1
1528184231525762,-1,2,11,2,-19,-6,-11,-2
1528184231525762,1,1,-24,-68,5,-16,0,1
1528184231527502,-1,1,10,29,-23,-4,8,-6
1528184231527502,-1,-4,-22,31,-15,2,30,-2
1528184231540476,0,-1,-5,-26,-7,36,-3,-1
1528184231540476,0,-1,19,-5,9,-6,6,1
1528184231554779,-1,-5,11,12,29,-8,-39,-5
1528184231554779,1,-1,-5,10,-26,-18,-14,-2
1528184231563708,-1,5,10,-14,7,-8,-4,1
1528184231563708,-3,-3,18,20,4,16,-2,-1
1528184231564417,-3,2,-2,-14,9,-3,16,-1
1528184231564417,-5,-4,-8,-15,-7,-5,-11,-5
1528184231576375,0,-4,25,-1,-6,0,4,3
1528184231576375,-2,-6,-32,-6,2,4,9,2
1528184231585356,2,4,22,17,-1,2,7,2
1528184231585356,0,-5,-29,-34,-4,11,-2,-1
1528184231608287,-2,-4,-15,-2,-20,-25,-1,-2
1528184231608287,1,5,30,11,20,2,-2,-3
1528184231609413,0,1,-42,-34,-1,6,1,2
1528184231609413,-2,-4,31,5,9,-1,-17,-1
1528184231623599,0,-1,-6,21,-9,-3,-7,-1
1528184231623599,-1,-3,-6,32,-9,6,17,1
1528184231624525,-4,-2,-11,0,5,10,0,-5
1528184231624525,-2,1,-24,4,-6,-11,-2,-3
1528184231637759,0,-1,-23,-44,-1,-1,3,-1
1528184231637759,-1,1,27,36,-13,-11,-10,-1
1528184231646506,2,2,4,-18,10,1,-1,1
1528184231646506,0,2,3,-4,11,34,3,1
1528184231668435,-2,-4,-44,-13,-10,-17,-19,-1
1528184231668435,-3,1,4,10,4,-2,10,-5
1528184231669406,0,-1,9,-3,0,-7,3,1
1528184231669406,-3,-1,-4,56,-5,-18,-10,-1
1528184231683718,-1,5,43,9,-6,7,-11,-2
1528184231683718,-1,2,-1,-4,13,11,6,1
1528184231684372,-1,-4,-1,11,-2,-9,-9,-3
1528184231684372,-2,-2,12,-55,-6,-2,11,1
1528184231697361,-1,-2,-37,21,7,0,10,1
1528184231697361,-3,-5,-26,0,-11,-10,-28,-1
1528184231705479,-4,1,37,23,-5,-4,-11,-4
1528184231705479,1,1,2,-29,5,4,34,1
1528184231720538,-2,-2,3,4,2,-7,-26,-5
1528184231720538,1,-2,38,15,7,14,49,6
1528184231727363,-2,-6,-55,-31,-7,0,-14,0
1528184231727363,-2,-5,-28,1,-4,3,2,-1
1528184231750189,1,1,-2,5,3,-2,-3,-1
1528184231750189,-1,-2,14,-7,-1,-4,-5,-6
1528184231752184,0,0,43,66,-4,-5,-5,-2
1528184231752184,0,2,-51,-50,-4,2,-8,0
1528184231766187,-3,-5,4,11,5,-2,4,-2
1528184231766187,1,8,10,-15,-5,-6,-15,-2
1528184231767144,0,0,-23,-24,-3,3,27,4
1528184231767144,-1,-1,-13,-11,-4,-2,-13,-2
1528184231779359,-2,4,-4,-20,1,1,10,-3
1528184231779359,-2,-4,7,55,4,-9,-44,-4
1528184231788088,0,4,12,-11,-1,8,46,5
1528184231788088,-2,-2,42,-4,-2,2,5,0
1528184231803376,1,-2,-35,-28,2,0,3,0
1528184231803376,-5,-7,-23,-14,3,4,5,-2
1528184231805047,0,-1,10,50,4,-4,-20,-3
1528184231805047,0,2,12,-2,1,-3,-9,-1
1528184231825408,1,7,38,-19,4,1,7,1
1528184231825408,-3,-8,-80,0,-13,-6,-7,-2
1528184231826993,-3,-3,-36,-47,-1,-3,-7,-3
1528184231826993,2,1,31,19,-5,-2,2,1
1528184231839590,-1,6,102,9,6,0,0,-2
1528184231839590,-2,-8,-95,-18,-17,-12,-12,-4
1528184231848230,1,5,75,27,13,4,12,2
1528184231848230,0,2,-89,-21,-11,-3,-4,-1
1528184231863542,-2,-4,34,7,-3,-1,-4,-1
1528184231863542,1,13,26,23,10,6,12,1
1528184231865420,1,1,49,-40,-13,2,1,1
1528184231865420,-8,-19,15,39,8,-6,-20,-7
1528184231893110,-1,0,-60,-48,-13,-6,-4,-3
1528184231893110,-1,-1,11,-10,5,5,10,0
1528184231895370,3,8,-83,-16,-4,-7,-7,0
1528184231895370,2,3,23,-10,11,3,1,3
1528184231899095,-1,3,37,42,-5,-5,1,-2
1528184231899095,-4,-3,18,19,9,6,-7,-1
1528184231916049,-2,-3,0,20,8,4,13,-4
1528184231916049,5,10,44,72,-36,-17,-22,-2
1528184231923031,-5,-13,-31,-2,5,-2,-7,0
1528184231923031,-2,-2,-15,-11,-7,17,40,1
1528184231925026,3,0,45,-9,11,2,-19,6
1528184231925026,-4,-9,-21,-40,11,2,31,2
1528184231946198,-5,-4,-17,30,-1,14,33,-5
1528184231946198,0,2,50,15,-2,-7,-12,-2
1528184231946967,-3,-6,-27,-31,0,8,11,0
1528184231946967,0,1,-2,-4,2,-8,-32,-5
1528184231958935,2,2,50,-21,-3,-13,-28,-2
1528184231958935,1,6,-73,-21,-7,-10,-11,-1
1528184231967911,-5,-30,-18,22,-8,-3,10,-5
1528184231967911,-3,2,-11,-2,-1,-5,-14,-3
1528184231983096,-2,-8,24,0,20,19,18,5
1528184231983096,1,16,12,-6,-6,-6,0,1
1528184231984866,-7,-21,-9,-59,-54,-39,-10,-5
1528184231984866,1,4,4,58,61,47,6,0
1528184232006162,-2,-7,-25,11,-28,1,14,2
1528184232006162,0,2,28,-55,-6,-19,-13,-1
1528184232006807,-3,6,8,60,55,14,-2,-3
1528184232006807,-3,-8,-49,-121,-38,-11,14,2
1528184232019809,1,2,-19,68,18,-29,-10,-1
1528184232019809,1,-3,34,24,-5,49,-7,1
1528184232028747,0,3,15,-65,-40,-5,30,3
1528184232028747,-1,-6,-70,-12,5,-4,2,-3
1528184232042941,-1,6,26,-30,-4,-15,-19,-1
1528184232042941,0,-9,11,17,-9,-18,-26,0
1528184232050689,1,2,-16,36,8,25,37,3
1528184232050689,2,3,39,13,9,2,-10,0
1528184232065917,-4,11,-34,-53,-11,-5,5,-7
1528184232065917,-5,-16,-16,41,13,-8,9,-3
1528184232071883,7,13,35,18,-2,13,-14,3
1528184232071883,7,11,25,-7,-9,-12,-2,6
1528184232078713,-2,-16,2,3,-5,-7,-18,-5
1528184232078713,-2,-5,-14,-36,9,8,5,-2
1528184232088588,-4,10,5,21,6,-6,8,-4
1528184232088588,-4,-7,-8,-11,-15,-13,0,-2
1528184232111078,4,2,-6,-6,5,12,-7,0
1528184232111078,-2,-1,2,-2,-6,-2,-1,0
1528184232111799,-4,-7,7,5,-4,-16,-13,-4
1528184232111799,-2,2,11,1,3,1,-2,-1
1528184232125782,0,0,-1,-8,-12,9,9,3
1528184232125782,-1,-6,-18,-2,11,-7,4,-1
1528184232127756,1,7,20,-16,-4,-5,-20,0
1528184232127756,-3,-3,16,-4,-4,-4,5,-3
1528184232138727,-3,-2,-35,28,8,21,12,0
1528184232138727,1,0,23,-5,-15,-13,12,1
1528184232148030,0,6,-8,4,15,-5,-27,-2
1528184232148030,-1,-1,9,-7,-1,19,11,-1
1528184232163749,2,0,0,11,-1,-11,-33,2
1528184232163749,-1,1,-28,-30,-10,-3,23,-5
1528184232164663,0,-2,-15,-6,-6,-4,3,-1
1528184232164663,-5,-4,18,25,13,-3,4,-4
1528184232193723,2,0,-18,-16,-8,-7,3,1
1528184232193723,-3,0,5,2,5,2,-16,-2
1528184232193723,-3,-5,-7,-11,-4,1,-5,-2
1528184232193723,0,0,2,22,-4,-2,5,-1
1528184232207800,0,5,-5,-15,3,2,3,0
1528184232207800,1,-5,12,13,1,-8,-3,0
1528184232208727,-3,-15,-17,-11,-11,-6,-11,-2
1528184232208727,-1,1,12,5,-4,0,-7,-3
1528184232223013,0,-2,-20,-3,12,4,14,-2
1528184232223013,-1,5,12,-7,-5,-2,-5,0
1528184232223013,-2,6,-5,4,-3,2,-4,-1
1528184232223013,-1,-6,-18,-6,-4,-5,-1,0
1528184232246063,-1,-1,8,0,0,-12,5,-1
1528184232246063,0,4,6,2,0,13,-4,-1
1528184232247064,0,0,-5,-3,5,6,-2,-1
1528184232247064,-2,1,14,8,9,-5,1,1
1528184232275686,-8,-3,-7,1,-3,2,1,-3
1528184232275686,3,6,3,-11,-1,-8,-2,3
1528184232276278,6,-3,-3,2,1,-2,-1,1
1528184232276278,1,-6,-3,-10,-11,0,-3,0
1528184232282917,-2,-1,3,-4,4,3,1,-2
1528184232282917,-7,-5,2,4,-7,-3,-4,-5
1528184232282917,-6,1,-8,7,11,2,1,-2
1528184232282917,0,3,-1,-42,-17,-8,-4,-1
1528184232305208,2,-4,-5,23,6,6,-1,0
1528184232305208,0,3,9,9,-1,-3,-3,-1
1528184232305839,-2,-2,-3,5,-2,-4,-7,-3
1528184232305839,-1,1,-1,-2,0,2,3,1
1528184232327035,1,4,-3,-16,-5,-4,16,1
1528184232327035,1,3,9,-6,-2,1,0,0
1528184232328030,-1,2,-26,9,1,0,-7,-1
1528184232328030,-3,6,-11,-3,0,-1,-10,-4
1528184232341992,-3,6,6,-3,-5,-1,-3,-1
1528184232341992,-1,5,10,-2,3,-1,-4,0
1528184232356954,-3,6,-4,-3,-5,-3,-2,-2
1528184232356954,-3,3,-2,8,0,-1,1,-3
1528184232365258,1,3,-3,-2,-1,0,-5,2
1528184232365258,0,0,-1,2,0,-5,-20,-2
1528184232365929,-4,1,-1,-6,-2,-1,10,-3
1528184232365929,1,-1,-1,15,3,4,4,0
1528184232388175,0,-5,3,-5,0,1,-2,0
1528184232388175,-1,-10,-3,-14,-1,1,7,-1
1528184232388175,0,-12,4,-2,-5,-4,-11,0
1528184232388175,-2,-10,-6,7,-2,-5,-4,0
1528184232404838,1,-14,-1,-2,-5,-2,2,-2
1528184232404838,-2,-7,-8,-6,0,-1,-10,-1
1528184232405823,-1,-3,4,4,3,0,5,0
1528184232405823,-2,-5,3,4,2,3,8,-1
1528184232424771,1,0,4,3,3,-1,-1,-1
1528184232424771,-1,-1,-13,-15,-3,-1,1,-1
1528184232425769,0,-2,6,4,0,-2,-1,1
1528184232425769,-3,-3,4,-16,-7,-12,-6,-2
1528184232447710,-2,-3,2,2,0,16,-4,0
1528184232447710,0,-2,3,10,0,-2,4,-1
1528184232447710,-1,-2,2,3,1,-1,-1,-2
1528184232447710,0,0,-1,2,-1,-11,-4,0
1528184232470652,-1,1,5,-7,0,1,-6,0
1528184232470652,-3,-7,-20,9,0,9,1,-1
1528184232471649,-1,-4,-5,-2,0,0,2,0
1528184232471649,0,-2,-1,-1,0,2,-1,0
1528184232484866,0,-1,4,-12,-7,-11,-1,-1
1528184232484866,0,0,19,7,-1,-3,-2,-1
1528184232485610,-1,-2,-37,-4,-5,-3,-9,-1
1528184232485610,0,-1,6,-7,3,2,15,-3
1528184232507861,1,-3,-2,-2,1,0,-8,-2
1528184232507861,-4,-3,2,1,0,0,13,-1
1528184232508548,-1,0,8,8,-4,-6,-18,-2
1528184232508548,-1,0,3,14,-5,-3,-7,0
1528184232523816,-2,-1,6,1,1,0,1,0
1528184232523816,1,0,-15,-6,2,1,-13,-1
1528184232524505,-1,0,12,0,-2,0,4,-3
1528184232524505,0,0,-22,-9,-2,0,-8,-1
1528184232553820,-1,0,5,-3,-5,-11,-1,-2
1528184232553820,-2,-1,-14,-10,-1,0,1,0
1528184232553820,-2,0,2,-10,-8,9,6,1
1528184232553820,0,1,1,3,8,0,0,0
1528184232567390,-1,1,-2,3,1,-4,1,1
1528184232567390,-1,-2,0,-3,-1,-6,3,0
1528184232568388,-1,2,18,10,-2,-5,-1,-2
1528184232568388,0,1,-4,-4,-5,3,-13,-2
1528184232582445,-3,-3,-20,15,2,-2,-6,-1
1528184232582445,-1,4,3,-7,5,3,8,-1
1528184232583348,0,0,-4,-17,-4,1,21,-3
1528184232583348,-2,0,10,-16,0,1,14,1
1528184232605422,-1,-1,-1,18,2,4,3,2
1528184232605422,0,0,12,15,-7,-4,-4,1
1528184232605422,-3,-1,0,0,3,-4,-7,-3
1528184232605422,-1,-2,-8,3,0,-2,-12,-3
1528184232635213,-1,-1,-10,-17,-6,-3,7,-2
1528184232635213,-1,-2,-4,-7,-1,2,8,-1
1528184232636207,-1,-2,7,6,1,0,-1,-1
1528184232636207,0,-1,-7,0,2,-1,5,0
1528184232642626,0,-2,6,4,3,0,-2,-2
1528184232642626,1,5,30,15,-5,-3,2,-1
1528184232643187,-1,-2,-45,-48,-2,-3,-6,0
1528184232643187,0,1,-8,5,-1,-2,-7,0
1528184232665390,-1,-3,-8,-10,-1,3,-6,-1
1528184232665390,-1,1,10,14,1,-2,22,-2
1528184232666397,1,-2,6,1,1,0,0,4
1528184232666397,0,-1,11,2,-1,0,12,-2
1528184232687454,1,-1,-20,-12,-4,-3,-15,0
1528184232687454,0,-3,-9,-8,0,-3,-13,-1
1528184232688132,-6,-4,1,14,-3,0,-2,0
1528184232688132,-3,-3,-2,-9,0,0,5,-1
1528184232702075,-2,0,36,29,-3,-5,-26,-1
1528184232702075,-1,-6,-52,-29,-4,7,50,3
1528184232703073,0,-4,-2,-1,-1,-4,-20,-8
1528184232703073,-1,-2,2,-2,-3,-2,-8,-2
1528184232725275,-1,-3,-13,-13,-4,-1,12,-2
1528184232725275,-2,-4,6,2,-2,-7,-33,-3
1528184232726278,-1,0,9,5,2,0,5,2
1528184232726278,-2,-2,-1,8,-3,2,9,0
1528184232747952,-1,-1,-14,-16,-1,-1,-5,-2
1528184232747952,-2,-2,10,2,-1,-2,2,0
1528184232748960,-1,3,-5,-11,-1,-4,-5,-2
1528184232748960,-1,0,17,21,-2,-3,-13,-3
1528184232761914,-4,-1,-10,-15,0,2,24,0
1528184232761914,-3,0,7,6,3,0,-5,-2
1528184232762912,4,-2,-18,-8,-2,0,1,-2
1528184232762912,-3,0,-17,-1,-3,-3,-14,-4
1528184232785184,1,0,21,-3,-4,-5,-1,4
1528184232785184,-3,1,-23,3,3,5,31,-1
1528184232785184,3,2,19,3,3,0,-21,2
1528184232785184,-4,-3,-12,4,2,7,41,2
1528184232807415,-4,1,-9,-22,-4,-3,-1,-4
1528184232807415,-2,0,11,3,-3,-4,-16,-3
1528184232815327,1,0,5,6,2,-2,-4,2
1528184232815327,1,-2,2,-2,-1,2,-4,0
1528184232830278,2,0,-11,8,0,-3,-12,-2
1528184232830278,1,2,8,-4,-1,1,-2,0
1528184232831036,-3,-3,3,3,-2,0,9,-3
1528184232831036,0,2,4,-3,0,-2,-18,1
1528184232845241,-2,-2,6,9,0,2,13,-3
1528184232845241,4,-2,4,0,-2,-4,-24,5
1528184232846263,-22,-1,5,4,-2,-3,1,-12
1528184232846263,9,-6,-11,-1,-1,-2,11,-1
1528184232868190,4,5,7,2,1,5,4,3
1528184232868190,1,1,9,11,3,-4,-9,-2
1528184232868941,-3,2,2,2,0,1,-26,-2
1528184232868941,-24,-5,5,-9,-3,-4,3,0
1528184232883061,4,0,0,-9,-1,-3,-6,-3
