timestamp,emg1,emg2,emg3,emg4,emg5,emg6,emg7,emg8
1528442630134068,-1,-2,-2,-1,0,0,-1,0
1528442630134068,-2,-2,0,0,-1,-1,-3,-2
1528442630135066,1,0,0,-1,-1,0,-1,-2
1528442630135066,-1,0,-1,0,0,-2,-2,0
1528442630136063,1,-1,1,-1,0,-1,0,-1
1528442630136063,0,0,-1,1,-1,-1,0,-2
1528442630139055,0,-1,0,-1,0,0,-1,2
1528442630139055,-2,-1,-2,-1,0,-1,0,-1
1528442630147033,0,0,-1,0,-1,0,0,-2
1528442630147033,0,1,-1,-1,-1,-1,0,-1
1528442630155012,-1,-1,-3,0,-1,0,1,-2
1528442630155012,1,2,-1,-1,0,0,1,-2
1528442630160997,-2,0,-1,-1,-2,-2,0,0
1528442630160997,1,-2,0,0,1,0,0,1
1528442630185930,0,-1,0,1,-1,0,-2,0
1528442630185930,0,0,0,-1,-2,-1,0,-1
1528442630186926,-1,-1,-3,-1,0,0,-2,-1
1528442630186926,0,0,-1,0,-2,0,0,-1
1528442630193908,-2,-1,-1,-1,-1,-2,1,-1
1528442630193908,0,-2,0,1,-1,-1,1,-1
1528442630208870,-1,0,-1,0,1,1,-1,0
1528442630208870,0,0,-2,-2,0,-1,-1,-2
1528442630213855,1,0,-2,-1,0,0,-1,-2
1528442630213855,-2,-1,0,-2,0,0,-3,-1
1528442630261727,0,0,-1,1,-1,-1,-4,0
1528442630261727,-1,-1,-2,-2,0,0,-1,-1
1528442630262759,-1,-2,1,-1,0,-2,-1,-2
1528442630262759,1,1,0,-2,-1,-2,1,0
1528442630263732,1,-1,-2,0,0,0,2,0
1528442630263732,-1,-1,-1,0,-2,0,0,-1
1528442630265716,-1,0,0,0,-1,-1,-1,0
1528442630265716,0,-3,0,-1,-2,0,0,-1
1528442630274219,-2,-1,-1,-1,-1,-1,-2,0
1528442630274219,1,-1,0,-1,0,-2,-3,0
1528442630289171,-1,-1,-2,0,-1,0,0,0
1528442630289171,0,0,0,0,-2,-1,0,0
1528442630290170,-2,0,0,-1,-1,-1,0,0
1528442630290170,0,-1,0,0,0,0,0,-3
1528442630303134,0,-1,0,-1,0,0,0,-1
1528442630303134,-3,-2,-1,0,1,-2,-2,-3
1528442630311113,1,1,-1,-3,-1,-1,-1,-1
1528442630311113,-2,-1,0,-1,-2,1,-1,0
1528442630327070,0,-1,-2,-2,0,-1,1,-1
1528442630327070,-1,-1,1,0,-1,-1,0,-1
1528442630350008,1,-1,0,-1,0,0,0,-1
1528442630350008,0,0,-1,0,0,-2,-1,-1
1528442630352003,0,1,-1,-1,-1,0,0,0
1528442630352003,-1,-1,-2,0,1,0,-2,0
1528442630353001,-1,-3,-2,1,1,0,-1,-1
1528442630353001,-2,-1,-1,0,0,1,0,0
1528442630363016,0,-1,-1,-1,-1,-1,1,0
1528442630363016,0,-2,-3,-2,-1,-1,-1,-1
1528442630370952,-2,1,-1,0,-1,0,0,0
1528442630370952,0,1,0,0,-1,-2,0,0
1528442630379931,-1,-2,0,0,1,-1,-1,0
1528442630379931,-1,0,-1,-1,-2,-1,-2,-1
1528442630401870,0,-1,0,-1,-1,-1,0,0
1528442630401870,0,0,0,-2,0,-1,0,-1
1528442630403865,1,-1,1,1,0,-1,-1,0
1528442630403865,-2,0,-1,-1,-1,1,0,1
1528442630407892,-1,1,1,0,0,-1,-2,-1
1528442630407892,-1,0,-1,-1,1,-2,-2,0
1528442630422814,0,0,-1,0,0,-2,-1,-1
1528442630422814,-1,-2,0,-1,1,0,-1,0
1528442630430831,-1,1,1,-1,0,-2,-1,-2
1528442630430831,-2,-1,0,0,-1,-2,-2,1
1528442630439769,-1,1,1,-3,-2,-1,0,-1
1528442630439769,1,0,-1,1,0,-1,1,-1
1528442630453732,-1,-1,-1,-2,-1,-1,0,1
1528442630453732,0,-2,-1,0,1,-1,0,0
1528442630461749,0,0,-1,-1,0,0,-1,0
1528442630461749,0,0,1,-3,0,0,-1,0
1528442630467695,-2,-1,0,-1,-1,-2,0,-2
1528442630467695,-1,2,1,0,-1,0,-1,-3
1528442630483651,-1,-1,-2,1,-2,-1,-1,-1
1528442630483651,0,0,-1,0,-1,0,0,0
1528442630490633,0,-1,-1,0,0,1,0,0
1528442630490633,-2,-1,0,-2,-1,-1,0,0
1528442630499610,-1,0,0,0,0,-1,-2,0
1528442630499610,1,-2,0,1,-1,-1,-1,-2
1528442630513572,1,-1,-1,-1,-1,-1,-1,-1
1528442630513572,0,-1,-1,-1,0,0,1,0
1528442630520561,-2,1,-1,-2,1,-1,-1,1
1528442630520561,-1,1,0,-1,0,0,-1,0
1528442630528533,0,1,-2,-1,1,0,-1,-2
1528442630528533,-1,-3,-1,-1,-1,-1,-3,-2
1528442630543493,-1,-1,-2,0,-1,-1,-1,0
1528442630543493,-1,0,-1,1,2,-1,0,0
1528442630550473,0,0,-1,-1,-1,0,-1,-1
1528442630550473,0,1,-1,-1,-1,-1,1,0
1528442630559455,-2,0,-1,-2,1,-1,-1,1
1528442630559455,-1,-1,-1,0,-1,-1,0,-1
1528442630573413,0,-2,0,0,-2,0,0,0
1528442630573413,1,0,-2,0,0,-1,-3,-2
1528442630580435,-1,-2,1,-1,-1,0,-2,-1
1528442630580435,0,1,1,-1,-1,-2,-1,0
1528442630588425,-1,0,-1,-1,0,-2,1,0
1528442630588425,0,-1,1,0,0,1,-1,0
1528442630604346,0,0,-2,-1,-1,0,0,0
1528442630604346,-2,-1,-1,-1,0,-1,1,-1
1528442630610314,-1,-1,0,0,0,-1,-1,-2
1528442630610314,0,-1,-1,0,1,-1,1,-2
1528442630625274,1,-1,-1,0,-1,-1,-1,-2
1528442630625274,0,-1,0,-3,0,-2,-1,-1
1528442630634249,-2,-1,-2,0,-1,-1,-1,1
1528442630634249,-1,-1,-1,-1,-1,0,0,0
1528442630640276,0,0,0,-1,0,-2,0,-1
1528442630640276,0,-1,-2,-1,-2,-1,0,-1
1528442630656191,-1,-1,0,-1,0,0,-1,1
1528442630656191,-1,-1,0,-2,-1,-1,-2,0
1528442630663220,-1,-2,-2,-1,-1,1,-1,-1
1528442630663220,-1,-1,-1,-1,0,0,-1,0
1528442630670181,0,0,0,-1,-2,0,-3,-1
1528442630670181,-2,0,-1,0,-1,-1,0,-1
1528442630687108,0,-1,1,-1,-1,-2,0,-1
1528442630687108,-1,1,-2,2,-1,-2,-1,0
1528442630694107,1,-1,0,-1,-1,-1,1,-1
1528442630694107,0,0,0,-1,1,-1,-1,-1
1528442630709049,-2,-1,-1,-2,1,-1,0,0
1528442630709049,-2,0,0,0,0,-1,-1,1
1528442630710047,0,0,-1,-1,0,-2,0,0
1528442630710047,-1,1,0,0,-1,0,-1,-1
1528442630723014,0,1,0,0,1,0,-2,0
1528442630723014,-2,0,1,-2,-1,-1,0,-2
1528442630739005,-1,-2,-1,-2,1,-1,2,-2
1528442630739005,0,-1,-2,0,-1,0,0,1
1528442630745990,0,-1,1,1,-2,0,1,-1
1528442630745990,0,0,0,1,-1,1,-1,-1
1528442630753930,-1,0,0,-1,-1,-2,-1,-1
1528442630753930,1,1,1,-1,-2,-3,-2,-2
1528442630760915,0,-1,-1,-1,0,0,0,2
1528442630760915,1,-1,-1,-2,0,-1,0,-2
1528442630767892,-1,-1,-1,-2,-1,-2,-2,0
1528442630767892,-2,-1,-3,0,1,0,-1,-1
1528442630782851,1,1,0,-2,0,1,0,-2
1528442630782851,-1,-2,0,-2,-2,-1,-1,0
1528442630790830,-1,0,0,1,0,0,-2,1
1528442630790830,0,-3,0,-1,-2,-1,1,0
1528442630805790,-2,-3,-1,0,-1,-2,-2,-1
1528442630805790,0,0,-1,-1,-2,0,0,1
1528442630813771,1,0,-2,-1,1,0,-2,-2
1528442630813771,0,-1,-1,-1,0,0,0,-1
1528442630820752,0,0,0,0,-1,0,1,0
1528442630820752,0,0,-1,-1,0,0,0,-2
1528442630828734,0,-1,-1,0,0,0,-1,-1
1528442630828734,0,-2,0,-2,-1,-2,-2,1
1528442630842691,-2,-1,-3,-1,0,1,-2,-2
1528442630842691,-1,-1,-1,0,0,0,-1,0
1528442630850670,-1,0,0,1,0,0,0,-1
1528442630850670,0,0,0,-1,-1,1,-1,-1
1528442630865675,-1,-1,-2,-1,-1,-1,-2,0
1528442630865675,0,0,0,-1,-1,-1,0,0
1528442630873659,-2,-1,0,0,-1,0,-1,-2
1528442630873659,-1,0,1,0,-1,-1,-1,-3
1528442630880629,0,0,0,-1,0,3,-2,1
1528442630880629,-1,-1,0,-1,2,0,-2,-3
1528442630896549,-1,0,1,0,0,-1,0,-1
1528442630896549,1,-1,0,0,0,-2,-1,1
1528442630904536,-1,-3,-3,1,1,0,1,-2
1528442630904536,-1,-1,-3,0,-3,-1,-2,-1
1528442630910512,2,3,1,0,-2,-2,0,-3
1528442630910512,0,-1,-1,-1,0,0,-1,-1
1528442630925472,0,-1,-1,0,0,-3,-1,-2
1528442630925472,0,-1,-1,0,2,0,0,0
1528442630933506,-1,-2,-1,-2,0,0,-1,0
1528442630933506,-1,1,0,-1,-2,-1,-1,0
1528442630940483,0,-1,-1,-1,-1,-3,0,1
1528442630940483,-1,-1,0,0,-1,-1,-1,0
1528442630956441,0,1,0,0,-1,1,-1,0
1528442630956441,1,0,-1,1,0,0,0,0
1528442630963415,-1,0,1,-1,0,-1,-3,0
1528442630963415,1,0,0,-1,-2,-1,-1,-2
1528442630970351,1,0,0,0,-1,-1,-1,-1
1528442630970351,-2,0,-1,0,0,-1,1,-2
1528442630987306,-1,-1,0,-1,0,-2,-2,-1
1528442630987306,0,0,0,-1,0,0,-2,2
1528442630994313,1,-3,-2,-1,0,-1,0,0
1528442630994313,0,-1,-1,0,0,2,0,-1
1528442631000324,0,1,0,-1,0,1,1,-2
1528442631000324,-1,-1,-1,0,-2,1,1,-1
1528442631016282,-1,-1,-1,-1,-1,-2,-1,1
1528442631016282,-2,-2,0,0,-1,0,-2,1
1528442631023264,-2,-2,-3,-1,-2,-2,1,-1
1528442631023264,-2,-3,0,0,0,-1,-1,0
1528442631031188,-2,0,-2,-2,2,-1,0,-1
1528442631031188,0,-1,0,-2,-1,-1,0,0
1528442631046148,0,0,0,-1,0,1,-1,-1
1528442631046148,0,1,0,-2,0,-2,-1,-2
1528442631054177,-2,0,0,-1,1,0,-1,0
1528442631054177,-2,-1,1,-1,-1,-1,0,-1
1528442631061108,-1,-1,0,-1,-1,1,0,-2
1528442631061108,0,-1,-1,1,-2,0,0,-1
1528442631076121,0,-1,1,0,1,-1,-1,-1
1528442631076121,1,1,0,0,-2,0,-1,1
1528442631083102,-1,-1,0,0,0,-1,-1,-1
1528442631083102,-2,-1,1,-1,0,0,-1,1
1528442631091040,0,-1,-1,-1,-2,0,0,0
1528442631091040,0,-2,-2,0,-1,0,0,-1
1528442631105992,-2,-2,0,-3,-1,1,1,1
1528442631105992,-1,-1,-1,0,-2,-1,0,-2
1528442631114224,1,-1,0,-1,-2,-1,0,0
1528442631114224,-1,0,-2,-1,0,-1,0,-1
1528442631120949,0,2,-1,-1,-2,-2,0,-2
1528442631120949,0,0,-2,0,1,0,1,0
1528442631137416,-1,0,-1,1,-3,0,-2,0
1528442631137416,0,0,0,-1,1,-1,-2,-1
1528442631143326,-1,1,-1,1,-2,-1,-2,0
1528442631143326,-1,0,-1,0,0,-1,-1,0
1528442631151378,-1,-1,-1,-1,-1,-1,-1,-1
1528442631151378,0,0,-2,-2,1,0,-1,-1
1528442631174638,0,-2,-1,0,1,-1,1,-1
1528442631174638,1,1,0,1,-1,0,-1,0
1528442631175375,-2,-1,-1,-1,0,0,0,0
1528442631175375,0,-2,0,-1,0,-1,0,-1
1528442631181435,-1,0,2,1,-1,1,0,0
1528442631181435,-1,-1,-1,0,-2,-1,0,-3
1528442631196579,1,0,-1,0,0,-1,0,-2
1528442631196579,-1,1,0,0,-2,0,1,-1
1528442631203593,-1,0,0,-1,-2,-2,0,-1
1528442631203593,0,-2,0,-1,0,-2,0,1
1528442631211506,-1,-1,-1,-1,0,0,0,-1
1528442631211506,0,0,-2,-2,0,-1,-1,-1
1528442631225480,-2,-1,0,-1,0,-2,-1,1
1528442631225480,-1,1,0,-4,-1,-2,-2,0
1528442631234593,-1,-1,0,0,-2,1,0,-1
1528442631234593,-2,-2,0,1,-1,0,1,-1
1528442631248509,-1,0,0,-1,0,1,-2,-1
1528442631248509,0,0,0,-2,0,0,0,-2
1528442631272443,0,-1,-2,-2,-2,-2,1,1
1528442631272443,-1,-1,0,0,-1,0,-1,0
1528442631274438,1,0,-1,0,1,-3,0,0
1528442631274438,-1,-1,-1,0,0,0,1,-2
1528442631275449,0,-1,1,0,-1,0,-1,0
1528442631275449,-1,1,0,0,0,-2,0,0
1528442631285444,0,0,-1,-1,-1,1,-1,-1
1528442631285444,0,-2,0,0,0,0,-1,-1
1528442631293386,-1,2,0,0,1,0,1,-1
1528442631293386,0,0,-1,-1,0,0,-1,-1
1528442631308888,-1,-2,2,0,-2,-1,0,-1
1528442631308888,-2,-1,0,-1,-1,-1,-1,0
1528442631317216,-1,1,0,-1,-1,0,0,1
1528442631317216,0,-2,0,-1,1,1,0,0
1528442631332203,0,-1,-2,-2,-1,-2,-1,0
1528442631332203,-1,-1,-1,0,-1,-1,0,-2
1528442631332203,-1,-1,-2,0,-1,-2,-1,0
1528442631332203,0,-1,-1,-2,-2,-3,0,0
1528442631346219,-1,0,-3,-1,-2,-1,0,0
1528442631346219,0,-1,-1,-1,1,0,1,1
1528442631353954,-3,-1,-1,-1,0,-1,-3,-2
1528442631353954,0,0,-1,0,0,0,0,0
1528442631368840,-1,-1,0,0,-1,1,1,0
1528442631368840,-1,1,0,-1,-1,0,-1,-1
1528442631384635,0,-3,-1,1,0,0,-1,-3
1528442631384635,-1,-1,-2,-1,0,-1,0,0
1528442631391804,-1,-2,0,1,-1,-1,-2,-1
1528442631391804,-1,0,-2,1,-1,-2,-3,0
1528442631392859,1,0,0,-1,0,-1,0,0
1528442631392859,-1,0,0,-1,-1,1,0,-3
1528442631406089,0,-2,-1,-1,-1,-1,1,0
1528442631406089,1,-1,0,-1,-2,1,-2,-1
1528442631414802,-1,0,1,1,-1,0,-2,-3
1528442631414802,0,-2,-2,-1,-2,-2,-3,0
1528442631428946,0,-1,-1,0,0,-1,-1,0
1528442631428946,0,-2,2,0,-1,-1,0,1
1528442631437141,1,-1,0,-2,0,-1,1,0
1528442631437141,-1,0,-1,-1,1,-2,-1,-1
1528442631451214,-1,-1,-1,-3,-2,1,-1,-3
1528442631451214,-1,-2,-3,0,-1,-1,-1,0
1528442631467096,0,0,0,-1,-1,1,-1,0
1528442631467096,0,-1,1,1,-1,1,-2,-2
1528442631467971,1,-1,0,-1,-1,-2,-1,-1
1528442631467971,-1,1,-1,0,1,0,-1,0
1528442631474937,-1,-1,0,-1,-2,-1,1,2
1528442631474937,0,-1,0,-1,-1,-1,-1,-1
1528442631497211,-2,-1,-1,1,1,-2,0,0
1528442631497211,0,-1,1,-2,1,0,2,-2
1528442631498872,0,1,0,0,-1,-1,-1,-1
1528442631498872,-1,0,-1,-1,-1,0,-1,1
1528442631510839,0,-1,0,-1,-1,0,0,0
1528442631510839,-1,0,0,0,-1,-1,-1,-2
1528442631519815,0,-1,-3,-1,-1,-3,0,-1
1528442631519815,0,-2,-1,0,0,-2,-1,-2
1528442631525799,-2,1,-1,0,-1,0,-2,-2
1528442631525799,-1,0,-1,1,-2,-1,0,-1
1528442631534777,-1,0,0,-1,0,0,-1,0
1528442631534777,0,0,-1,-2,-1,-1,0,2
1528442631548814,-1,-1,0,-2,0,-2,-1,1
1528442631548814,0,-3,0,0,0,-2,0,-2
1528442631557935,-3,0,0,0,0,0,0,-2
1528442631557935,-2,-1,-1,-1,0,0,1,-1
1528442631570679,1,-2,-1,-1,1,0,0,2
1528442631570679,0,-1,-2,-1,-1,0,-1,1
1528442631579655,1,-1,-1,-1,-1,-2,1,0
1528442631579655,0,-2,0,-1,-2,-1,0,0
1528442631585643,-1,-1,1,-1,-2,0,-1,-2
1528442631585643,0,0,-1,0,-1,-1,-1,0
1528442631600603,-2,-2,-1,0,0,-1,0,-2
1528442631600603,-1,-1,-1,-2,-1,0,-1,0
1528442631608582,1,-1,-3,0,0,0,0,0
1528442631608582,-1,0,1,-1,-1,0,-1,0
1528442631617558,0,-1,0,-1,0,0,-1,0
1528442631617558,-2,-1,0,-2,-2,-4,-1,-1
1528442631630524,-2,-1,0,-1,-1,0,-1,-2
1528442631630524,-2,1,-1,-2,0,-1,-1,-1
1528442631639496,2,-2,0,0,-2,-1,-1,-1
1528442631639496,-1,0,1,0,0,-1,0,0
1528442631645785,1,0,0,0,-1,-1,-1,2
1528442631645785,-1,-1,-2,-2,0,-1,-2,0
1528442631661754,0,0,-1,-2,0,-1,-1,0
1528442631661754,1,0,1,-1,0,0,0,-1
1528442631667737,-1,-1,0,-2,-2,-2,1,-1
1528442631667737,2,-3,-1,-2,0,-2,1,1
1528442631684692,-1,0,-2,-1,-1,-2,0,0
1528442631684692,0,-2,0,1,0,1,-1,-1
1528442631690872,0,-1,-1,-1,0,0,1,0
1528442631690872,-1,-2,-2,-2,0,-1,-1,-1
1528442631707075,-2,1,-1,-1,0,1,-1,-2
1528442631707075,-2,1,0,0,-1,0,-1,0
1528442631707075,-1,0,1,-1,-1,-1,-1,-1
1528442631707075,-1,-1,1,-1,0,-2,0,1
1528442631715023,0,-2,1,-1,0,-2,-1,-1
1528442631715023,0,-2,-2,1,-1,0,0,0
1528442631728009,0,-1,-1,0,-1,1,1,0
1528442631728009,-1,-1,-1,0,-1,1,0,1
1528442631736965,0,0,0,-1,0,0,-1,0
1528442631736965,-1,0,1,-2,-2,-1,-1,0
1528442631750931,0,-1,0,0,0,-1,0,-1
1528442631750931,-1,1,-2,0,-1,-1,0,-1
1528442631759904,0,-1,0,0,0,-2,-1,1
1528442631759904,0,-1,-1,1,0,-2,-2,-3
1528442631765890,-2,-1,-2,-2,0,0,-2,-1
1528442631765890,1,0,2,-1,-1,0,0,0
1528442631774864,-1,-1,-3,0,0,-1,1,1
1528442631774864,-1,-1,0,0,-3,-1,0,-2
1528442631788826,-2,1,-1,-1,-1,-1,0,-1
1528442631788826,0,0,-1,-1,-2,1,-1,-2
1528442631796806,-1,0,-1,-1,-1,0,1,-1
1528442631796806,0,-1,-1,-1,0,1,1,0
1528442631810767,0,-1,0,-1,-1,-2,-2,0
1528442631810767,-2,-1,-2,1,-2,0,-2,0
1528442631819745,-1,-1,0,1,-1,-3,0,-1
1528442631819745,0,-1,-2,0,-1,-3,1,1
1528442631825631,-1,0,-2,0,-2,0,1,0
1528442631825631,1,0,-1,-2,0,-2,0,-1
1528442631834213,-2,0,-1,-1,-1,-2,0,-1
1528442631834213,0,0,-1,0,0,-1,1,-1
1528442631848420,-1,0,0,-1,1,0,0,-2
1528442631848420,0,-2,-1,-1,0,-1,-2,-1
1528442631857153,0,0,-1,0,-1,-1,0,0
1528442631857153,0,-1,0,-1,0,-1,-1,0
1528442631870664,0,-2,-1,0,-1,0,-1,2
1528442631870664,0,-1,1,0,0,-1,1,-2
1528442631879637,1,-1,-1,0,0,0,-2,-1
1528442631879637,-1,-1,-2,0,-1,0,0,-2
1528442631885621,0,0,0,0,-1,-1,-1,0
1528442631885621,-1,-2,-1,1,0,0,-1,1
1528442631894596,0,-1,0,-1,-2,0,0,-1
1528442631894596,0,-1,0,1,-1,-2,0,0
1528442631908559,-2,0,0,-1,-1,-1,-1,-1
1528442631908559,-1,-1,-1,0,0,0,0,-1
1528442631917537,-1,-1,0,-2,0,-2,-2,-1
1528442631917537,0,-1,0,-2,0,0,-2,0
1528442631939477,0,-1,-2,-2,-2,-1,0,-1
1528442631939477,-2,1,-1,0,-1,-3,0,-1
1528442631941471,0,-2,-2,-1,-1,-1,-2,-2
1528442631941471,0,-1,-1,-2,0,0,-1,-1
1528442631945464,1,-1,1,1,-1,-1,-1,-1
1528442631945464,-2,-1,-1,-1,0,-1,-2,-1
1528442631954684,0,-1,-1,0,1,-1,-1,-2
1528442631954684,-4,-2,0,0,0,-1,-1,0
1528442631968895,-1,-1,-1,-2,0,-1,3,-1
1528442631968895,-1,-1,-1,0,-1,-2,0,1
1528442631977623,-1,-1,0,-1,0,-1,0,1
1528442631977623,0,0,0,-2,-1,-1,-2,-1
1528442631991849,-1,-1,-1,-1,-1,-1,-1,-1
1528442631991849,-1,-1,-2,0,-1,0,-1,-2
1528442631998944,-2,-1,-1,-1,-1,0,0,0
1528442631998944,-2,-1,-2,0,0,-1,0,1
1528442632005852,-2,-1,-2,-1,-1,-1,0,0
1528442632005852,0,-1,-1,-2,0,-1,0,-2
1528442632014829,-1,0,1,-2,-1,1,-1,0
1528442632014829,2,0,1,-1,-1,0,-1,-2
1528442632036770,0,-1,1,0,0,0,-1,-1
1528442632036770,0,1,-1,-2,-1,-1,0,1
1528442632038764,-2,-1,-1,-1,-1,-1,-1,0
1528442632038764,0,0,-1,-1,1,-1,0,-1
1528442632051736,0,0,-1,-1,-1,1,-1,0
1528442632051736,1,0,0,-1,-1,0,-1,0
1528442632058714,-1,-1,-1,0,0,0,1,0
1528442632058714,-1,1,-1,-1,-1,-1,0,-1
1528442632074672,0,-1,-2,-3,0,-1,0,0
1528442632074672,0,-2,0,2,-1,-2,-1,0
1528442632075675,-2,-1,-1,-2,-1,-1,-1,-1
1528442632075675,-1,0,0,-1,-1,-1,-1,-2
1528442632088634,-1,0,-1,-1,0,-1,1,-1
1528442632088634,-2,0,0,-1,0,-2,0,0
1528442632097608,0,0,0,0,-1,-1,0,1
1528442632097608,-1,-2,0,0,-2,0,-1,2
1528442632111570,0,0,0,1,-1,-1,-1,-1
1528442632111570,0,-1,-1,-1,0,-1,0,-1
1528442632125533,-1,-1,-1,-2,-2,-2,0,0
1528442632125533,1,-2,-1,-3,1,-1,-3,-1
1528442632134508,-2,-1,0,-1,-1,0,-2,-1
1528442632134508,0,-1,0,-1,0,0,1,0
1528442632136505,0,0,0,-1,-3,1,1,-1
1528442632136505,-2,-1,1,-1,-2,0,0,1
1528442632148477,0,-1,-3,0,-1,-2,-2,-1
1528442632148477,-1,-1,-2,-2,0,1,0,-1
1528442632157446,0,-2,-1,-2,-1,0,-1,0
1528442632157446,0,-1,0,0,-2,0,1,-1
1528442632171409,-2,1,0,-2,-1,-1,0,-1
1528442632171409,-1,-1,0,0,-2,0,1,0
1528442632178391,0,-1,-1,-1,0,0,-2,-3
1528442632178391,0,1,-3,-2,0,-1,-2,0
1528442632194352,-1,-2,0,-1,0,0,-2,-1
1528442632194352,1,0,-1,-2,-1,0,-1,-1
1528442632200332,0,-2,-1,0,-1,-1,2,0
1528442632200332,-1,-1,-2,0,-1,-1,0,-1
1528442632208310,0,0,-2,-1,0,0,0,1
1528442632208310,-1,-4,-2,-1,-3,0,-1,-1
1528442632217287,0,0,-1,-1,-1,0,-2,0
1528442632217287,0,-1,-1,-1,-1,0,-1,-1
1528442632231249,0,-1,-1,-1,0,0,0,-1
1528442632231249,-2,1,0,0,-1,0,1,1
1528442632238230,0,0,0,-1,0,-2,0,-1
1528442632238230,-3,-3,0,-1,0,1,1,-1
1528442632253190,0,1,0,-1,0,-1,-1,0
1528442632253190,0,-1,0,-1,-1,0,0,-1
1528442632270152,-1,0,-1,0,-1,-1,-1,-1
1528442632270152,-2,0,0,-2,0,-2,-1,-1
1528442632271143,0,0,0,1,0,0,-1,-1
1528442632271143,-1,0,1,-1,0,-2,-2,-1
1528442632277128,0,0,0,-1,0,-2,0,0
1528442632277128,-1,-1,-2,-1,0,-1,-1,-2
1528442632291108,-2,0,-1,0,-2,-1,0,-1
1528442632291108,-1,-1,-2,-1,-1,0,0,-2
1528442632298072,-1,-1,-2,-2,0,0,-1,0
1528442632298072,-1,1,-2,1,0,0,-1,0
1528442632315027,0,0,-1,-1,1,-2,0,0
1528442632315027,-1,-1,-1,1,0,0,-1,0
1528442632316037,0,0,0,-1,0,0,-1,0
1528442632316037,-1,0,0,0,0,-1,0,-1
1528442632328044,-1,-1,-2,0,-1,0,0,-1
1528442632328044,-1,0,-1,-1,-1,0,-2,-1
1528442632336968,-1,0,-2,-2,1,0,-1,-2
1528442632336968,0,-1,1,1,-1,-1,-2,1
1528442632350983,1,-1,1,-1,0,-1,-2,2
1528442632350983,1,-1,-2,1,-1,-2,0,-1
1528442632357965,0,-1,-1,0,0,-1,2,0
1528442632357965,1,-2,0,-2,-1,0,0,-2
1528442632374914,-2,0,-2,1,-1,0,0,1
1528442632374914,-1,1,-2,-3,0,-1,-1,1
1528442632375905,0,0,1,2,-1,-1,-1,0
1528442632375905,0,-1,-2,0,-1,0,1,0
1528442632387880,-1,0,1,-1,-1,0,1,-2
1528442632387880,-1,-1,-1,0,-1,0,-1,-1
1528442632396860,-1,0,-1,-1,-1,0,-3,-2
1528442632396860,0,0,-2,0,2,-1,-1,1
1528442632411767,0,-1,1,-3,0,-1,0,1
1528442632411767,-2,0,-1,-1,0,-1,0,1
1528442632417751,-1,0,-1,-1,0,0,-1,0
1528442632417751,-2,-3,-1,0,-1,-1,-1,-2
1528442632434707,-1,0,0,0,1,-1,-2,-1
1528442632434707,-1,0,1,-1,0,-1,-2,0
1528442632436705,-1,2,0,-2,0,2,-1,-1
1528442632436705,-1,1,0,-2,0,-2,-2,0
1528442632448896,-1,0,0,-1,-3,-1,0,-1
1528442632448896,-1,-2,-1,-3,-1,0,-2,-1
1528442632457833,-2,-1,0,0,-2,-1,0,0
1528442632457833,-1,-1,-2,0,0,0,-1,-1
1528442632471900,-2,-1,-1,-1,0,0,0,-1
1528442632471900,0,-2,0,-1,-1,-1,-2,0
1528442632478884,-1,-2,-1,0,-2,0,0,0
1528442632478884,1,-1,-2,-2,-3,0,0,-1
1528442632495246,1,-1,-1,-1,0,-1,0,-1
1528442632495246,-2,0,0,-1,-1,0,1,-1
1528442632496837,0,-1,-2,-1,1,-1,-1,0
1528442632496837,1,0,1,-1,0,0,-1,0
1528442632507806,-1,0,-2,-1,1,1,0,-1
1528442632507806,-1,-1,0,0,-1,0,0,1
1528442632517909,1,-1,-1,-2,0,-1,-1,-2
1528442632517909,-2,0,1,0,-1,0,-2,0
1528442632531742,0,-1,-2,-1,-2,-1,0,0
1528442632531742,1,1,0,0,-1,-1,-1,0
1528442632538922,-1,0,0,1,-1,-1,1,-1
1528442632538922,-1,-1,0,0,-2,2,0,-1
1528442632554819,0,-2,1,-1,-1,0,-3,-1
1528442632554819,-1,0,0,0,0,-1,-1,-1
1528442632555678,2,-1,0,0,-1,-2,-3,-1
1528442632555678,0,-1,-2,-1,0,-2,-1,-1
1528442632568209,0,0,-1,0,0,-1,-1,1
1528442632568209,-2,0,-1,-1,0,-2,-1,0
1528442632576921,-3,-1,-1,0,-2,0,1,0
1528442632576921,-1,0,-1,-1,-2,-3,0,-2
1528442632591529,-1,-2,-1,-1,-1,-2,-1,0
1528442632591529,0,-2,-2,0,-2,0,0,-1
