timestamp,emg1,emg2,emg3,emg4,emg5,emg6,emg7,emg8
1528189888209774,-3,-12,-8,-40,66,41,8,2
1528189888209774,2,2,-5,-11,-16,-4,-3,-1
1528189888225733,0,-5,0,4,16,-3,-1,-1
1528189888225733,0,2,4,-22,-16,8,0,0
1528189888232712,0,1,11,49,-39,-21,-5,-2
1528189888232712,-1,-4,-11,-21,18,-15,0,-1
1528189888239692,-1,-5,3,21,-17,29,0,0
1528189888239692,-2,-3,-10,-8,-5,-9,-3,-2
1528189888254654,-1,-2,-9,0,20,6,3,0
1528189888254654,-4,-4,-9,0,-14,1,1,-1
1528189888269614,0,4,-1,-21,1,-22,-8,-4
1528189888269614,-2,-1,-2,7,-42,-5,-2,-1
1528189888278589,-1,0,4,-7,11,-8,2,-1
1528189888278589,-6,-4,1,6,-7,-8,-1,-2
1528189888293565,4,4,4,1,-11,10,8,1
1528189888293565,2,-1,0,6,35,10,5,2
1528189888295544,3,-2,2,-12,-3,7,-12,1
1528189888295544,0,-2,-6,2,-6,-21,-9,-3
1528189888316488,-3,-3,-6,-8,10,-1,5,-2
1528189888316488,-4,-3,-4,-8,-43,-56,-9,-4
1528189888317485,1,0,3,4,14,49,5,-3
1528189888317485,4,3,1,7,13,-14,10,7
1528189888329453,-7,1,-5,-8,-16,38,-16,-3
1528189888329453,-1,-2,4,1,13,-32,-2,-2
1528189888344413,-1,-1,2,0,-13,23,-3,-1
1528189888344413,1,-1,0,13,25,20,9,1
1528189888353438,2,0,-2,-3,-24,-48,3,0
1528189888353438,-3,-6,-9,-5,7,27,-10,-3
1528189888355384,-5,-3,-2,-6,-11,-87,-11,-6
1528189888355384,-1,-3,-2,-2,-15,16,-3,-2
1528189888376375,-1,-1,2,-4,5,17,5,0
1528189888376375,-1,-1,-1,-2,9,8,5,-1
1528189888377371,2,1,4,6,19,23,-17,1
1528189888377371,-3,-4,-5,-2,-26,-5,0,0
1528189888390308,0,-1,-5,-7,18,-26,-7,0
1528189888390308,-2,-1,-3,-6,-23,32,18,2
1528189888399285,-4,0,2,7,-7,-2,7,-2
1528189888399285,-1,1,3,4,2,-14,-14,-2
1528189888413266,-1,0,0,-1,-17,-30,-4,-1
1528189888413266,-1,-1,-1,-2,13,84,4,2
1528189888415237,4,3,1,-4,-4,-20,11,6
1528189888415237,-2,-2,1,19,0,16,-2,-2
1528189888436169,0,0,1,14,24,-37,0,-2
1528189888436169,-3,-6,-5,-47,13,-17,-4,-3
1528189888438164,-2,-3,1,7,-52,-22,-6,-4
1528189888438164,1,3,5,-5,-53,-5,2,-2
1528189888450131,-1,-3,-6,-29,35,6,-6,-1
1528189888450131,1,2,1,24,-49,-12,-6,-1
1528189888465092,-3,-2,-6,-19,64,17,-2,-2
1528189888465092,1,2,7,11,17,18,8,-1
1528189888474103,-1,0,1,7,1,1,1,-1
1528189888474103,-6,-2,-9,-1,-18,20,-4,-3
1528189888475080,4,0,1,4,-34,-28,3,-1
1528189888475080,0,-3,-1,3,-14,-10,-2,0
1528189888503987,0,1,2,-3,51,30,4,0
1528189888503987,1,1,-1,9,26,-14,0,1
1528189888504985,-3,-3,4,-12,-44,-19,-12,-3
1528189888504985,-1,-2,0,9,54,10,10,-1
1528189888509972,-1,-4,-5,-6,-42,9,0,1
1528189888509972,1,-1,-3,-20,-5,-19,-4,0
1528189888518948,-1,1,2,11,-8,5,-2,0
1528189888518948,-2,-5,-5,-14,8,10,-4,1
1528189888533907,-2,-1,-6,4,-37,-7,0,0
1528189888533907,2,-1,3,-2,38,-4,-2,-2
1528189888534905,-1,-2,-4,-13,-52,-5,3,-3
1528189888534905,0,-1,-7,-12,-2,-5,-4,-1
1528189888563828,0,1,-3,17,3,-3,-3,-4
1528189888563828,-1,-2,12,20,-7,-7,-5,-1
1528189888564826,-2,-5,-1,13,13,8,1,-3
1528189888564826,-6,-3,5,5,-1,-6,-10,1
1528189888569811,0,1,-4,-12,-1,7,-1,0
1528189888569811,0,0,-12,-29,-7,2,15,3
1528189888584771,1,0,9,27,3,2,23,0
1528189888584771,-2,-9,-24,-8,2,1,-4,-1
1528189888593747,-4,-7,-3,-4,-20,-5,-8,-3
1528189888593747,4,7,16,34,21,-12,-9,-2
1528189888595759,-6,-4,-5,-3,-4,9,-2,3
1528189888595759,5,4,-2,-66,-6,2,3,1
1528189888615688,-4,-3,12,58,4,5,-1,0
1528189888615688,1,1,-4,-1,10,4,22,0
1528189888617683,0,3,-13,-21,-13,-4,-6,0
1528189888617683,-4,-1,4,31,0,-1,-2,-3
1528189888629650,5,3,-5,-20,-12,2,0,4
1528189888629650,-1,-2,2,-61,27,-1,-4,0
1528189888644614,-4,-5,17,76,-7,-6,-7,-1
1528189888644614,1,-1,15,27,11,1,-9,-2
1528189888652643,-2,3,-19,-31,-19,-6,21,-3
1528189888652643,-4,-6,-5,23,-9,-5,-17,-2
1528189888678521,0,4,8,-14,17,-2,-38,-3
1528189888678521,-1,-7,-11,2,-8,-5,26,-1
1528189888679519,3,2,14,14,17,12,8,1
1528189888679519,-8,-3,-21,-59,-21,-6,2,-1
1528189888683508,4,-2,-8,-80,4,2,3,0
1528189888683508,-4,4,15,32,-8,-10,-19,-5
1528189888698467,1,-3,-11,-2,-10,-3,-7,0
1528189888698467,-3,-3,-3,22,5,3,2,-1
1528189888699465,-5,0,4,-6,10,-5,-5,-5
1528189888699465,-2,-6,-11,-9,-18,-2,0,-2
1528189888713446,4,4,-16,-115,-28,-2,6,3
1528189888713446,-3,-6,35,124,46,2,-10,-3
1528189888714478,2,0,-2,-37,-16,-5,3,-1
1528189888714478,-2,-1,-2,3,22,11,2,-1
1528189888735417,0,5,1,-8,5,4,-5,-1
1528189888735417,-3,-12,-21,-29,-23,-10,-19,-4
1528189888736366,0,1,-2,35,9,-2,8,3
1528189888736366,0,-1,-11,-95,-36,-14,-24,-2
1528189888758569,-3,0,20,2,6,-2,26,0
1528189888758569,1,2,-4,-84,-1,-7,-6,-1
1528189888759571,-1,6,-3,93,-12,-1,12,-3
1528189888759571,3,-3,3,-14,16,7,0,3
1528189888780279,1,-5,-1,-7,10,3,-13,0
1528189888780279,1,6,1,44,-14,-10,3,-1
1528189888788235,-1,-5,-14,-128,37,8,5,1
1528189888788235,-7,3,12,110,-30,-6,-4,-3
1528189888811516,2,-5,-9,5,-47,-15,-13,-8
1528189888811516,0,-1,-10,1,38,8,10,4
1528189888812209,3,4,4,20,16,5,-5,-2
1528189888812209,-4,-9,-11,-12,14,7,0,-4
1528189888818242,-3,-2,7,12,15,6,0,2
1528189888818242,2,-1,-3,4,-37,-14,-5,-1
1528189888819237,-5,-2,-9,10,-26,-7,-4,-4
1528189888819237,4,11,4,-12,19,6,6,3
1528189888833179,-3,-12,-2,22,-33,-5,-9,-4
1528189888833179,0,6,8,19,50,-4,-3,-2
1528189888834186,-2,-5,-7,-40,-32,5,5,3
1528189888834186,-3,-1,-7,-20,-1,-9,1,-2
1528189888855094,0,7,7,24,44,17,-2,1
1528189888855094,-1,3,1,8,-29,-4,0,-1
1528189888856090,0,0,5,-15,15,0,-2,-1
1528189888856090,1,-3,-7,6,-12,-8,1,1
1528189888878431,-2,-3,7,24,-23,-14,-9,-5
1528189888878431,1,2,-3,-11,31,8,4,1
1528189888879032,-4,-4,6,6,-25,-8,-2,-2
1528189888879032,2,2,-42,-14,-18,-4,-4,-3
1528189888892623,-13,-5,16,0,25,0,-8,-2
1528189888892623,-1,-8,0,12,-18,3,3,0
1528189888899858,0,-4,-27,0,-8,-5,17,-2
1528189888899858,10,13,9,4,12,-6,-13,-2
1528189888924047,7,-1,-20,-42,15,5,9,1
1528189888924047,-27,-18,10,84,-22,-3,2,-4
1528189888924047,-5,-4,-5,-6,3,-5,-31,-5
1528189888924047,-2,-3,21,47,23,5,28,5
1528189888938010,11,12,15,-8,-3,13,12,7
1528189888938010,3,-2,-8,-24,-7,2,-6,-1
1528189888939004,-1,-1,-9,-24,3,4,4,2
1528189888939004,-8,-3,24,6,-15,-1,-9,-7
1528189888954019,-12,2,-6,51,16,-12,-13,-9
1528189888954019,10,-4,-3,-39,-3,1,-1,0
1528189888954962,7,9,1,25,9,-2,-2,-1
1528189888954962,10,12,34,-51,-8,-1,-34,1
1528189888976215,-10,-8,-24,-8,16,9,20,1
1528189888976215,4,7,4,-20,-14,-7,-2,0
1528189888976815,7,5,20,52,32,12,-6,2
1528189888976815,-9,-12,-12,9,-10,-11,15,-5
1528189888998030,-1,-5,0,15,0,-13,-27,-5
1528189888998030,-2,0,-15,-55,-5,17,27,5
1528189888998758,6,0,-6,-23,-18,-7,-3,-1
1528189888998758,-9,-6,3,22,3,-1,-1,-3
1528189889013413,-7,-9,-19,-37,-7,-14,-39,-14
1528189889013413,1,0,-5,24,-2,6,29,4
1528189889014017,-1,2,14,9,4,-1,-12,-2
1528189889014017,2,-2,-6,-51,1,6,24,1
1528189889035647,-2,-4,0,65,-6,-5,-3,0
1528189889035647,4,10,14,-47,-2,-4,-44,-3
1528189889036296,-5,1,1,-1,17,11,52,4
1528189889036296,-5,-2,-14,22,-27,-6,17,2
1528189889058219,0,-2,9,-44,-9,-2,7,0
1528189889058219,-1,1,5,29,-2,-3,-4,-4
1528189889059217,-3,-5,-5,22,2,-2,-7,1
1528189889059217,-2,-8,-13,43,4,6,-7,1
1528189889089392,1,-1,-2,-8,-22,-5,15,2
1528189889089392,-1,0,-2,-52,10,14,4,0
1528189889089392,-3,1,9,-16,3,-8,-19,-5
1528189889089392,3,-2,-8,6,4,6,-1,4
1528189889095695,2,6,2,47,7,0,0,0
1528189889095695,-7,-10,-11,-83,-77,-25,-17,-7
1528189889096422,1,-6,1,97,77,-3,-3,-1
1528189889096422,-9,-4,0,-95,9,4,-1,-2
1528189889118686,6,10,13,17,5,6,3,3
1528189889118686,1,7,2,48,20,1,-2,0
1528189889118686,-5,-3,-5,-4,-40,-1,4,-1
1528189889118686,-1,-11,-13,36,6,-4,-7,-2
1528189889133590,1,1,1,-37,18,0,-5,-2
1528189889133590,1,3,4,11,-5,-2,2,1
1528189889134514,-4,-5,0,-18,-15,-1,-2,-1
1528189889134514,0,5,4,26,9,-9,-8,-4
1528189889156318,1,-2,2,-81,12,14,9,3
1528189889156318,-3,-9,-8,24,4,-3,2,-1
1528189889156318,-2,-3,-4,-12,-16,0,1,-1
1528189889156318,-1,11,9,18,-56,-15,-8,-3
1528189889178759,-4,-8,-5,16,51,8,4,-1
1528189889178759,2,7,10,4,-3,0,-1,1
1528189889178759,-4,-7,-13,-32,-8,1,-1,0
1528189889178759,1,7,-4,-36,-9,-2,-2,-1
1528189889200453,-2,-3,-1,29,-17,-5,-1,0
1528189889200453,0,4,9,19,19,1,-11,-2
1528189889201450,-6,-12,-16,-22,-20,-8,4,0
1528189889201450,7,0,-17,18,4,-1,0,1
1528189889214669,10,11,21,-16,-3,1,0,-2
1528189889214669,-14,-19,-22,9,5,-2,-4,-2
1528189889223700,-1,6,8,-14,-6,-2,-6,-1
1528189889223700,-1,-3,-17,9,28,8,1,0
1528189889238769,2,-10,-17,15,-26,-11,-24,-3
1528189889238769,3,5,18,7,-4,1,-21,0
1528189889238769,-12,-3,-27,-42,-7,-5,-7,-3
1528189889238769,0,-2,21,34,31,16,28,7
1528189889260853,6,9,-2,10,-15,0,-6,-1
1528189889260853,1,1,12,22,-2,-6,4,-1
1528189889261617,-2,1,2,-26,2,-8,-33,-6
1528189889261617,1,10,22,-24,1,5,-6,5
1528189889275596,-13,-18,27,90,4,-3,7,-3
1528189889275596,10,5,-62,-68,5,3,5,3
1528189889282546,-9,-7,21,82,-7,-7,21,-5
1528189889282546,1,1,10,-100,-17,-3,-8,-3
1528189889298507,-8,-3,11,63,30,7,-6,0
1528189889298507,4,2,7,3,7,-2,16,0
1528189889298507,3,6,27,-32,-13,-1,36,1
1528189889298507,-5,-7,9,74,-1,-3,-4,-4
1528189889322665,-7,-5,-43,-77,-22,-9,-9,-2
1528189889322665,1,6,10,19,17,-3,-8,-3
1528189889322665,-5,-6,-42,2,-19,0,-27,-3
1528189889322665,-1,-3,29,-39,17,9,1,0
1528189889335526,8,1,-15,-40,-14,-5,27,4
1528189889335526,-15,-9,10,67,-6,-2,-19,-6
1528189889343642,3,2,-10,-19,6,-3,-10,-2
1528189889343642,4,0,14,84,2,-1,6,-3
1528189889366583,-6,-5,-29,-94,-16,0,20,4
1528189889366583,-2,-4,21,23,-7,-4,0,-2
1528189889367319,10,5,-9,18,-7,4,2,0
1528189889367319,-5,-10,-32,-98,-1,-8,-24,-6
1528189889381284,1,7,25,9,-2,2,-15,-1
1528189889381284,-5,-2,7,10,3,-2,25,-6
1528189889381284,10,4,1,-18,-8,11,17,11
1528189889381284,-5,-1,-13,15,9,-6,-9,-4
1528189889395512,-4,-10,-13,58,-4,-5,-8,-6
1528189889395512,-1,-2,-9,-105,5,1,-7,-1
1528189889403485,-3,-2,5,5,-19,-12,-47,-3
1528189889403485,2,1,-4,58,0,6,66,3
1528189889418443,2,1,3,31,15,10,1,3
1528189889418443,0,0,2,88,1,1,-4,1
1528189889419180,1,1,0,-76,14,1,0,0
1528189889419180,0,-2,7,-59,-17,-9,-18,-1
1528189889449101,-15,-4,-23,48,-53,-16,-7,-7
1528189889449101,5,-7,-16,118,12,-6,-13,-1
1528189889450135,-4,3,2,-3,3,6,36,0
1528189889450135,3,-2,-7,-83,1,5,-29,2
1528189889455091,2,0,24,-88,36,14,43,4
1528189889455091,-1,2,-16,-92,-17,-5,-9,-1
1528189889463068,-2,-8,6,46,-3,-5,-2,-5
1528189889463068,-4,-5,-11,24,9,-8,-15,-3
1528189889478337,2,5,5,75,-2,1,-4,-2
1528189889478337,1,-4,-4,-12,-6,6,9,4
1528189889479021,-2,-2,-4,-124,-24,-5,-2,-3
1528189889479021,-3,-6,-9,-37,-15,-9,-1,-3
1528189889500581,-1,3,-1,30,10,1,-14,-3
1528189889500581,1,7,-4,-1,-15,-3,8,2
1528189889501266,3,0,21,79,44,8,1,0
1528189889501266,-9,-8,-11,-19,-3,5,-4,-3
1528189889524400,2,-5,-2,-28,9,2,-2,3
1528189889524400,0,1,6,-15,-1,1,-7,0
1528189889524400,1,6,8,2,-11,-1,13,-1
1528189889524400,-1,1,1,47,4,-4,-4,-1
1528189889538166,0,2,4,-16,5,-1,0,1
1528189889538166,-5,-9,-8,-13,5,4,1,-2
1528189889539164,-3,-5,-8,25,-6,-5,-9,-3
1528189889539164,-2,1,-8,8,-13,-6,-2,-2
1528189889561219,2,6,11,-9,8,-8,-8,-2
1528189889561219,-3,-5,-3,-15,-3,1,1,0
1528189889561219,0,-4,-8,-10,-2,2,0,0
1528189889561219,-5,-5,-4,34,10,-2,-2,-3
1528189889584045,2,5,0,-53,-26,5,-1,1
1528189889584045,2,2,9,14,-22,-11,0,-3
1528189889584045,-2,-5,-9,1,25,7,0,-1
1528189889584045,0,6,10,12,-2,0,0,0
1528189889598011,-3,-2,-4,-9,-11,-12,-6,-3
1528189889598011,-2,-6,-10,-7,-11,-3,2,0
1528189889599004,0,-1,-2,7,0,2,0,1
1528189889599004,3,4,-17,-72,-7,3,2,2
1528189889620995,-6,-3,28,98,6,-11,-6,-7
1528189889620995,0,3,11,-4,12,0,-9,-3
1528189889620995,1,4,-16,2,4,0,7,2
1528189889620995,4,0,1,15,-7,1,20,4
1528189889643936,-2,-7,-40,-66,-4,4,-4,0
1528189889643936,3,10,4,-9,9,5,9,3
1528189889644934,-3,-9,18,-6,-6,-2,-9,2
1528189889644934,-5,-5,0,46,6,-7,-10,-5
1528189889673856,1,0,1,-12,-1,-2,1,-2
1528189889673856,-3,4,-3,13,12,5,-7,0
1528189889674854,-3,-12,-11,-18,-7,-1,-7,-4
1528189889674854,2,4,-1,2,-13,0,5,0
1528189889680842,-1,-1,7,-6,-3,-1,0,-2
1528189889680842,-1,-1,-2,-20,5,2,-2,-4
1528189889681782,0,2,6,15,-5,-7,-7,-2
1528189889681782,1,1,4,-3,6,-4,-5,-1
1528189889703759,0,4,16,23,1,-7,-13,0
1528189889703759,-7,-12,-30,-26,-10,-3,9,-5
1528189889704722,-1,2,2,22,-6,1,12,2
1528189889704722,-1,-2,-2,-1,-5,0,-4,-2
1528189889717741,-1,1,-1,-5,3,0,-2,0
1528189889717741,-1,0,6,-1,-5,-2,-4,1
1528189889725718,-1,0,-6,-2,2,-6,-4,-1
1528189889725718,-3,-2,13,10,5,5,-3,-2
1528189889740681,-3,-6,-14,-12,-3,-5,1,-2
1528189889740681,-1,-4,3,12,3,3,4,-1
1528189889741675,-2,-2,1,-17,-1,-1,-6,-2
1528189889741675,1,1,-5,4,-9,-3,-3,1
1528189889763618,-3,-1,-4,-6,5,-3,-3,0
1528189889763618,-2,-3,-1,-4,-2,-2,2,1
1528189889764561,0,5,10,39,4,1,1,0
1528189889764561,-1,-2,-9,40,5,0,-3,-1
1528189889786558,2,2,5,-70,1,1,4,2
1528189889786558,-3,-4,-6,-17,-14,-5,-3,-3
1528189889787536,-1,1,3,-17,4,3,-1,0
1528189889787536,-3,-2,-8,-11,-7,-3,-3,-4
1528189889800523,-1,-6,-8,-1,-5,0,-1,-1
1528189889800523,3,4,4,-8,11,-2,1,0
1528189889815425,-2,-2,-2,5,-6,-2,-3,-1
1528189889815425,-1,-1,3,0,7,2,-1,0
1528189889840416,-1,-2,2,23,-3,-1,-2,-3
1528189889840416,0,-2,-1,-4,-3,1,-1,-1
1528189889840416,-1,-3,-5,2,4,0,0,0
1528189889840416,-1,-1,-2,4,-5,-3,-3,0
1528189889842354,-1,0,-3,79,2,-1,-3,-2
1528189889842354,0,1,10,-53,-5,-3,-1,0
1528189889845407,-2,-3,-7,13,-6,-2,-2,-3
1528189889845407,1,3,7,-70,1,-1,-1,1
1528189889868338,-1,-3,-10,-16,-11,-3,-2,0
1528189889868338,1,0,7,105,16,4,1,-1
1528189889869292,-1,1,3,-66,-11,-2,0,1
1528189889869292,5,0,-7,-28,-2,-3,-1,-2
1528189889883245,-10,-5,-2,15,0,-1,3,-2
1528189889883245,-1,-2,-7,-44,-3,-2,-3,-2
1528189889884241,-2,1,4,37,6,0,-1,0
1528189889884241,0,-4,-6,11,-1,0,0,-1
1528189889898205,4,2,-3,-28,2,1,0,-1
1528189889898205,-1,1,5,19,0,-1,-1,0
1528189889899202,0,-1,-2,2,1,-2,-1,-2
1528189889899202,-1,-1,0,10,2,2,-1,0
1528189889922140,1,0,2,0,-2,-1,-1,-2
1528189889922140,-2,-3,-5,-16,-5,-2,-2,-2
1528189889923141,0,-1,-2,4,0,-1,-1,-1
1528189889923141,-4,-2,0,13,1,-5,-2,-2
1528189889951297,1,1,0,-15,1,1,-2,0
1528189889951297,-2,-1,2,16,-1,-2,-2,0
1528189889952291,-4,-2,-5,-3,-6,-4,-4,-5
1528189889952291,-5,-3,9,28,-8,-5,0,-1
1528189889958277,0,-2,-10,-10,0,4,-7,0
1528189889958277,0,1,5,9,0,2,9,1
1528189889959273,-2,-3,-7,7,3,1,-2,-1
1528189889959273,-3,-1,-4,-13,-2,-1,-2,0
1528189889980216,0,-2,0,10,-5,-7,-6,-2
1528189889980216,1,0,9,3,-4,1,-2,-1
1528189889981213,0,-1,-6,-3,10,2,2,1
1528189889981213,0,-1,-6,-8,-5,-3,-3,-3
1528189890004152,-2,2,4,-5,-12,-1,3,-2
1528189890004152,-3,-8,-2,1,11,0,-4,-1
1528189890005151,-1,1,6,12,-1,-4,0,-1
1528189890005151,-1,-1,-18,-9,-1,1,-2,-1
1528189890018450,0,-1,8,-23,-10,-3,1,-1
1528189890018450,-4,-3,5,32,6,-3,-2,-3
1528189890019113,1,-1,6,6,-2,-1,-1,-1
1528189890019113,4,-2,4,0,-1,1,0,0
1528189890041054,-8,-2,-7,5,1,2,0,-3
1528189890041054,2,2,-2,-14,-6,-5,-1,0
1528189890041054,-2,-2,-9,-11,-1,1,-1,-1
1528189890041054,1,2,9,7,0,0,-2,-1
1528189890064374,2,-3,-5,-5,1,0,0,1
1528189890064374,-2,-1,-4,-20,-2,0,-3,-1
1528189890064374,0,0,1,22,-1,-3,-1,0
1528189890064374,-4,-3,-2,-8,-4,-1,-1,-2
1528189890078198,1,-1,0,7,1,-4,-3,-2
1528189890078198,3,2,-20,-28,0,1,0,2
1528189890086363,-4,-1,31,32,-3,-1,-2,-2
1528189890086363,-3,-4,-2,-5,1,-2,0,-1
1528189890101161,0,-2,-5,7,-7,-2,1,1
1528189890101161,-1,0,-1,6,7,-3,-1,-1
1528189890101161,-1,-2,1,-21,-11,-1,-2,-1
1528189890101161,1,7,28,33,19,2,-1,1
1528189890123846,-3,-4,-13,18,4,-1,-2,-1
1528189890123846,0,3,7,-14,-4,2,1,-1
1528189890125089,-1,-6,-14,-11,-6,0,1,-2
1528189890125089,-2,-2,-5,-8,-9,-4,-4,-2
1528189890137419,1,4,4,-10,1,-3,-1,-2
1528189890137419,-2,2,4,11,-6,-2,-2,-3
1528189890146375,2,2,0,10,4,2,-1,1
1528189890146375,2,-4,-22,-52,-10,-3,-2,-2
1528189890161217,-4,-1,8,4,1,0,-1,0
1528189890161217,-6,-3,11,25,-4,-3,-3,0
1528189890161217,3,-1,-23,-13,1,-1,0,0
1528189890161217,0,1,6,12,-3,-3,-1,-1
1528189890183947,3,12,-6,-14,-2,-2,0,0
1528189890183947,-1,-21,-9,-21,-6,-3,-3,0
1528189890184944,-8,-2,-4,8,3,-4,-4,-2
1528189890184944,-7,-4,6,4,2,6,2,-2
1528189890197970,0,-7,-8,-13,-3,-3,1,0
1528189890197970,4,6,2,9,-3,2,1,0
1528189890205888,-6,3,5,13,2,-2,-3,0
1528189890205888,-2,-2,-9,-18,-5,-2,-1,1
1528189890221231,-2,2,10,9,-1,-4,-2,-2
1528189890221231,8,2,-4,-6,0,-1,1,2
1528189890221847,3,-4,-5,-11,-3,0,-1,-2
1528189890221847,-4,-1,-5,4,-3,-3,-2,-3
1528189890243018,-1,-5,-1,0,0,-1,-1,0
1528189890243018,-5,-3,-5,0,-1,-2,0,-2
1528189890251232,-2,0,-2,-12,0,-1,-2,-1
1528189890251232,-2,-6,0,12,-1,-2,-1,0
1528189890257462,2,0,2,-2,-2,0,-1,-1
1528189890257462,-3,-4,-7,-5,-1,1,-1,-4
1528189890266343,3,-1,1,-5,-1,0,0,-2
1528189890266343,6,-1,-5,0,-1,-2,-2,1
1528189890281339,-16,0,3,1,0,0,0,-1
1528189890281339,-3,-2,-8,-4,-2,-2,-2,-3
1528189890281339,7,-1,-2,-7,-4,-2,-1,0
1528189890281339,-4,0,2,3,0,-1,-4,1
1528189890311631,9,-5,-3,-4,2,0,0,2
1528189890311631,-8,4,2,0,-4,-4,-3,-8
1528189890311631,-2,-1,1,-3,1,2,0,-2
1528189890311631,-2,-2,-3,0,-2,-1,0,-1
1528189890317613,-4,-1,1,0,1,2,0,-1
1528189890317613,6,1,-3,-3,-1,-1,0,5
1528189890325593,-9,-2,0,-1,-1,-2,-1,-10
1528189890325593,0,2,-2,-1,-2,-2,0,-2
1528189890341550,1,-2,-1,-3,0,-2,-1,-2
1528189890341550,0,-3,-1,0,0,-1,-1,2
1528189890348962,1,-1,-3,-4,-4,-1,-2,1
1528189890348962,-4,0,0,2,0,1,-1,-2
1528189890364236,-3,-1,0,0,-2,1,0,-4
1528189890364236,1,-4,-2,-1,-1,-3,-3,-2
1528189890364920,-1,-2,0,-4,-3,-3,-2,1
1528189890364920,0,-2,-1,-1,-3,0,-1,-2
1528189890378237,5,-2,-2,0,-3,-1,-1,3
