timestamp,emg1,emg2,emg3,emg4,emg5,emg6,emg7,emg8
1529295405218874,3,8,0,-3,25,6,-1,-2
1529295405218874,5,0,-8,-5,-23,6,2,4
1529295405219871,-3,11,25,10,34,-10,-4,-2
1529295405219871,-1,-18,-6,1,-2,-10,-1,-1
1529295405222880,-6,-3,-3,1,-16,-7,-2,-2
1529295405222880,3,19,4,1,23,3,-2,1
1529295405223860,1,-4,-8,-4,-12,0,0,1
1529295405223860,-1,2,5,-4,-27,1,-1,0
1529295405229844,-6,5,17,1,3,-4,-1,-1
1529295405229844,-3,-13,-19,-11,-1,2,0,-2
1529295405236826,-2,-7,-19,-6,-7,1,-2,-4
1529295405236826,3,-6,0,15,11,5,6,2
1529295405248810,-3,12,0,-4,-10,-2,-1,-2
1529295405248810,4,10,25,18,3,0,-1,-2
1529295405259765,3,-1,-6,14,25,7,0,1
1529295405259765,0,0,23,0,-17,-3,-3,0
1529295405267743,-6,12,21,-8,-13,-3,-1,-2
1529295405267743,-2,-19,-38,-7,5,-11,-1,-2
1529295405281706,0,-14,-26,-19,-39,-4,-1,-1
1529295405281706,0,3,-5,3,22,1,0,1
1529295405291679,-4,-3,3,-22,-25,0,0,0
1529295405291679,-1,11,-8,12,28,-1,-2,-5
1529295405296665,6,5,30,10,-20,-1,1,0
1529295405296665,1,5,-13,2,3,0,-1,-1
1529295405344537,1,0,-8,-1,-1,-3,2,1
1529295405344537,-3,8,-1,-1,14,0,1,-1
1529295405344537,-2,-6,12,27,33,1,-2,-2
1529295405344537,-1,-18,-24,-26,-29,-4,-2,-1
1529295405346533,-1,-3,-4,13,-7,-5,-4,-3
1529295405346533,3,3,-5,-4,-4,5,2,1
1529295405349524,0,17,22,23,20,-5,0,0
1529295405349524,2,8,12,2,17,11,1,1
1529295405356506,-4,-8,-13,-56,-46,-8,-1,1
1529295405356506,-2,-8,0,50,20,-1,-2,-3
1529295405365482,2,-3,-8,11,11,-1,-3,-2
1529295405365482,-2,-3,-9,-12,1,-1,0,-4
1529295405371500,2,8,-1,-5,25,8,0,-2
1529295405371500,-3,-24,-1,-18,-16,1,0,-1
1529295405386425,6,3,-22,-9,-23,-4,-3,-1
1529295405386425,2,14,26,23,23,-1,2,4
1529295405393441,0,-7,-4,5,-9,8,5,3
1529295405393441,13,23,25,-24,3,3,4,6
1529295405402383,-5,-12,7,40,23,-1,0,1
1529295405402383,-3,-5,-25,-5,-35,-2,-7,-7
1529295405416347,3,13,28,-4,37,-8,-1,1
1529295405416347,-2,5,1,6,-37,-14,-9,-6
1529295405426320,1,-9,-19,-58,18,13,6,4
1529295405426320,-8,-11,-6,20,31,-16,-2,0
1529295405431344,-3,-1,-1,20,-26,1,-3,-6
1529295405431344,-2,-22,-30,-31,-9,-6,-2,-1
1529295405446266,-3,-1,2,-27,-49,-10,-4,-4
1529295405446266,1,11,4,2,-24,-6,0,-1
1529295405454244,-2,-8,10,5,-7,0,-2,-2
1529295405454244,9,14,-1,6,37,7,2,4
1529295405463221,-7,-9,-7,-9,-24,-9,-1,-3
1529295405463221,-2,-6,1,4,10,15,0,0
1529295405478210,-3,11,12,16,31,1,-2,-3
1529295405478210,-5,7,2,-25,-31,3,-2,-5
1529295405485161,-6,-9,-7,2,5,-2,0,0
1529295405485161,8,8,3,-16,-21,-1,1,0
1529295405491146,-4,-5,-8,16,-4,3,-5,-3
1529295405491146,-9,-20,-16,11,9,-10,-7,-4
1529295405515081,-2,6,-1,-37,-36,12,-1,0
1529295405515081,-5,-13,-7,-3,4,-2,10,-1
1529295405515081,6,0,0,19,-1,-1,-21,3
1529295405515081,-9,-6,-7,-8,-19,-6,-1,0
1529295405523061,7,19,11,11,30,3,-5,-7
1529295405523061,8,14,13,20,34,-1,11,1
1529295405536027,-4,-9,-7,-37,-22,-8,-14,-5
1529295405536027,-4,1,3,16,18,-2,2,-3
1529295405545001,-7,-10,-4,30,1,-2,-5,-2
1529295405545001,2,11,5,-27,-9,-2,-14,2
1529295405551983,-1,7,7,62,56,7,38,1
1529295405551983,-8,-18,-20,-54,-24,-9,-7,-5
1529295405565946,1,4,7,-6,-15,4,6,-1
1529295405565946,0,-5,2,17,12,5,-2,0
1529295405573924,1,-3,-19,-20,-13,-4,-2,-2
1529295405573924,-2,10,14,0,11,11,3,2
1529295405588884,8,-14,-11,7,0,-8,9,0
1529295405588884,-5,33,18,-26,-6,6,-4,1
1529295405595867,-6,-16,-12,-12,-19,6,6,-1
1529295405595867,2,7,12,23,-1,-8,7,3
1529295405605001,1,11,12,10,4,0,-17,5
1529295405605001,3,-12,-11,-20,-20,-4,-13,-6
1529295405610984,-6,-19,-8,-14,0,3,3,5
1529295405610984,5,11,10,31,24,4,3,2
1529295405625982,3,2,2,-8,-21,4,30,6
1529295405625982,6,-16,-9,4,-9,-5,2,3
1529295405633949,-14,1,8,2,9,0,-42,-1
1529295405633949,1,1,-9,0,-1,-14,-7,-5
1529295405642899,-3,-5,-4,-11,-2,-8,-7,0
1529295405642899,-9,-4,2,25,12,-2,10,-6
1529295405656884,13,4,-1,-24,-26,-4,30,0
1529295405656884,4,-19,-10,7,-11,-5,-29,4
1529295405664880,3,24,14,6,35,1,-10,-1
1529295405664880,-6,-7,-4,-7,-8,15,2,3
1529295405671823,3,-10,1,6,23,1,10,-1
1529295405671823,-8,-6,-2,-2,-43,14,0,-10
1529295405686782,2,1,-4,1,25,-9,11,1
1529295405686782,6,5,8,-1,8,-14,-10,2
1529295405693765,4,-3,4,33,36,9,1,1
1529295405693765,-7,-13,-14,-32,-12,13,11,-1
1529295405702740,4,-1,-9,-39,-51,0,-26,-3
1529295405702740,2,-5,-10,2,21,4,26,-1
1529295405716704,2,23,9,-12,-47,-17,-21,-3
1529295405716704,2,2,7,20,39,13,18,4
1529295405725676,-6,-22,-8,-9,-2,-6,-5,-5
1529295405725676,2,8,-7,2,-39,-11,-13,2
1529295405731661,7,-1,-5,-9,24,7,9,-8
1529295405731661,5,3,4,18,-36,-5,4,-2
1529295405746621,-1,-3,-1,-30,-41,-11,9,-1
1529295405746621,0,-2,1,22,24,4,-9,0
1529295405753602,1,-3,-5,9,5,-15,-16,1
1529295405753602,-3,7,11,-4,-21,-1,-6,-3
1529295405768563,-9,-14,-7,15,-16,-2,0,2
1529295405768563,-5,-5,-1,-8,37,2,3,1
1529295405776544,-3,1,-2,-22,-30,1,5,1
1529295405776544,-4,-9,1,2,37,1,1,4
1529295405785519,-3,2,-10,15,-10,4,0,-2
1529295405785519,5,11,4,-25,-65,-5,0,-4
1529295405791503,-1,4,2,-10,19,-10,-6,0
1529295405791503,3,-3,-3,2,25,4,6,1
1529295405806461,-6,-4,-1,26,36,3,12,1
1529295405806461,-4,-21,2,21,77,32,-31,-8
1529295405813442,-4,39,23,-28,-66,10,4,3
1529295405813442,20,15,9,20,29,4,3,9
1529295405828403,-16,4,1,-14,-13,-1,-5,-4
1529295405828403,-6,-14,-15,-6,-12,1,13,1
1529295405836381,5,-7,2,10,19,-5,1,3
1529295405836381,4,32,12,-9,-41,-5,-3,0
1529295405845357,0,1,1,18,9,1,-5,-1
1529295405845357,-1,-3,-1,-8,-14,-18,2,0
1529295405851341,-3,-16,-21,-1,-5,0,4,-2
1529295405851341,-3,-1,10,15,5,-11,-3,-3
1529295405866301,7,10,10,-15,-18,5,2,0
1529295405866301,2,12,14,16,-37,-7,5,2
1529295405874290,-4,-7,-12,14,63,17,4,-1
1529295405874290,3,-13,-11,-15,-13,-1,-4,-2
1529295405889240,1,-9,-10,1,14,9,7,-4
1529295405889240,1,-8,-7,-14,-3,-9,-23,5
1529295405896260,-2,-16,2,52,19,1,-3,-4
1529295405896260,2,-12,-14,-81,-63,-12,-1,1
1529295405905197,-18,-5,-1,13,18,-1,-7,-8
1529295405905197,-19,-21,-23,-6,-6,-11,-3,-20
1529295405911181,1,-8,-4,-5,-18,-4,2,1
1529295405911181,-3,0,-4,15,35,6,-2,0
1529295405926525,8,8,8,-9,-8,-2,1,-2
1529295405926525,-2,-5,-7,-13,-10,3,7,0
1529295405933815,-2,0,-3,-1,13,-3,-2,-2
1529295405933815,-11,-7,4,-21,-45,-5,4,-4
1529295405948758,2,-3,5,58,58,10,-2,0
1529295405948758,2,13,18,1,13,6,8,6
1529295405956614,-2,2,-5,-12,-38,-10,-3,-2
1529295405956614,-6,-3,-14,-13,12,1,1,0
1529295405965592,4,-4,-3,0,10,0,0,2
1529295405965592,2,6,12,10,17,2,0,0
1529295405971573,1,10,5,-9,-7,2,7,1
1529295405971573,-5,-1,6,34,16,-1,-5,0
1529295405986540,3,2,-4,-16,-5,-3,-1,0
1529295405986540,3,5,0,9,11,7,3,0
1529295405993542,-6,-7,-7,-19,-22,-2,-1,0
1529295405993542,2,4,0,-10,42,1,3,-2
1529295406008523,9,2,2,-9,-25,-2,5,8
1529295406008523,-18,-4,-8,2,-8,-10,-26,-5
1529295406016453,-1,0,-2,5,3,1,-3,0
1529295406016453,2,6,6,-11,-3,-2,-9,-1
1529295406025431,2,-2,-5,-31,-13,-3,-2,-4
1529295406025431,3,-1,-1,12,3,1,6,-1
1529295406039426,-1,-2,-14,-9,16,13,9,1
1529295406039426,-2,-1,8,2,-8,-12,-6,-4
1529295406046431,1,8,10,26,4,0,0,0
1529295406046431,3,-3,-9,-22,-6,1,3,1
1529295406054351,2,10,21,0,-12,-2,-4,-2
1529295406054351,-7,-12,-11,16,12,12,9,0
1529295406069346,1,3,-7,-8,-1,-26,-15,-3
1529295406069346,0,-1,-12,-17,-6,-17,3,1
1529295406076348,1,3,11,-22,-19,2,1,1
1529295406076348,-1,-1,0,42,22,-2,-1,-1
1529295406085289,-4,-5,-7,-25,9,8,4,1
1529295406085289,2,3,2,-14,-17,6,6,2
1529295406099285,-2,-7,-11,26,4,17,5,2
1529295406099285,1,5,-2,-6,14,-33,-14,-1
1529295406106266,-2,-2,-1,18,11,11,3,2
1529295406106266,6,4,7,-5,20,5,19,3
1529295406114247,-2,-2,-5,-12,-2,-1,-14,-2
1529295406114247,3,6,10,12,0,17,6,1
1529295406129205,-1,0,3,1,-12,0,-8,-4
1529295406129205,-4,-3,0,-5,-8,-5,2,1
1529295406136174,-1,1,7,24,28,-1,5,0
1529295406136174,-3,-6,-13,-15,-41,3,1,-2
1529295406145110,-1,-4,-5,-17,-7,-12,-5,-2
1529295406145110,4,6,15,25,13,8,-2,0
1529295406159075,0,5,6,-18,-19,-18,-5,-5
1529295406159075,1,1,3,-10,4,5,2,6
1529295406166053,-4,-6,-2,19,46,15,3,-1
1529295406166053,-1,-1,2,-12,-20,21,5,-1
1529295406174034,-5,-4,-9,7,24,-14,-8,-6
1529295406174034,6,5,2,2,-9,-3,2,0
1529295406188992,-6,-3,3,0,-11,4,1,0
1529295406188992,3,1,3,8,25,1,0,0
1529295406195973,0,3,-5,-9,-19,-4,0,1
1529295406195973,-1,-1,-3,-3,5,10,19,6
1529295406204949,-4,-1,5,14,6,-5,-25,-7
1529295406204949,4,-3,-7,-3,-10,-3,-4,-2
1529295406219910,4,5,6,5,14,6,5,2
1529295406219910,-3,2,-3,-12,-28,-5,0,-3
1529295406227903,6,0,4,20,-2,0,10,3
1529295406227903,-5,-8,-9,-28,-55,-17,-11,-5
1529295406233874,-4,-3,-6,1,39,9,-5,-2
1529295406233874,1,2,7,23,31,9,-3,-1
1529295406248833,-2,-3,-7,-20,-31,-10,0,0
1529295406248833,-6,-1,-1,1,23,10,0,-1
1529295406264790,4,-1,-3,5,-7,-5,0,-1
1529295406264790,1,0,-1,-1,-16,6,-4,-5
1529295406266794,1,4,5,-3,-4,-2,4,3
1529295406266794,8,5,5,20,5,-4,8,4
1529295406279756,-4,-4,0,-8,10,-2,-14,-5
1529295406279756,-4,-2,-3,-7,-8,-2,-1,-1
1529295406286758,6,2,-1,2,6,6,1,0
1529295406286758,-11,-4,-4,-4,-12,-3,-2,1
1529295406293767,17,12,15,22,15,-2,4,6
1529295406293767,-3,-5,-2,-6,18,-6,-12,-7
1529295406310667,7,1,-3,9,8,2,5,19
1529295406310667,19,-1,-8,-44,-52,-8,-3,-17
1529295406316696,-23,-4,1,-6,-17,-3,7,-4
1529295406316696,2,3,4,26,14,1,-1,-4
1529295406340586,-1,7,9,-1,2,-4,3,1
1529295406340586,2,-1,-2,-3,14,-3,-5,6
1529295406340586,-3,-3,-5,-8,-29,-3,1,0
1529295406340586,1,1,2,8,6,-1,0,3
1529295406354602,-1,-1,0,-23,-4,8,1,-2
1529295406354602,-8,1,3,20,24,3,1,-1
1529295406355548,6,-1,-1,-14,-31,3,1,-3
1529295406355548,-13,-6,-6,5,-4,14,5,-1
1529295406378486,6,-1,-6,-13,-6,-4,-1,-1
1529295406378486,0,-1,-1,15,2,-8,-25,-7
1529295406379484,-4,-1,-6,-14,11,2,4,4
1529295406379484,14,6,12,35,14,12,8,5
1529295406391452,-7,-3,-5,-34,-27,-10,-9,-7
1529295406391452,-5,2,-2,3,-13,-6,3,0
1529295406399484,9,-4,-1,2,1,1,0,3
1529295406399484,-4,-1,-6,-16,-7,-4,-4,-3
1529295406414435,-3,1,-1,14,31,4,3,-4
1529295406414435,-15,2,5,8,2,-2,-4,1
1529295406415388,4,4,3,4,-26,-2,3,-1
1529295406415388,6,0,-3,10,43,-4,-6,0
1529295406430367,-1,-6,-2,1,-18,1,1,-1
1529295406430367,-5,-5,0,5,18,4,4,2
1529295406436383,-7,-4,-5,-4,7,-1,-1,-3
1529295406436383,-2,-2,-5,-15,-17,-7,-3,-2
1529295406451345,4,8,8,-12,-2,1,6,2
1529295406451345,3,-2,0,30,33,-6,8,0
1529295406459324,-1,-3,0,8,26,3,-2,-3
1529295406459324,0,-2,-4,-22,-59,-14,-6,0
1529295406474230,-4,-5,-9,-7,-3,0,-4,-3
1529295406474230,-1,1,-3,3,17,10,6,1
1529295406475227,5,3,7,1,3,0,0,3
1529295406475227,-6,-5,-11,-30,-26,-11,-3,-1
1529295406489240,1,5,16,23,4,3,8,4
1529295406489240,-9,-3,-8,-8,-5,-3,-6,-3
1529295406505197,11,-4,-6,-5,-9,1,4,1
1529295406505197,-22,-3,2,4,27,2,-4,-6
1529295406513126,5,0,-2,2,-8,-12,-2,-2
1529295406513126,6,4,6,3,9,2,2,2
1529295406519110,-5,-3,-2,-11,-12,-6,-7,-4
1529295406519110,-1,-1,3,11,13,6,9,2
1529295406534070,-3,-5,-7,-12,-52,-12,-8,-5
1529295406534070,0,3,1,2,2,0,1,1
1529295406535070,2,0,3,8,-18,1,2,1
1529295406535070,3,-4,-5,3,18,2,12,5
1529295406549031,-2,0,2,6,16,5,-15,-5
1529295406549031,11,6,5,-8,-32,-1,1,3
1529295406556012,-9,-2,-3,0,17,-5,-5,-6
1529295406556012,4,2,2,6,30,9,6,-1
1529295406572967,-6,-8,-15,-19,-25,-4,-2,-7
1529295406572967,-1,-1,0,4,5,3,2,-2
1529295406579963,0,1,1,2,6,2,-1,0
1529295406579963,1,3,4,-2,-1,-3,-5,0
1529295406594907,1,1,-1,3,15,2,3,2
1529295406594907,-3,-3,-2,0,4,-2,-4,-2
1529295406594907,-5,-5,-5,1,0,-1,1,-1
1529295406594907,3,-1,0,-3,-8,-2,-6,-3
1529295406608900,-3,-2,-3,2,8,-1,0,-2
1529295406608900,3,0,0,-3,-9,-3,0,-1
1529295406616849,-3,-1,-1,-3,-4,-1,3,2
1529295406616849,7,3,3,6,22,-5,1,5
1529295406631808,-5,-4,-3,5,-16,-5,-6,-6
1529295406631808,-5,-3,0,-1,19,3,-1,1
1529295406639823,1,-1,-2,-3,-7,-2,1,1
1529295406639823,3,4,3,2,9,4,-1,1
1529295406654804,-3,-3,-1,0,11,9,6,-1
1529295406654804,1,-1,0,-5,-13,-8,-1,-2
1529295406655798,-2,-2,2,11,11,7,-3,1
1529295406655798,-2,-1,-1,-8,-25,-4,0,-3
1529295406668767,-5,-5,-5,-6,-3,-10,-4,0
1529295406668767,0,-2,-2,-4,-10,-4,-4,0
1529295406676736,1,2,0,-5,1,-5,-2,2
1529295406676736,-2,0,3,8,-3,6,-1,-2
1529295406691676,4,2,0,2,9,7,24,6
1529295406691676,-2,-1,-2,0,2,6,-13,-8
1529295406699682,-1,0,0,-1,-7,-6,9,12
1529295406699682,-5,-5,-5,-2,0,-5,-17,-27
1529295406714588,-1,0,0,-11,-29,-1,1,-5
1529295406714588,-2,-5,-5,-2,2,-11,0,0
1529295406715585,6,3,2,-1,-11,-1,-2,-2
1529295406715585,-6,-4,-5,-2,-7,-1,5,12
1529295406728550,1,0,3,8,21,-2,-3,5
1529295406728550,-2,-1,2,0,0,4,3,0
1529295406736528,-3,-3,-1,-2,-6,-3,-6,-8
1529295406736528,0,-3,-2,-4,0,-6,-1,3
1529295406751627,-1,0,2,4,11,3,-6,-4
1529295406751627,3,2,-2,-11,-11,2,4,6
1529295406759605,-4,-2,-1,20,34,-6,-1,-3
1529295406759605,0,-1,0,-6,-16,-1,-1,-2
1529295406774428,0,5,3,8,24,3,-2,4
1529295406774428,0,-1,0,-9,-43,-5,2,-4
1529295406782566,-2,2,-2,3,15,1,-5,-3
1529295406782566,-1,-3,0,-7,-7,1,-1,-1
1529295406788759,1,-1,-3,-1,-4,2,-2,-1
1529295406788759,0,2,7,15,25,1,3,4
1529295406796732,0,2,-5,-13,-12,2,-1,-2
1529295406796732,0,-2,-2,-3,-16,-8,-1,2
1529295406811690,-2,-1,-3,-5,10,6,4,2
1529295406811690,0,-1,0,-1,3,4,0,-2
1529295406819650,-3,-4,-1,0,-14,-4,-2,-3
1529295406819650,1,0,-4,-2,12,4,1,4
1529295406834613,2,1,2,-2,-5,-3,-1,0
1529295406834613,0,-2,-2,3,11,0,0,0
1529295406835467,0,0,0,-6,-10,-2,-1,-2
1529295406835467,1,1,0,1,3,-1,-2,0
1529295406849461,-2,-1,3,3,1,-2,-6,-4
1529295406849461,-2,1,3,8,-1,-1,-1,-2
1529295406856569,-1,-3,-5,-6,3,0,-3,-2
1529295406856569,0,1,-7,-19,1,0,0,-1
1529295406871385,1,1,13,25,12,5,4,4
1529295406871385,0,1,2,5,8,-4,-4,-2
1529295406879353,-3,-4,-3,-13,-36,-10,0,-1
1529295406879353,2,4,6,6,-7,1,2,2
1529295406894474,-1,-6,-5,-2,7,10,4,-1
1529295406894474,-1,-5,-5,-6,1,-2,-3,0
1529295406895307,1,-2,-3,11,14,2,0,1
1529295406895307,-1,3,3,-8,-4,-3,-1,0
1529295406909450,-1,3,0,-4,-8,-1,-1,-1
1529295406909450,1,-2,0,-2,1,2,1,-2
1529295406916412,1,1,1,0,0,-2,0,1
1529295406916412,-3,-3,-5,3,-4,2,-1,-2
1529295406931370,0,1,-2,-5,-5,-8,-5,-1
1529295406931370,-2,3,2,1,3,4,-1,1
1529295406940187,-1,-2,-5,-7,-5,-6,-3,2
1529295406940187,-1,-3,4,8,1,-4,-1,0
1529295406955170,1,1,0,1,2,-2,-3,0
1529295406955170,-3,-4,-6,-8,-4,-2,1,-1
1529295406955170,0,3,1,-1,-1,1,0,-1
1529295406955170,-2,-1,2,6,0,-3,-2,-2
1529295406969266,1,6,4,-7,-3,-3,-2,-1
1529295406969266,1,-7,1,8,-2,0,-3,-2
1529295406976250,-2,4,4,5,4,2,1,-2
1529295406976250,-1,-6,-13,-13,-3,0,5,0
1529295406991051,-2,7,2,8,0,-1,-2,-2
1529295406991051,0,-9,-1,-6,7,0,0,-1
1529295407000126,3,2,24,24,-9,-1,-2,2
1529295407000126,1,4,-2,-4,-6,-1,-1,0
1529295407013995,1,-2,-8,-10,-4,-2,-2,-1
1529295407013995,-2,1,-5,-5,-4,-1,3,1
1529295407022108,-2,-7,-11,-7,6,3,-2,-2
1529295407022108,-1,-5,1,2,2,1,-2,-1
1529295407029090,-2,-5,-3,-4,-10,-2,-2,0
1529295407029090,0,9,0,1,-2,-2,-2,-2
1529295407036960,0,-1,0,-6,3,0,1,-1
1529295407036960,1,0,0,1,4,-7,-2,1
1529295407060028,-3,-9,-4,5,8,-4,-2,-1
1529295407060028,-1,0,-2,-1,-4,1,1,-1
1529295407060865,-1,3,-3,-4,1,2,0,0
1529295407060865,0,7,4,1,-1,1,1,2
1529295407073837,1,-9,-1,-1,-2,1,1,0
1529295407073837,-1,-11,-11,-4,-2,-1,0,0
1529295407081968,-1,2,0,-1,-2,-1,1,-1
1529295407081968,2,1,8,7,-1,8,-1,0
1529295407088946,-1,2,-2,-2,-4,-6,-1,0
1529295407088946,-2,1,1,-6,1,1,-1,0
1529295407096103,-4,-6,-14,-10,3,-1,-1,-2
1529295407096103,3,7,3,9,-4,0,-3,-1
1529295407111226,1,3,-2,0,2,-1,-1,2
1529295407111226,-1,-4,-1,0,-1,-2,1,1
1529295407120169,-2,-1,8,2,10,0,1,-2
1529295407120169,-2,-8,-10,-5,-5,-2,-1,-3
1529295407134159,-3,0,4,0,-3,1,-1,-3
1529295407134159,-1,11,0,2,-1,-2,0,-1
1529295407141997,0,-5,-3,1,1,1,-1,2
1529295407141997,-1,-1,1,0,6,-1,-4,-1
1529295407149120,-1,2,0,-2,-1,1,-1,0
1529295407149120,0,2,0,-7,-10,1,-1,-1
1529295407156100,-2,0,-2,9,9,2,-1,-1
1529295407156100,3,1,-2,1,1,-9,-7,0
1529295407171998,-1,-1,0,2,8,0,1,0
1529295407171998,0,0,3,3,3,-2,-1,-1
1529295407180040,0,1,0,-5,-9,-2,-2,-1
1529295407180040,-4,-7,-2,-1,2,1,2,-2
1529295407194001,-1,-1,-11,-4,-2,1,1,-2
1529295407194001,2,-6,10,2,1,-1,1,1
1529295407201833,2,6,0,-1,-3,0,2,0
1529295407201833,-1,0,-9,0,-1,2,1,1
1529295407216964,-1,3,14,-1,-7,0,-2,0
1529295407216964,-1,-3,-9,-1,0,2,1,1
1529295407217961,0,-2,2,-2,-7,-2,-1,-1
1529295407217961,-2,-4,-3,-3,-15,-4,-1,-2
1529295407231955,0,-2,-4,-3,0,-1,-3,-1
1529295407231955,0,0,0,1,2,-1,-2,-2
1529295407240043,-3,-4,-2,-2,0,1,-1,-1
1529295407240043,0,2,2,-1,8,0,0,-2
1529295407253866,1,-14,-5,1,-4,-4,0,-2
1529295407253866,0,-1,-3,-2,-5,-1,-1,-2
1529295407261844,0,-1,-14,-2,12,1,0,0
1529295407261844,0,0,17,2,-2,0,1,2
1529295407276960,-2,7,5,0,0,2,-2,0
1529295407276960,-6,-23,-6,-3,5,1,0,-1
1529295407277801,2,22,-3,-4,-20,-4,-4,-1
1529295407277801,1,-3,0,0,3,2,1,1
1529295407291964,-1,-2,-3,0,2,2,1,0
1529295407291964,-1,3,0,2,0,0,-1,2
1529295407300171,-3,-9,-1,-1,4,-1,-1,-1
1529295407300171,-3,-2,-2,0,16,0,0,-2
1529295407314131,1,2,1,-4,-19,0,1,-1
1529295407314131,0,1,-2,1,-4,-2,-1,-1
1529295407329936,-2,-3,4,-1,-2,-1,-1,0
1529295407329936,-1,6,-2,2,17,1,1,1
1529295407336914,0,-6,-4,-2,-15,-4,-1,0
1529295407336914,1,4,1,0,6,0,-1,-2
1529295407337912,0,-3,3,0,0,-1,0,0
1529295407337912,0,-3,-2,0,-2,0,-1,-3
1529295407351954,-1,-1,-3,-3,7,1,-1,-1
1529295407351954,1,5,3,-1,-5,-2,-1,2
1529295407359856,-1,-3,1,0,2,-1,-1,0
1529295407359856,-2,-4,-3,-2,-10,-2,1,0
1529295407373825,-1,1,-1,0,12,3,1,0
1529295407373825,-1,4,-1,-1,-6,-4,-1,-1
1529295407381796,-3,-6,-3,-4,-24,-2,-2,-1
1529295407381796,0,-1,-1,-2,-5,-1,-2,-1
1529295407396912,0,-1,0,-1,1,-2,-1,-1
1529295407396912,-1,1,0,-2,10,1,0,-1
1529295407397751,-1,-3,-1,0,4,0,1,0
1529295407397751,-1,-1,-1,-1,-8,0,-1,-1
1529295407410963,-2,1,-1,0,-1,-1,-1,-1
1529295407410963,-2,-1,-1,1,1,1,-1,-3
1529295407419906,-1,-1,1,0,3,0,0,0
1529295407419906,0,2,-2,-2,-17,-5,-2,1
1529295407433870,1,0,0,2,47,9,0,1
1529295407433870,-1,-1,0,-8,-44,-8,-4,-2
1529295407441849,1,0,0,0,4,0,1,1
1529295407441849,-1,-1,-1,1,1,0,1,1
1529295407456815,0,-1,-1,0,-5,-3,0,-3
1529295407456815,1,2,-2,1,6,0,0,-1
1529295407457806,1,-1,-2,-2,3,0,-1,-3
1529295407457806,-1,-1,-2,-3,0,-4,-3,-3
1529295407471907,0,0,1,-2,-11,-1,2,-2
1529295407471907,0,-1,-1,3,14,4,1,1
1529295407479902,0,-1,0,1,3,-1,2,0
1529295407479902,-1,-1,-1,1,1,0,2,-1
1529295407493740,-1,0,-1,0,-4,-10,-3,-1
1529295407493740,-1,0,0,0,5,6,0,1
1529295407502883,-1,-2,0,1,9,-1,-1,0
1529295407502883,0,-1,-2,0,-1,-1,-2,-1
1529295407516955,-1,0,1,-2,-8,-2,1,-1
1529295407516955,0,0,0,0,4,-2,-1,0
1529295407525844,-1,-2,0,0,-2,-2,0,-3
1529295407525844,0,-1,-1,0,2,1,0,-2
1529295407531945,0,-2,-1,-1,-7,-2,0,-2
1529295407531945,1,-1,0,0,3,-3,0,0
1529295407540782,1,-1,-2,-2,-4,0,0,1
1529295407540782,-4,-8,-7,-5,-6,-3,-1,-1
1529295407553885,-2,3,-1,-1,1,0,0,2
1529295407553885,-1,5,8,3,1,1,2,3
1529295407562926,2,1,1,0,-1,-1,-1,1
1529295407562926,0,0,0,0,4,2,0,-1
1529295407576972,-4,-4,-2,-3,-6,-1,-1,-1
1529295407576972,-1,-3,-3,-2,4,1,-2,-3
1529295407585020,-2,-1,1,6,4,0,-2,-1
1529295407585020,-2,-2,0,-4,-14,-1,-1,1
1529295407590938,0,-3,-2,0,2,1,0,2
1529295407590938,1,-1,-1,1,-3,-2,-2,-1
1529295407599944,-1,0,1,-2,-2,0,0,-2
1529295407599944,0,-1,1,1,7,0,-1,-2
1529295407613876,0,0,1,2,4,-1,-1,0
1529295407613876,-1,0,-3,-4,-20,-3,0,-1
1529295407622853,-2,-2,-2,1,4,0,0,-2
1529295407622853,1,1,0,1,1,-1,-1,0
1529295407635819,-1,1,0,1,12,2,1,1
1529295407635819,-2,-1,-2,-1,-19,-7,0,0
1529295407645790,-2,0,-3,-2,-5,1,-1,0
1529295407645790,0,0,1,-1,-1,1,0,0
1529295407651775,0,0,1,-2,-1,0,-2,-1
1529295407651775,0,-3,-1,-1,8,-1,-1,-1
1529295407660751,-1,1,0,-2,0,-2,-1,1
1529295407660751,-1,1,-1,0,4,1,0,2
1529295407673716,0,0,-2,-1,-8,-2,0,0
1529295407673716,-1,0,-1,-1,7,0,1,-1
1529295407682691,-1,-1,0,-2,-4,-2,0,-1
1529295407682691,-2,1,1,3,7,0,0,-1
1529295407696655,-1,1,-2,-4,-11,-2,-2,-2
1529295407696655,-3,-3,-2,0,3,-1,-1,-3
1529295407705631,-1,-2,0,-1,0,-1,0,0
1529295407705631,1,0,-1,1,1,-1,0,1
1529295407711774,0,-1,0,-1,-2,0,-1,-3
1529295407711774,0,1,-2,-2,2,0,-2,0
1529295407720591,-1,0,-2,-1,0,-2,-2,-2
1529295407720591,-1,0,0,-2,-3,0,1,0
1529295407733750,-3,0,-1,0,-3,0,-1,0
1529295407733750,-1,0,-1,1,5,0,-1,2
1529295407742725,0,0,-1,-1,-1,0,0,0
1529295407742725,1,-1,-2,-1,-2,-2,-1,0
1529295407756723,0,1,0,-1,-1,-1,0,0
1529295407756723,0,1,-1,0,1,-1,0,0
1529295407765043,-2,0,-1,0,0,-1,-1,1
1529295407765043,-1,1,-1,0,0,-2,-1,-1
1529295407771201,0,-3,1,1,0,0,-1,-2
1529295407771201,-2,-1,0,0,2,0,-2,-3
1529295407780039,-1,-1,1,-2,-3,-1,0,-3
1529295407780039,0,-2,0,-1,0,-1,-1,-2
1529295407794208,0,-2,-1,0,1,-1,-1,0
1529295407794208,1,-1,-1,0,1,0,0,-1
1529295407803154,1,-2,-1,-1,-1,2,0,0
1529295407803154,0,0,0,-1,0,2,1,-1
1529295407816119,-1,-3,-2,-2,-2,0,0,2
1529295407816119,-1,1,1,-1,0,1,0,1
1529295407825099,-1,0,1,0,-1,-1,-2,1
1529295407825099,-1,-1,-2,2,-2,0,-1,-1
1529295407831219,0,-1,1,0,-1,0,0,-2
1529295407831219,-2,-1,0,0,0,-1,0,-1
1529295407840056,-1,-1,-1,-1,0,1,-2,-1
1529295407840056,-1,-1,-1,-1,-2,1,-2,0
1529295407854017,2,-1,0,1,-2,-2,1,0
1529295407854017,-1,0,0,1,-1,0,0,0
1529295407863165,0,0,-2,-1,0,-2,-2,0
1529295407863165,-2,-1,-3,-1,-1,0,-2,0
1529295407876923,-2,0,-2,-1,0,-1,0,1
1529295407876923,0,-2,0,-2,1,0,0,-1
1529295407885968,-2,0,-2,0,-2,-2,0,-1
1529295407885968,0,0,0,-1,-1,-2,0,0
1529295407891886,0,-1,-2,-2,0,0,-1,1
1529295407891886,0,-2,0,0,0,0,0,0
1529295407900200,-1,0,-1,-1,0,-2,0,0
1529295407900200,0,-2,-1,0,0,-2,0,-3
1529295407914324,-1,-2,0,-1,-1,-1,0,-3
1529295407914324,-1,-1,-2,-2,-1,-1,-1,-1
1529295407923353,1,0,0,0,-1,2,-1,-2
1529295407923353,0,0,0,1,0,0,0,0
1529295407936690,-2,0,0,0,0,0,1,-3
1529295407936690,-1,-1,-2,0,1,-1,-2,-1
1529295407945516,1,-2,-2,1,0,0,0,1
1529295407945516,1,0,-2,-1,0,-2,-1,2
1529295407951643,0,-1,0,1,-1,-1,0,3
1529295407951643,-1,0,0,0,-1,0,-1,1
1529295407960472,-1,0,0,0,-1,-1,0,-2
1529295407960472,0,-1,0,-1,1,0,-1,-2
1529295407974424,-1,0,-1,0,-2,-1,-1,-1
1529295407974424,-1,-1,-1,0,-1,0,0,0
1529295407982673,-1,-2,0,-1,-1,-1,-1,0
1529295407982673,-3,-1,1,-1,-1,-1,0,-1
1529295407996535,-2,-1,-2,0,1,0,-2,-1
1529295407996535,-2,1,0,1,-1,-1,0,1
1529295408005686,0,-1,0,0,-2,-2,-1,-1
1529295408005686,-1,0,-1,-1,-2,-2,-3,-2
1529295408011670,2,-1,-1,-1,-1,0,-2,-1
1529295408011670,1,-1,0,0,-1,1,-1,0
1529295408020926,-2,0,-2,-1,-1,-1,1,0
1529295408020926,-3,-2,1,0,1,0,0,-1
1529295408033947,-1,-1,-1,-1,-1,-2,0,-1
1529295408033947,1,-1,-1,-1,-2,-1,-1,0
1529295408042782,-1,0,-1,-1,-1,0,1,3
1529295408042782,-1,-1,-2,0,-1,0,-1,-1
1529295408056185,-1,-1,0,-1,0,0,-1,-1
1529295408056185,-1,1,-2,-2,-1,-1,1,0
1529295408065147,-2,-1,1,-1,-1,0,0,-1
1529295408065147,-1,-2,-2,-3,-1,0,0,0
1529295408072018,-1,-1,1,-2,-1,-1,1,-1
1529295408072018,-1,-1,0,-1,-2,-1,0,-1
1529295408080138,-1,-1,-1,-2,-2,0,-1,-2
1529295408080138,-1,-1,1,1,-3,-1,-1,-2
1529295408094103,-2,0,1,1,-1,1,1,-2
1529295408094103,-1,0,1,0,1,-1,0,-2
1529295408102935,1,-1,0,-2,0,-1,-1,0
1529295408102935,1,-1,-1,-2,-1,0,0,1
1529295408116242,0,-1,0,0,-1,-1,0,0
1529295408116242,-1,0,-1,-1,-1,0,0,-3
1529295408125195,-1,1,-1,0,-2,-1,0,-2
1529295408125195,0,1,0,0,-1,2,1,-2
1529295408140019,0,0,-1,-2,-1,0,-1,-1
1529295408140019,0,-1,0,0,0,0,1,-1
1529295408142013,1,0,0,-1,1,0,-2,0
1529295408142013,0,-1,-1,-1,-2,-1,0,0
1529295408154150,1,-2,-1,0,0,-1,-2,0
1529295408154150,-2,-1,0,0,0,-2,-1,1
1529295408162964,0,-1,-1,1,-2,0,0,0
1529295408162964,0,-1,-1,-2,0,-2,0,-2
1529295408176956,0,0,-2,0,1,-2,1,0
1529295408176956,0,-2,-1,0,-1,-2,-3,0
1529295408183905,-2,-1,1,0,0,1,1,-2
1529295408183905,0,-1,-2,0,0,0,-1,1
1529295408200040,-1,-1,-1,0,-1,0,1,2
1529295408200040,0,-1,-1,0,-2,0,-1,0
1529295408202074,-1,-1,-1,-2,0,0,-1,0
1529295408202074,-1,-2,-1,-2,0,1,0,1
1529295408214075,-1,0,-1,0,-2,-1,-2,0
1529295408214075,-2,-1,1,0,-1,-1,1,0
