timestamp,emg1,emg2,emg3,emg4,emg5,emg6,emg7,emg8
1528452304042285,-1,-1,0,0,0,0,-1,-1
1528452304042285,-1,-1,0,1,-1,-1,-2,-1
1528452304046262,-2,0,0,0,0,0,-1,-2
1528452304046262,0,0,-1,0,-1,0,-1,0
1528452304053243,0,-1,-1,-1,-1,-1,0,-2
1528452304053243,-2,-2,-2,-1,0,-1,-1,0
1528452304061221,-1,-1,-1,-2,0,0,0,-1
1528452304061221,-2,0,0,-1,-1,-2,0,0
1528452304078175,0,-1,-1,-2,-1,0,0,0
1528452304078175,0,-1,-1,-2,0,-1,-1,-1
1528452304084158,0,-2,0,-1,-1,0,1,0
1528452304084158,0,0,-1,-2,-1,0,0,-1
1528452304101113,0,0,1,1,-1,-1,-2,1
1528452304101113,1,-2,-1,0,-1,-2,1,-1
1528452304106100,0,-1,-1,0,0,0,-2,-1
1528452304106100,1,-1,0,0,0,-1,0,0
1528452304129038,0,-1,-2,0,0,0,-1,0
1528452304129038,-1,0,1,-1,0,0,0,1
1528452304139013,0,-1,-1,0,0,-2,-1,-1
1528452304139013,-2,-1,-1,1,-1,-1,-1,-1
1528452304150980,-1,-1,0,0,-1,0,-1,-1
1528452304150980,-2,0,-1,1,-1,1,0,0
1528452304159957,0,0,-3,0,-1,0,0,-1
1528452304159957,-1,-2,0,0,0,-2,-1,0
1528452304165941,0,0,-1,0,0,0,0,0
1528452304165941,-2,1,0,-2,-1,-1,-1,-1
1528452304173919,-1,0,0,-1,-1,-2,-1,1
1528452304173919,0,1,-1,-1,-3,0,1,-1
1528452304180900,0,-2,-1,-1,-1,-2,-1,-2
1528452304180900,1,0,-1,-1,1,1,-1,-1
1528452304189876,-2,0,-2,-2,-1,-2,-2,-1
1528452304189876,-2,0,-1,0,1,0,-1,-1
1528452304210821,0,-2,-1,-1,0,0,-1,0
1528452304210821,-1,-2,0,0,-1,-2,-2,-1
1528452304218799,0,0,0,-1,0,0,-1,-1
1528452304218799,-1,-1,-1,-1,0,-1,-2,-1
1528452304225780,-1,0,-1,0,1,-1,0,0
1528452304225780,0,-1,-1,0,0,-1,0,-1
1528452304233759,0,0,0,-1,0,-1,0,0
1528452304233759,0,0,-1,-1,0,-1,0,-2
1528452304249750,-1,-1,-1,3,1,-2,0,0
1528452304249750,0,-1,0,-3,-2,-2,-2,0
1528452304256707,1,-1,0,-2,-1,-1,-2,0
1528452304256707,-1,-1,0,-1,0,1,-1,0
1528452304263731,-2,0,0,0,-1,-2,-1,0
1528452304263731,-1,0,-1,0,1,-1,-2,-2
1528452304270715,-1,-1,1,1,-1,-1,-1,-2
1528452304270715,0,-2,-1,-1,-1,-1,-1,-1
1528452304278694,-1,0,0,-1,-3,1,0,-2
1528452304278694,1,-1,-1,-1,-1,0,0,-1
1528452304285621,-1,-2,-1,1,0,-2,0,-1
1528452304285621,-1,0,0,0,0,-1,-2,0
1528452304304625,1,-1,0,0,1,0,-1,0
1528452304304625,-4,-1,-2,-3,-4,-3,-3,-4
1528452304308560,-1,0,-1,1,-1,1,1,0
1528452304308560,0,-2,-1,-1,-2,-2,0,0
1528452304323519,-1,1,1,-1,-1,0,0,-1
1528452304323519,1,2,0,0,0,-1,-1,1
1528452304331497,-1,-2,-1,0,-1,-1,-1,-1
1528452304331497,-2,0,0,0,-2,0,0,1
1528452304338481,-1,1,0,-1,-1,0,-2,-1
1528452304338481,0,-1,-1,-1,-1,2,3,0
1528452304354436,-1,0,-2,0,-1,-1,0,0
1528452304354436,1,0,-1,1,2,-1,-1,1
1528452304383359,0,1,0,-1,0,0,-1,-1
1528452304383359,-1,-1,0,-1,-1,0,0,-1
1528452304391338,0,0,-1,-2,-1,-1,-1,-1
1528452304391338,0,-2,-1,-1,-2,-1,-1,-1
1528452304398319,-2,0,-1,-1,0,-1,-1,-1
1528452304398319,0,-1,0,0,0,-1,-1,0
1528452304406298,1,-1,0,0,-1,-1,0,0
1528452304406298,-1,0,0,0,0,-1,0,0
1528452304421259,-2,-1,-1,-2,0,-1,-2,0
1528452304421259,-1,-1,0,-1,-1,-2,-1,-1
1528452304443201,-2,0,-1,-1,0,-1,0,-1
1528452304443201,-1,-1,1,-1,-2,0,-1,-2
1528452304451179,-1,-1,0,0,-2,-2,0,1
1528452304451179,0,-1,-1,0,-1,-2,1,1
1528452304466138,-1,-1,0,-1,-1,0,-1,0
1528452304466138,0,1,-2,-1,-2,-1,-2,-2
1528452304481097,1,-1,-2,1,0,-2,0,-1
1528452304481097,-1,-1,-2,-2,-1,-1,-2,0
1528452304496096,0,-2,-1,-1,0,-1,-2,0
1528452304496096,-2,-1,-2,0,-1,0,-1,0
1528452304504049,2,-1,0,-2,-1,-2,-1,1
1528452304504049,2,-1,0,0,0,0,-1,-2
1528452304518999,-2,-1,-1,-1,0,-1,-1,-2
1528452304518999,-1,-1,-2,0,0,0,-1,1
1528452304533956,-1,0,-1,-1,0,-1,0,0
1528452304533956,1,-1,1,-1,-1,-1,-2,0
1528452304540938,0,-1,-3,1,-1,0,0,0
1528452304540938,0,-1,0,-1,-2,1,-1,0
1528452304555898,-1,-1,-2,-1,-1,-1,-2,-1
1528452304555898,0,2,0,-1,0,-1,-2,0
1528452304563877,-1,0,2,0,-1,1,0,-2
1528452304563877,0,1,-2,0,0,0,0,-1
1528452304578837,1,0,0,0,-1,-2,-1,-1
1528452304578837,0,-1,-1,0,0,0,0,0
1528452304593797,-1,-1,-1,0,-1,-1,-1,-1
1528452304593797,-1,-1,0,-2,1,-3,-1,0
1528452304600779,-1,-1,-1,1,-2,-1,-1,0
1528452304600779,-2,-2,-2,0,-1,-1,-2,0
1528452304615739,-2,0,1,-1,-1,1,-1,0
1528452304615739,0,0,-1,-1,-2,1,0,-1
1528452304630698,1,-2,0,0,-1,-1,0,0
1528452304630698,-1,-1,0,0,-1,-3,1,-1
1528452304653637,-1,-1,0,0,-1,-1,0,0
1528452304653637,0,-1,-1,-1,0,0,-1,-1
1528452304661615,0,-2,-1,-2,0,0,-2,-2
1528452304661615,1,0,0,-1,-2,-1,-3,0
1528452304676594,-1,-2,-1,-1,-1,-1,0,-1
1528452304676594,-1,1,0,-1,-1,-1,-1,-2
1528452304691545,-2,0,-1,-1,1,0,-1,0
1528452304691545,-2,0,0,-1,-1,0,0,-1
1528452304698517,-1,0,0,0,1,-1,-1,0
1528452304698517,1,0,-3,-1,-1,0,-2,0
1528452304706495,-1,0,-2,-2,-1,-1,-1,0
1528452304706495,-1,-1,0,-1,-1,-1,0,0
1528452304728437,0,2,-1,-1,-1,-1,-1,-1
1528452304728437,-1,1,-1,-2,-2,-1,-1,0
1528452304743398,0,0,0,-1,-1,0,-1,-1
1528452304743398,0,-1,-1,-1,0,-1,0,-1
1528452304751375,0,-1,1,0,0,-1,-1,-1
1528452304751375,0,-3,0,0,0,1,0,0
1528452304773318,-2,-1,0,-2,-1,0,1,-2
1528452304773318,0,1,0,-1,0,0,0,0
1528452304781305,-1,0,-1,-1,-1,0,-1,-1
1528452304781305,-1,0,0,-1,1,-2,-2,0
1528452304788276,-2,0,1,-1,0,1,0,1
1528452304788276,0,0,-1,-1,-1,0,0,0
1528452304803237,1,0,-1,-1,-1,-1,1,-2
1528452304803237,-2,-1,0,-2,-1,0,-1,-1
1528452304818197,1,-1,-1,0,1,1,0,0
1528452304818197,-1,-2,-2,0,-1,-2,-1,-1
1528452304826176,0,1,-1,-1,-1,-2,-1,0
1528452304826176,-1,-1,-2,-2,0,1,1,-1
1528452304856096,-2,-1,-1,0,0,-1,0,-1
1528452304856096,0,0,-2,0,0,-3,-1,0
1528452304871056,-3,-2,-2,-2,-1,-1,-1,1
1528452304871056,-1,-1,-2,0,-1,1,-1,-1
1528452304879053,0,0,0,1,1,-1,0,0
1528452304879053,-1,-1,0,0,1,-1,-1,0
1528452304893995,-1,-1,0,0,-1,-1,-2,-2
1528452304893995,1,1,-1,-1,0,-1,-1,1
1528452304930896,0,0,0,0,0,0,-2,-2
1528452304930896,0,0,-2,0,0,-1,-2,-2
1528452304938874,-1,0,0,-1,0,0,-2,0
1528452304938874,-2,-1,0,0,-2,0,-1,-1
1528452304953835,0,-1,-1,1,-1,0,1,0
1528452304953835,-1,0,1,1,-1,-1,-1,1
1528452304960816,2,0,-1,0,0,-1,-1,0
1528452304960816,1,0,0,-1,-3,-1,-1,0
1528452304975776,0,0,1,-2,-1,0,0,0
1528452304975776,0,0,1,-1,0,-2,0,-1
1528452304990778,-1,-1,2,-2,-2,-2,0,-1
1528452304990778,-1,-2,-1,-1,-1,0,-2,-1
1528452304998751,-1,0,-2,0,-1,1,-1,-2
1528452304998751,0,0,-1,1,0,1,-2,-1
1528452305013727,0,0,-1,0,-1,-1,-2,-1
1528452305013727,0,0,0,-1,-1,-2,-2,-1
1528452305020711,0,-2,0,0,0,-2,0,-1
1528452305020711,-2,0,0,0,-1,0,0,0
1528452305043595,-1,-1,1,-1,-1,-1,-1,1
1528452305043595,0,-1,-1,1,0,0,0,-1
1528452305050602,0,0,1,-1,0,-2,0,0
1528452305050602,0,-2,-1,1,0,-2,-1,-1
1528452305073569,0,-1,-1,0,1,1,0,-1
1528452305073569,0,1,0,-1,-1,-2,-1,1
1528452305081548,-1,-1,-2,-1,-1,0,1,-1
1528452305081548,-1,-1,-1,0,0,-1,0,-1
1528452305096508,0,-2,-1,-1,0,0,-1,-1
1528452305096508,0,-1,0,-1,-1,-1,0,0
1528452305103435,-1,-1,-1,1,-2,-1,-1,-1
1528452305103435,1,0,1,0,-1,0,-1,1
1528452305111450,-1,1,-1,0,0,0,-2,-1
1528452305111450,-1,2,0,0,-1,-1,-1,-2
1528452305126411,0,-2,0,-1,0,-2,-2,-1
1528452305126411,-2,-1,-1,-1,-2,0,0,0
1528452305133391,0,1,-1,-1,-1,0,-2,0
1528452305133391,1,-1,0,1,0,-1,0,-1
1528452305156557,-1,0,-2,0,-1,0,-1,0
1528452305156557,-2,-1,1,-1,-1,0,-1,0
1528452305171805,-1,0,-2,0,-2,1,0,-2
1528452305171805,0,-2,-1,0,0,0,1,-2
1528452305201479,0,-2,-1,-1,-2,-1,-2,-1
1528452305201479,-2,0,1,-1,0,-2,-2,-2
1528452305208502,0,0,-1,0,0,1,1,0
1528452305208502,-2,0,-2,-1,-2,-2,-3,-2
1528452305216684,0,1,0,-1,0,-3,-1,-1
1528452305216684,0,-1,-1,-2,0,1,1,-1
1528452305230711,-1,-1,-1,-1,0,1,-1,-1
1528452305230711,-1,0,-1,-1,-1,0,-1,-1
1528452305238686,0,0,-1,0,1,-2,-2,1
1528452305238686,-1,-2,-1,-1,0,0,0,-2
1528452305245667,-1,-1,-2,-2,1,-1,0,0
1528452305245667,0,-2,-1,0,0,0,0,-2
1528452305261892,-2,0,0,0,0,1,-1,0
1528452305261892,0,0,-2,-1,-1,1,-2,0
1528452305276747,-1,-1,0,-1,-3,-1,-1,-1
1528452305276747,1,-1,-1,-2,-1,-1,-1,-2
1528452305283808,0,-2,-2,-2,0,0,-2,-1
1528452305283808,0,0,6,4,-2,0,-2,-1
1528452305298796,-1,-1,-7,-1,-2,-2,-2,-1
1528452305298796,-2,-4,-12,-7,-1,-2,0,-1
1528452305306776,0,0,10,2,-1,0,-1,-1
1528452305306776,1,1,-1,-6,0,0,-2,0
1528452305321735,0,-5,-5,-1,-1,0,-1,0
1528452305321735,-1,-1,-2,-1,0,1,1,-1
1528452305336684,-1,-1,0,-1,2,-1,0,0
1528452305336684,-1,-1,-2,1,0,-1,-2,-1
1528452305343672,2,0,0,-1,0,-2,-1,-1
1528452305343672,2,0,3,-1,-1,-1,1,0
1528452305359390,0,0,-2,-2,0,-1,0,0
1528452305359390,0,-1,2,0,1,1,0,-1
1528452305366609,0,0,1,-1,0,-1,-1,-1
1528452305366609,-1,-2,-2,0,-2,0,0,0
1528452305381337,-1,-1,-2,-2,-1,0,-1,-2
1528452305381337,0,1,3,1,-2,-1,-2,0
1528452305388287,-1,1,-2,-1,-1,0,1,0
1528452305388287,-2,-2,-3,0,-1,-2,-4,0
1528452305396265,-1,0,-1,-2,0,-1,0,0
1528452305396265,-1,0,2,1,0,1,2,-1
1528452305403281,-1,0,-2,-2,0,2,0,-2
1528452305403281,-1,0,-1,-1,1,-3,0,-1
1528452305419240,-1,-1,0,-1,-1,-1,-2,0
1528452305419240,0,0,0,-1,0,-1,-1,1
1528452305426676,-2,-1,6,1,-3,-1,0,-1
1528452305426676,1,-1,-7,-2,-1,-1,1,0
1528452305441407,0,0,0,0,-1,-2,1,0
1528452305441407,1,0,-7,-5,-2,-1,0,1
1528452305448398,-1,0,-2,0,-1,1,0,-1
1528452305448398,0,0,4,1,-1,0,-3,-1
1528452305456657,-2,-1,0,0,-1,-1,0,0
1528452305456657,-1,0,0,1,0,-2,0,-2
1528452305463885,0,-1,0,1,1,-2,0,-1
1528452305463885,0,0,-1,-1,-2,-1,-1,-1
1528452305478740,-2,-2,-1,-1,-2,0,-2,-2
1528452305478740,-1,0,3,-1,-1,-1,-1,0
1528452305486445,-1,0,-4,-2,-2,-1,-1,1
1528452305486445,0,1,-1,0,1,0,0,-1
1528452305501404,0,-1,-1,-1,-2,1,-2,-2
1528452305501404,-1,-1,1,0,0,0,-1,0
1528452305508412,2,-1,-2,0,0,0,1,1
1528452305508412,0,-1,-2,-1,-1,1,0,0
1528452305516623,0,-1,0,-1,1,-2,1,0
1528452305516623,-2,-1,-1,1,-1,-1,0,-1
1528452305523604,-1,-1,-1,-2,-1,-1,0,0
1528452305523604,-3,-1,0,0,-1,-1,-1,0
1528452305538607,0,0,-1,-1,0,-1,-1,0
1528452305538607,0,-2,1,-1,-2,0,0,-2
1528452305545589,0,-2,-2,0,0,0,0,-1
1528452305545589,0,0,-4,-2,0,2,1,-3
1528452305561561,0,-1,1,0,-1,-4,-1,-1
1528452305561561,-1,-2,-1,-1,-2,-3,-1,0
1528452305568841,0,-1,-1,-1,-1,0,-1,-1
1528452305568841,-1,-1,0,1,-1,-2,-1,-1
1528452305576927,2,1,-1,0,0,2,1,0
1528452305576927,0,-1,0,0,0,-1,-1,0
1528452305583816,0,-1,-1,0,-2,0,-3,-1
1528452305583816,-1,-1,-1,-1,-1,-1,-2,0
1528452305599463,0,-2,0,0,-1,-1,-1,0
1528452305599463,0,-1,0,0,-1,-1,1,0
1528452305606727,-1,0,-1,-1,0,0,-1,-1
1528452305606727,-2,-1,-2,-1,-1,-2,0,0
1528452305621652,-2,-2,-2,0,-1,4,1,-1
1528452305621652,-1,0,0,-1,0,1,1,0
1528452305628609,-2,-2,-1,-2,-2,0,-1,-1
1528452305628609,1,-1,0,0,0,-2,-1,-1
1528452305635684,-2,-1,0,0,0,-3,-1,-1
1528452305635684,0,0,-2,0,-1,1,0,-1
1528452305643790,0,-1,-2,-2,1,0,0,-1
1528452305643790,-2,0,-1,0,-2,-1,0,0
1528452305658640,-2,-1,-2,0,0,0,0,-1
1528452305658640,-1,0,0,1,-1,0,-3,0
1528452305666724,0,0,-1,0,-2,-1,-1,-1
1528452305666724,0,0,-1,1,-1,1,-2,0
1528452305681776,-2,-1,-1,0,-2,0,-1,-1
1528452305681776,0,-1,-1,-3,-1,-2,0,-2
1528452305689006,0,-2,-1,-2,-1,0,-1,0
1528452305689006,-2,-1,-1,-3,-2,-1,0,0
1528452305696895,-2,-2,-1,-1,0,1,-1,-1
1528452305696895,-1,-1,-2,-1,0,-1,0,-1
1528452305704024,-2,-1,-2,-1,-1,0,0,0
1528452305704024,-1,0,0,1,-2,-1,-2,0
1528452305718887,1,-1,0,-2,0,-3,-2,0
1528452305718887,0,-1,0,0,0,-1,-1,0
1528452305726896,-1,1,1,2,-1,-3,-1,-1
1528452305726896,0,-2,-1,-1,-1,-1,1,0
1528452305740925,1,0,0,-2,-1,-1,0,-1
1528452305740925,1,-2,0,-1,0,0,1,0
1528452305748841,-1,1,0,0,1,-1,-1,0
1528452305748841,-1,-1,0,0,-1,-1,-1,-2
1528452305756513,1,-1,0,1,-1,0,-1,-1
1528452305756513,0,1,0,0,-2,0,-1,0
1528452305763320,-1,0,-2,-2,-1,0,0,1
1528452305763320,0,-1,-1,-1,0,1,1,-1
1528452305778597,-1,-2,-2,-1,-2,-1,0,0
1528452305778597,-2,-1,-1,-3,-1,0,-2,0
1528452305787040,-1,-2,0,-2,2,-1,1,-1
1528452305787040,0,-2,1,0,-1,-1,0,0
1528452305801914,-1,0,-1,-1,0,2,1,0
1528452305801914,-1,-1,-1,1,-1,0,1,-2
1528452305808553,0,-1,-1,0,0,0,0,0
1528452305808553,1,1,0,-1,1,0,0,0
1528452305816792,-1,1,-1,-1,-1,-1,-1,-1
1528452305816792,-1,0,-1,1,0,-1,-2,0
1528452305823774,-2,0,-1,-1,-2,-1,-1,-3
1528452305823774,-2,-2,-1,0,-1,-1,1,-2
1528452305838800,0,-2,-1,-1,0,0,0,0
1528452305838800,-1,-1,-1,-2,0,0,-1,-1
1528452305846777,0,-1,0,0,0,-1,-1,-2
1528452305846777,-2,0,0,-1,-1,0,-1,-1
1528452305860771,-1,0,-1,0,0,-2,-1,-1
1528452305860771,0,0,-2,0,-1,-1,2,0
1528452305876571,-1,-3,-2,0,0,0,-1,0
1528452305876571,-1,-1,-1,-2,2,1,-2,0
1528452305884320,-2,-1,-1,0,-1,0,0,-1
1528452305884320,0,0,0,-2,1,0,-1,-1
1528452305891268,0,-1,1,-2,-1,-1,0,0
1528452305891268,2,-1,-2,-1,-2,-1,0,-1
1528452305913735,-1,-2,-3,1,0,-1,0,-1
1528452305913735,-1,-1,-2,-1,-1,-1,-1,0
1528452305921754,-1,0,0,1,-1,0,0,-1
1528452305921754,1,1,2,0,1,-2,-1,-1
1528452305936184,0,-1,-3,2,0,0,-1,-1
1528452305936184,-1,0,-2,1,-1,0,-1,-1
1528452305944210,-1,0,0,1,-1,-1,0,0
1528452305944210,-1,-1,-1,-1,-2,-2,-2,0
1528452305951928,0,-1,1,0,1,-1,0,-1
1528452305951928,0,0,-1,-1,-1,-1,0,-1
1528452305959192,1,0,-2,1,0,0,-1,-1
1528452305959192,1,0,-2,0,-1,-1,0,-1
1528452305966962,-1,0,-2,-1,0,-1,-1,-1
1528452305966962,-1,-1,0,-1,-2,0,0,2
1528452305981213,0,-2,-1,-2,1,-1,-1,0
1528452305981213,1,-1,0,0,-1,-1,-2,2
1528452305989107,-1,-1,-2,-1,-1,-1,0,0
1528452305989107,-1,-1,-1,-2,1,-2,-1,-2
1528452305996218,0,-1,0,1,-1,0,0,0
1528452305996218,0,-1,-1,1,0,1,-1,-1
1528452306004441,0,1,2,-1,-1,-2,0,0
1528452306004441,-1,-1,-4,-4,-1,0,1,-1
1528452306019454,1,1,0,-1,0,-1,0,1
1528452306019454,0,-1,0,-1,-2,0,1,-1
1528452306026403,-2,0,0,-1,-1,-1,-1,0
1528452306026403,-1,-1,-1,0,-2,-1,-1,0
1528452306041132,-2,-2,-3,-3,0,-1,0,-2
1528452306041132,-1,0,1,-2,-2,-1,0,0
1528452306049276,-1,0,-1,0,0,0,-1,0
1528452306049276,-2,-2,1,0,-1,0,0,-1
1528452306056363,0,3,1,0,2,-2,-3,-2
1528452306056363,0,-1,0,0,0,-1,0,0
1528452306064375,-2,0,-3,-2,-1,-1,0,-1
1528452306064375,-1,0,-1,0,-2,0,-1,-2
1528452306079322,-1,0,-1,0,-1,-1,0,0
1528452306079322,0,0,-2,0,1,-1,-2,-1
1528452306086532,-1,0,-1,1,0,-1,-1,-1
1528452306086532,0,-1,0,1,0,0,0,-1
1528452306101243,-2,-1,-2,-1,-1,0,-2,1
1528452306101243,-1,1,-1,-1,-2,0,-2,0
1528452306108225,1,-1,-2,-2,0,0,-1,0
1528452306108225,-2,0,0,-1,-2,-2,-1,1
1528452306116204,-1,-1,0,1,0,0,1,-2
1528452306116204,-2,-1,-2,-2,-2,-2,0,-1
1528452306123186,0,-1,-1,-1,-2,-1,-2,-1
1528452306123186,0,-1,0,-1,0,-1,-1,1
1528452306138145,-2,-1,-2,-1,-2,0,-1,1
1528452306138145,0,-1,1,0,1,0,1,0
1528452306153105,-1,-2,-1,0,-1,0,-1,-1
1528452306153105,0,0,-1,-1,2,0,-2,0
1528452306169070,-2,-2,-1,1,-2,1,-2,0
1528452306169070,-1,-1,-2,-1,0,-1,-1,0
1528452306176043,-1,0,-1,-1,-2,0,-1,-1
1528452306176043,-2,-1,-1,-1,-1,-1,0,-2
1528452306184022,0,-2,-1,-1,0,-2,-1,0
1528452306184022,0,-2,-1,1,1,-2,-1,-1
1528452306191003,1,-2,-1,0,0,0,-2,-1
1528452306191003,-1,0,-2,0,0,0,-1,-1
1528452306205963,0,1,0,1,-1,-2,-2,-2
1528452306205963,0,-1,1,-1,-2,-2,0,-1
1528452306220923,0,-1,-2,-2,-1,-1,1,-1
1528452306220923,-2,-2,0,0,-2,1,0,0
1528452306228902,-1,0,0,1,0,0,-1,0
1528452306228902,0,0,0,-1,-1,0,-2,0
1528452306235883,-1,-1,-2,-2,-1,-1,0,-1
1528452306235883,0,-1,-2,-1,-2,0,1,0
1528452306243862,-1,0,-1,-1,0,-1,-1,-1
1528452306243862,-1,-1,-1,0,-1,0,-1,1
1528452306258822,-1,1,1,0,-1,-2,-2,-1
1528452306258822,0,-2,-1,-1,-1,-1,-1,-2
1528452306265817,0,-1,-1,1,-3,-1,1,1
1528452306265817,-2,-1,0,0,-1,-1,0,1
1528452306280791,1,0,0,-1,1,-1,-1,0
1528452306280791,-1,-1,-1,1,0,0,-1,0
1528452306288792,-1,0,-1,1,0,-1,-2,-2
1528452306288792,-2,0,1,-1,-1,-2,-1,0
1528452306295774,-1,-1,-2,-2,0,1,1,0
1528452306295774,0,0,-1,-1,0,1,0,0
1528452306303752,0,-1,-2,-1,-1,-1,1,-1
1528452306303752,0,-1,-1,1,0,0,0,0
1528452306318717,1,0,0,-2,-1,-1,0,-3
1528452306318717,-1,-1,0,-1,0,1,-1,0
1528452306325702,-1,1,1,-1,-1,-1,0,-1
1528452306325702,0,-2,-1,-1,2,0,0,-1
1528452306340607,0,-1,-1,-1,-2,0,1,2
1528452306340607,0,-1,-1,-1,0,-1,-1,-1
1528452306348637,0,-2,-1,-1,0,0,-1,-1
1528452306348637,0,0,-1,-2,-2,0,0,-1
1528452306356561,0,-1,-1,-1,0,-1,-1,0
1528452306356561,-1,0,-1,-1,0,-1,-1,0
1528452306363598,-1,-1,-1,-1,0,-3,1,1
1528452306363598,0,-1,-1,-1,-1,-2,0,-2
1528452306378557,1,1,-2,-1,-2,-2,-2,-1
1528452306378557,0,-1,0,-2,0,-1,0,0
1528452306386536,1,0,-2,-1,0,1,0,0
1528452306386536,0,-1,0,-1,0,0,0,0
1528452306401496,-2,-2,0,0,0,1,-1,0
1528452306401496,-2,-1,-1,1,-1,-3,0,-1
1528452306408450,0,-2,0,-1,-1,0,-2,-2
1528452306408450,0,-1,0,0,-1,-1,-1,-1
1528452306416441,0,0,-1,-1,0,-2,0,-1
1528452306416441,1,-1,-2,-3,0,-1,0,-2
1528452306423422,-1,-1,0,0,-2,-1,-2,0
1528452306423422,0,1,-2,-1,-1,-2,-1,0
1528452306439381,0,-3,1,-2,-1,-2,0,0
1528452306439381,0,0,-1,1,-1,0,0,0
1528452306446321,0,-1,1,-1,1,-1,-1,0
1528452306446321,0,1,-1,0,-1,-2,-1,1
1528452306461618,-1,-1,-2,1,-2,1,-1,-1
1528452306461618,0,0,0,-1,0,-3,1,1
1528452306468264,-2,-2,0,0,-3,-1,0,0
1528452306468264,-1,0,-1,-1,1,-3,1,0
1528452306476503,-1,-1,0,0,0,0,0,-1
1528452306476503,-2,0,-2,-1,-1,-1,0,-1
1528452306483295,2,0,-1,-2,0,1,1,-1
1528452306483295,-1,-1,-1,-6,-2,1,1,-1
1528452306498255,-1,0,-3,3,0,-1,0,-1
1528452306498255,0,1,3,7,1,0,-1,0
1528452306513535,-2,1,-1,-2,-1,-2,0,0
1528452306513535,0,0,0,-1,0,-1,0,-1
1528452306529452,0,-1,-1,-3,1,0,-2,0
1528452306529452,-2,0,-2,-3,-2,0,-2,0
1528452306536514,0,-1,0,0,-1,-1,-1,-1
1528452306536514,-1,-2,1,-1,-1,-1,1,-1
1528452306544321,-1,-1,-1,-1,-2,-1,-2,-1
1528452306544321,-1,-3,-2,-1,-2,-2,-1,-1
1528452306559345,-1,-1,-1,-1,0,-2,0,-2
1528452306559345,-1,-1,-1,-1,-1,0,-2,0
1528452306566337,-1,0,-1,1,-1,-3,0,1
1528452306566337,-1,-2,-2,-2,-1,2,-1,0
1528452306573625,-1,-1,-1,-1,-1,0,0,-1
1528452306573625,-1,-2,-2,0,1,-1,0,-2
1528452306588751,0,0,-2,0,0,-1,-1,0
1528452306588751,-1,-1,1,-1,-1,-2,0,0
1528452306596746,-2,0,1,-2,1,-1,-1,0
1528452306596746,-1,0,0,0,0,1,-1,0
1528452306603733,0,-2,0,-2,-2,-2,-1,0
1528452306603733,1,-2,-1,-2,0,-2,0,0
1528452306611708,0,-1,0,1,1,-1,0,-1
1528452306611708,0,1,-2,0,-1,0,-2,-1
1528452306626676,-2,0,-1,-2,-2,-1,0,-1
1528452306626676,-1,0,-1,0,-1,-1,0,-1
1528452306633651,-1,0,-1,0,-1,-1,0,-2
1528452306633651,1,-1,0,1,-2,-1,0,0
1528452306648612,0,-2,0,-1,1,1,0,-1
1528452306648612,0,0,-1,-2,-2,0,0,-2
1528452306656615,-3,0,0,0,0,-1,0,-1
1528452306656615,0,0,0,0,-1,0,0,0
1528452306663867,0,0,0,-1,0,-3,-1,-1
1528452306663867,-1,-2,0,-2,0,-1,-2,-1
1528452306678609,0,0,1,1,-2,0,-1,-1
1528452306678609,0,0,-1,0,-2,-1,-1,-2
1528452306693766,0,-2,-1,-1,-1,0,-2,0
1528452306693766,-1,0,-1,0,0,0,1,1
1528452306708496,0,-1,0,-1,-1,0,1,1
1528452306708496,-1,0,-1,-1,0,0,0,0
1528452306724055,0,1,-1,-1,0,0,-1,-1
1528452306724055,-1,0,-1,0,-1,-1,0,1
1528452306738644,-1,2,-2,0,-2,-1,0,1
1528452306738644,-1,-2,0,-1,0,-2,0,0
1528452306746948,0,-2,0,0,1,-1,0,-1
1528452306746948,0,-1,-2,0,0,2,-1,0
1528452306760586,-1,1,-1,-2,-1,-1,0,-1
1528452306760586,-1,0,-1,-2,-1,-3,0,-1
1528452306776812,-1,0,0,-1,-2,0,0,0
1528452306776812,-1,0,-1,-2,0,0,-1,-1
1528452306791785,0,0,-1,0,0,-1,-1,-1
1528452306791785,-1,0,-1,-2,0,-3,-2,-1
1528452306799027,0,0,-2,0,-2,0,0,0
1528452306799027,-1,-1,0,0,-1,-1,1,0
1528452306814032,1,-2,-2,-1,-1,0,1,1
1528452306814032,-1,0,-1,-1,-1,-1,-1,0
1528452306829414,-1,-1,-3,0,1,-1,0,-2
1528452306829414,-1,0,-3,-1,0,0,-2,-1
1528452306851646,0,-1,0,-1,-1,-1,-1,0
1528452306851646,-1,0,-1,0,-1,-1,0,-2
1528452306866607,0,0,0,1,-2,0,1,0
1528452306866607,0,0,-1,0,1,0,1,-2
1528452306873490,0,0,1,2,-2,0,0,0
1528452306873490,0,-2,-1,1,0,-1,-1,0
1528452306888190,1,1,-1,0,-1,-1,1,0
1528452306888190,0,-1,-1,0,1,1,-1,-1
1528452306896431,0,-2,-1,-1,0,0,-2,-1
1528452306896431,-1,0,0,0,-1,-1,0,1
1528452306911373,-2,0,1,-1,-1,-1,-1,1
1528452306911373,0,1,0,0,1,1,-2,-1
1528452306919111,0,0,-1,0,-1,-1,-2,0
1528452306919111,0,0,-1,0,-1,2,0,-1
1528452306948867,-1,-1,-1,0,0,-2,-1,0
1528452306948867,0,-1,-1,1,2,0,-2,0
1528452306956733,-1,-1,-1,0,-1,-1,0,-1
1528452306956733,0,-2,0,0,0,-3,-1,-1
1528452306971813,0,-2,0,-1,-2,0,-2,-1
1528452306971813,-2,0,-1,0,-1,-1,-1,-1
