timestamp,emg1,emg2,emg3,emg4,emg5,emg6,emg7,emg8
1529285721299155,1,2,0,-1,1,0,0,2
1529285721299155,-3,-2,-1,-1,-2,-2,-2,0
1529285721300187,-4,0,-2,-1,-2,-2,-2,-1
1529285721300187,1,-2,-4,0,-2,-3,-1,-1
1529285721301183,0,0,-2,0,-1,-1,1,-2
1529285721301183,-2,1,0,0,-1,-1,-2,0
1529285721305138,-3,-2,-1,-2,0,1,-3,-1
1529285721305138,-4,0,1,1,-1,-1,-3,0
1529285721312118,-2,0,0,-1,0,0,1,-1
1529285721312118,2,-3,0,1,-1,-1,-2,-2
1529285721321095,0,0,-1,1,1,-1,-1,1
1529285721321095,6,0,1,-1,1,3,3,4
1529285721327080,0,2,0,-1,0,-1,0,2
1529285721327080,-2,1,-2,-3,-1,1,1,-1
1529285721340045,-1,0,-1,-2,-1,-1,0,-1
1529285721340045,-2,1,0,-2,1,-2,0,-3
1529285721352014,-2,-3,1,-2,-2,-1,-2,1
1529285721352014,-1,0,2,-1,1,0,-1,1
1529285721356999,3,1,0,0,-1,1,1,0
1529285721356999,0,0,-2,-2,0,0,2,0
1529285721371958,2,-1,1,2,0,0,1,-3
1529285721371958,0,-1,0,1,-2,0,-2,-1
1529285721378939,1,-2,1,0,-1,-1,-1,-3
1529285721378939,-2,-3,2,0,-2,-1,-1,-3
1529285721418832,-4,0,0,0,-1,0,0,0
1529285721418832,-2,0,-1,-3,1,0,-1,2
1529285721419830,-3,-1,-1,0,0,0,0,0
1529285721419830,-2,2,-2,0,-1,-1,-2,0
1529285721420828,3,1,5,3,3,1,-1,-1
1529285721420828,-1,-8,-10,-9,-10,-5,-1,-1
1529285721422822,3,0,2,0,2,-2,1,-1
1529285721422822,1,0,-2,-1,0,0,1,1
1529285721431798,-3,4,-3,-2,2,0,0,-2
1529285721431798,-4,6,1,2,2,2,-3,-3
1529285721437783,0,-2,-1,-2,-4,-1,-3,-3
1529285721437783,2,-4,0,-2,-1,0,0,-3
1529285721446766,1,-4,-1,-1,-1,-2,1,-2
1529285721446766,1,-5,1,3,2,0,3,1
1529285721461718,-3,-1,-2,-1,0,-1,-1,1
1529285721461718,1,0,1,1,2,0,-2,1
1529285721469696,1,-1,1,1,-3,-1,-2,3
1529285721469696,0,2,2,0,-2,-1,-3,1
1529285721475681,0,0,-2,-3,1,-1,0,0
1529285721475681,0,3,2,0,0,-2,0,0
1529285721491638,-1,-1,-4,-1,-1,-1,-1,-1
1529285721491638,4,-2,0,2,2,-2,0,-3
1529285721497622,1,-2,-1,2,-1,1,0,-1
1529285721497622,-3,-1,-3,-1,-1,0,-2,-1
1529285721507596,-4,-3,-1,-2,-3,-3,-2,3
1529285721507596,-1,1,3,-1,3,1,0,-2
1529285721520560,0,-1,-1,-1,-3,-1,-1,0
1529285721520560,-1,3,-4,-5,-5,-3,-2,-2
1529285721529537,-3,4,-2,2,-1,1,1,-2
1529285721529537,-3,-2,0,-1,-2,-2,-2,-1
1529285721535521,-2,-2,0,3,2,0,-1,-1
1529285721535521,1,-2,1,2,-1,0,-1,0
1529285721550483,3,1,-1,-3,-2,1,-4,-1
1529285721550483,0,0,-2,0,0,-2,0,-2
1529285721557462,-4,1,-1,-1,-2,-1,0,-2
1529285721557462,0,-4,0,2,1,0,0,-1
1529285721566438,4,-2,0,-2,0,1,3,5
1529285721566438,1,1,0,0,0,1,-1,0
1529285721580400,-1,-1,-2,-3,0,-1,-1,2
1529285721580400,-3,0,-1,0,0,0,-1,-1
1529285721589376,2,-4,0,0,0,-3,-1,-3
1529285721589376,-2,0,0,-2,0,1,0,2
1529285721595360,2,1,-1,2,0,0,0,-3
1529285721595360,0,-1,-1,-4,-2,1,-1,-1
1529285721610321,2,1,-2,-2,-2,1,0,0
1529285721610321,0,2,2,3,-2,-2,0,-1
1529285721618299,-3,-3,-1,0,-1,-1,-1,-3
1529285721618299,-1,-2,0,1,0,-2,1,-2
1529285721627275,-1,-1,1,0,2,1,-2,-1
1529285721627275,-2,-2,-2,-1,-4,0,-3,1
1529285721640241,0,-1,1,-1,-1,1,-3,1
1529285721640241,0,1,-1,1,1,-1,0,0
1529285721649217,-2,-2,-1,-2,-1,-2,1,-1
1529285721649217,2,1,0,-1,0,0,-1,-2
1529285721655201,0,0,0,1,-1,-1,-1,0
1529285721655201,-1,1,-1,0,0,1,-1,0
1529285721670160,-3,1,-1,1,-2,-3,-1,-1
1529285721670160,-3,2,1,0,-1,0,0,0
1529285721678139,-2,-1,-2,-2,1,0,-1,-3
1529285721678139,-3,-1,2,1,-3,-3,-2,-1
1529285721687116,0,-1,-3,1,-1,-2,-2,-2
1529285721687116,1,-2,-1,-1,-2,1,0,0
1529285721700081,1,2,0,0,-1,0,2,-1
1529285721700081,0,0,0,1,1,0,0,1
1529285721709056,-4,-1,1,0,0,0,0,-1
1529285721709056,-1,-3,-1,-2,0,-3,-5,-2
1529285721715041,-1,-1,-3,-1,-1,1,-2,0
1529285721715041,4,1,2,0,0,-1,5,5
1529285721730000,-1,1,1,0,-2,3,1,0
1529285721730000,-1,-2,-2,-3,1,0,1,-1
1529285721737981,2,0,0,-2,-4,-3,-2,0
1529285721737981,-2,-2,-3,-1,-1,-1,-3,-1
1529285721746956,-3,-2,-2,-1,2,-1,-3,0
1529285721746956,0,-1,-2,-2,3,1,0,-3
1529285721759921,-1,-1,2,1,0,-2,-2,-1
1529285721759921,-3,-3,0,-1,-2,-1,-1,-5
1529285721768897,1,1,2,0,1,2,-1,-3
1529285721768897,1,1,-1,1,-1,-1,1,-1
1529285721783857,2,-1,-1,-3,-1,-2,0,4
1529285721783857,0,1,-1,-2,-1,-1,-3,0
1529285721790838,-4,-3,-5,-1,-1,-1,0,-2
1529285721790838,-3,3,2,1,0,-1,1,-1
1529285721797820,1,-2,1,1,-1,-1,0,1
1529285721797820,0,-2,0,0,1,0,-2,-1
1529285721806798,3,0,-2,0,0,-2,-4,-4
1529285721806798,1,-2,-3,-2,0,1,-1,2
1529285721820791,-1,1,0,1,-1,0,1,-1
1529285721820791,-1,-1,0,0,-1,1,1,-1
1529285721829735,0,0,1,-2,-2,-4,-2,-1
1529285721829735,-3,1,-1,-1,0,-1,-1,0
1529285721843732,-4,-2,-3,-2,-4,0,-1,-3
1529285721843732,-3,0,0,0,-1,-1,-1,-3
1529285721850678,1,0,-1,1,0,-1,-1,-3
1529285721850678,3,-3,0,0,0,1,-1,-2
1529285721857659,-2,0,0,-1,2,1,-1,0
1529285721857659,0,-1,1,-1,0,-1,-1,-2
1529285721866636,-6,-3,2,-1,-1,-2,-1,0
1529285721866636,0,-2,1,-1,-2,-3,0,-1
1529285721880599,1,0,-1,-1,1,0,2,-3
1529285721880599,2,-3,-1,0,-2,-2,1,-1
1529285721889575,-1,2,-3,0,-1,1,-1,2
1529285721889575,1,1,-3,0,-1,-1,-1,1
1529285721903537,-4,-2,-1,1,-1,-2,-2,-2
1529285721903537,-1,2,-3,-3,-1,0,-1,2
1529285721910564,4,0,2,-1,2,2,2,0
1529285721910564,2,1,1,1,0,1,2,-1
1529285721917500,1,1,0,-3,-2,-3,-1,3
1529285721917500,-1,-3,-2,0,-3,-4,-3,-3
1529285721926475,-2,-3,-1,0,-3,-2,-2,-2
1529285721926475,0,-2,-1,1,4,-3,-6,0
1529285721940475,0,2,2,2,-2,8,8,0
1529285721940475,-1,-6,-1,-1,2,2,2,1
1529285721949415,0,-2,-1,0,1,-2,1,-1
1529285721949415,-2,0,0,-2,-4,-2,-4,-6
1529285721963377,-1,2,-1,-2,-1,-6,-5,-5
1529285721963377,-1,4,0,-1,-1,-2,0,0
1529285721970396,-1,0,-3,0,-1,2,0,0
1529285721970396,0,-2,-1,-3,0,-2,-1,1
1529285721978336,-1,0,4,1,0,0,-3,-2
1529285721978336,-3,0,-1,-2,-1,2,-1,0
1529285721987313,-1,-4,-2,-3,-4,-3,-3,2
1529285721987313,-1,0,0,0,-1,-1,0,2
1529285722000279,2,0,-5,-5,-2,-1,-1,0
1529285722000279,1,3,0,0,2,2,-2,0
1529285722009255,-1,1,-1,-2,-4,-4,-1,-3
1529285722009255,-2,0,2,2,1,1,2,2
1529285722023217,-1,-1,-3,-1,-2,-6,-3,-4
1529285722023217,1,-2,1,0,0,0,-1,-1
1529285722030242,3,-2,0,0,4,6,4,3
1529285722030242,2,0,-2,-2,0,5,-3,-1
1529285722038215,-1,-3,0,1,0,-6,1,-4
1529285722038215,-1,-1,-3,0,0,3,3,-2
1529285722053138,-3,-1,3,1,0,-7,-1,0
1529285722053138,0,-2,1,0,-2,6,2,0
1529285722060151,-1,-3,2,-1,1,3,-1,3
1529285722060151,0,1,-4,-4,2,3,1,-1
1529285722069095,1,2,0,-3,-5,-5,-4,-1
1529285722069095,-2,1,0,0,-2,-3,-1,-1
1529285722084055,0,-1,2,5,2,-2,-1,0
1529285722084055,-2,-3,-2,-1,-4,-4,-4,-2
1529285722090039,-1,-1,-2,-2,-1,3,1,-1
1529285722090039,-1,3,2,1,0,-1,0,-2
1529285722098064,6,0,-6,-16,-2,4,-1,-2
1529285722098064,2,0,1,5,-1,-2,-4,-4
1529285722113026,1,-1,-1,6,2,0,-3,0
1529285722113026,-4,0,1,-2,-6,-11,-6,0
1529285722119958,-3,3,3,7,5,7,2,2
1529285722119958,-1,0,-1,-6,-9,-4,3,1
1529285722128936,-1,0,0,-3,5,1,-3,-1
1529285722128936,-2,-1,-1,1,2,-1,3,0
1529285722143928,0,-2,-2,-1,-6,-7,-3,1
1529285722143928,0,-3,1,5,-1,-4,-3,1
1529285722149880,0,-4,-11,-6,-5,6,0,0
1529285722149880,0,4,8,3,5,12,0,-7
1529285722157910,-3,-3,-1,-3,-8,-5,-10,-5
1529285722157910,1,-5,-2,2,5,-10,-6,2
1529285722172864,3,3,4,9,24,15,25,19
1529285722172864,1,-2,-2,-10,-19,0,1,3
1529285722188774,-2,1,2,4,2,2,1,-3
1529285722188774,-7,-1,-3,-6,-8,-4,-5,-8
1529285722190768,-1,1,5,4,3,-4,-7,-5
1529285722190768,-2,-6,-7,-9,-7,-5,0,0
1529285722203735,4,1,3,5,4,-2,1,-1
1529285722203735,2,0,0,-4,-3,-7,-9,-2
1529285722210715,-2,-2,1,-3,-3,-2,-3,-5
1529285722210715,-1,2,2,6,9,9,8,2
1529285722217697,-3,-3,-5,-4,-6,-6,-5,-2
1529285722217697,-2,1,-1,-1,3,2,1,0
1529285722234652,-1,3,0,-1,-11,-9,-6,-2
1529285722234652,0,-1,-3,0,4,-3,-6,-2
1529285722240636,-2,-1,-2,0,3,4,1,0
1529285722240636,1,0,0,0,-2,5,3,1
1529285722249612,1,0,2,1,0,1,-2,-1
1529285722249612,0,-2,0,-2,-1,-3,-3,-1
1529285722263576,1,-2,-3,-2,1,0,-1,0
1529285722263576,2,1,2,3,-1,3,7,0
1529285722270556,-2,-3,-3,-4,-4,-4,-5,-5
1529285722270556,-4,-2,-4,0,-1,-6,-2,-2
1529285722277539,-2,-1,1,-1,2,6,3,5
1529285722277539,0,1,4,1,5,1,-2,-1
1529285722293495,-3,-2,-2,-3,-1,7,3,-1
1529285722293495,-1,-1,0,3,4,1,2,-1
1529285722300476,6,5,6,7,7,9,1,0
1529285722300476,2,-1,-3,-5,-8,-11,0,0
1529285722309452,3,2,-3,-5,1,-2,-5,0
1529285722309452,-6,-5,-5,3,-7,-4,-5,-9
1529285722323414,0,2,3,1,-1,0,2,4
1529285722323414,2,10,18,20,8,-2,-2,6
1529285722330395,-3,-2,-3,-10,-6,0,-3,-14
1529285722330395,0,-4,-4,-7,-1,-1,2,4
1529285722337431,1,-4,-8,-8,-3,-3,2,-9
1529285722337431,1,1,5,0,3,7,4,7
1529285722353335,2,-2,-13,5,-4,-3,4,15
1529285722353335,-2,2,1,-2,1,0,-6,-4
1529285722360363,-5,-5,-5,-4,-2,1,3,2
1529285722360363,-2,-4,-5,-2,-3,3,-2,-6
1529285722369292,-2,-3,2,0,0,-3,-6,-6
1529285722369292,2,0,-6,-5,-2,-5,-2,2
1529285722383254,-2,-1,-6,-7,0,-3,1,1
1529285722383254,-8,-11,-5,-1,-9,0,-4,-7
1529285722390324,-1,-7,-26,-24,-6,-5,-3,-4
1529285722390324,13,29,58,43,14,9,8,8
1529285722406193,-6,-5,-5,0,-2,-3,-5,-5
1529285722406193,0,6,3,3,3,5,2,3
1529285722413496,-2,-11,-16,-12,-3,-3,-4,-2
1529285722413496,3,0,0,2,-3,-8,-1,8
1529285722429447,-5,6,7,-1,1,5,2,3
1529285722429447,1,-2,-5,2,3,1,1,0
1529285722431418,-4,1,10,7,3,-5,-9,-8
1529285722431418,2,-5,-13,-8,-5,-6,-2,-3
1529285722443424,4,-2,-1,-10,1,9,4,4
1529285722443424,-2,-6,-9,-23,-34,2,8,0
1529285722452317,-3,3,12,25,27,12,3,-1
1529285722452317,1,-1,-8,-2,13,4,-3,-1
1529285722466284,1,-3,-6,0,-6,-9,-6,-3
1529285722466284,-2,-3,-6,-2,12,-2,-4,-6
1529285722473264,0,2,3,-21,-21,-7,-3,-2
1529285722473264,-4,5,16,17,-1,1,1,-1
1529285722489382,-4,-3,0,15,7,-7,-8,-9
1529285722489382,-4,-3,-10,-18,-7,-5,-4,2
1529285722491219,2,1,1,10,-6,-2,2,2
1529285722491219,-2,-16,-24,-27,-8,-1,-1,-3
1529285722502821,1,0,6,16,4,2,0,-4
1529285722502821,-7,-5,5,-1,4,-1,0,-2
1529285722511799,-2,-3,-6,-5,-1,-2,1,2
1529285722511799,6,12,0,-4,-4,-1,0,6
1529285722525952,3,8,6,7,10,5,3,6
1529285722525952,-1,-5,2,17,6,-1,-7,-25
1529285722532938,-1,10,0,-17,-1,-2,5,8
1529285722532938,-3,-11,-13,-2,-11,-2,3,7
1529285722549157,-4,6,0,-15,-7,-6,-2,3
1529285722549157,-11,-15,-6,26,14,5,-2,-2
1529285722551108,-11,-31,-4,-6,-6,-1,-7,-20
1529285722551108,-2,-5,-7,8,2,0,-2,-5
1529285722563411,24,30,13,-12,-1,3,4,9
1529285722563411,20,63,29,2,5,8,14,11
1529285722572052,7,4,6,7,-2,-10,-20,1
1529285722572052,-8,-22,-17,-6,-5,-1,-4,-6
1529285722586323,-18,-39,-17,10,-8,-10,-10,-13
1529285722586323,-11,-41,-38,-37,-6,-6,-2,3
1529285722593061,10,54,44,17,2,5,10,11
1529285722593061,-1,13,-7,-22,3,4,-2,-5
1529285722609811,-4,-5,-8,9,-11,-8,-6,-13
1529285722609811,-3,-13,5,10,-3,-6,-9,-11
1529285722610812,-14,-55,-37,-14,2,2,10,13
1529285722610812,9,22,25,21,11,5,3,6
1529285722622938,5,31,5,-12,2,2,5,24
1529285722622938,-9,-17,-8,6,-3,-4,-6,-2
1529285722631755,7,12,5,2,-3,0,-2,-4
1529285722631755,-1,10,21,9,1,-1,1,-7
1529285722646765,-7,-29,-29,-22,-5,-1,-3,-8
1529285722646765,10,18,9,5,5,1,-1,8
1529285722652857,-19,-46,-23,-3,-9,-7,-7,-11
1529285722652857,-5,3,-1,-1,-2,-2,2,9
1529285722669704,20,28,11,12,10,5,6,1
1529285722669704,6,-11,-9,-7,-4,1,5,2
1529285722670704,16,42,34,10,4,6,8,-2
1529285722670704,-13,-22,-19,-33,-10,-6,-11,-19
1529285722682772,-12,-14,14,30,0,-4,2,19
1529285722682772,-10,-10,-29,-21,7,3,-1,2
1529285722691833,0,10,16,25,-4,-1,0,0
1529285722691833,1,0,-1,8,13,1,0,-1
1529285722706470,-7,-12,1,-19,-2,0,-4,-12
1529285722706470,3,7,9,7,-11,-4,-1,-2
1529285722712600,0,-2,-13,-7,10,4,2,3
1529285722712600,-1,-11,-2,-3,-8,-9,-5,-12
1529285722729553,-3,9,0,3,-6,-1,-2,-1
1529285722729553,2,-4,3,-19,5,0,5,12
1529285722730553,4,15,8,-4,2,-1,-2,0
1529285722730553,0,-3,0,18,5,7,9,0
1529285722742519,-2,-10,-5,-18,-1,-4,-12,2
1529285722742519,-4,1,11,9,7,-4,-3,-1
1529285722751861,-6,-16,-20,5,-21,-1,-1,1
1529285722751861,2,15,2,-5,2,2,-2,0
1529285722766456,-7,-12,-2,7,16,5,0,-7
1529285722766456,8,17,2,-16,-23,-1,-2,0
1529285722772439,5,-2,0,10,12,0,1,-4
1529285722772439,1,-5,5,-20,-11,1,5,2
1529285722789434,-4,-5,4,44,3,-1,3,-4
1529285722789434,4,5,9,2,-11,-6,-2,-1
1529285722790429,-1,-6,-8,9,10,-1,-5,-11
1529285722790429,-1,-4,-12,-37,25,2,-2,10
1529285722803356,11,6,-6,-11,-13,-3,6,19
1529285722803356,5,9,4,10,18,5,0,1
1529285722812331,-2,-3,0,-10,0,0,2,3
1529285722812331,-6,-2,-6,-4,-6,-2,-8,-10
1529285722826294,-8,-7,-1,-5,-22,-15,-4,-12
1529285722826294,-1,-6,-3,-11,12,5,8,8
1529285722833276,6,13,21,42,-2,4,1,-1
1529285722833276,-1,-4,3,22,31,4,2,-2
1529285722849233,0,0,-7,-31,-16,-2,-3,-6
1529285722849233,0,-10,-21,-3,-23,-4,-5,-3
1529285722851227,1,12,19,3,16,8,3,-3
1529285722851227,4,0,5,34,-37,-9,1,9
1529285722863195,4,9,6,-14,26,6,6,7
1529285722863195,-4,16,35,18,11,6,-3,-10
1529285722872171,-6,-6,-8,21,23,1,-5,-2
1529285722872171,-9,-17,-31,-33,-33,-7,-2,-2
1529285722886169,5,4,11,-5,8,9,2,3
1529285722886169,0,-5,-13,0,-47,-12,-3,-4
1529285722893153,-1,-7,-7,-24,15,-5,0,-1
1529285722893153,3,1,2,7,18,6,0,5
1529285722909121,-5,-16,-33,-24,-16,-7,-6,-10
1529285722909121,4,20,47,29,29,12,2,-12
1529285722911115,-3,-4,-3,1,-12,4,-2,1
1529285722911115,-2,-8,-26,-32,-29,-11,2,-5
1529285722923083,0,0,8,-16,7,1,2,14
1529285722923083,-4,0,6,69,33,3,-1,6
1529285722932012,-2,1,-15,-32,-39,-8,1,-1
1529285722932012,0,10,18,9,48,12,1,-3
1529285722946021,1,4,14,1,-12,-6,-6,-10
1529285722946021,-6,-21,-34,-52,0,4,-1,-1
1529285722953004,12,7,12,24,-6,-10,-1,14
1529285722953004,-3,-16,-23,-38,-27,-8,-2,-5
1529285722968961,-5,-1,0,5,8,-3,-3,-20
1529285722968961,-2,1,1,10,-33,-10,-2,4
1529285722974944,-2,6,11,-4,41,10,3,7
1529285722974944,-3,-3,-12,-7,-5,-1,0,3
1529285722982876,-1,11,27,17,13,8,6,-1
1529285722982876,2,2,-1,-35,-37,-15,-5,-4
1529285722991852,3,1,-10,-41,-19,-13,-6,1
1529285722991852,0,1,11,33,12,7,-2,4
1529285723005861,-5,-11,-26,-8,-17,-6,-6,-7
1529285723005861,1,2,1,-14,-4,1,3,2
1529285723020814,-7,-10,-13,4,3,5,3,1
1529285723020814,2,-3,-9,-18,-24,-7,-2,-7
1529285723028793,-2,-1,-7,3,59,6,-1,4
1529285723028793,3,-6,-24,-18,15,5,-2,-8
1529285723035775,7,7,27,16,-7,2,3,13
1529285723035775,-3,0,3,10,6,-1,-5,-5
1529285723042755,-3,0,6,11,-25,-10,-3,0
1529285723042755,-2,-4,-11,8,14,-5,-2,3
1529285723051691,-6,-1,6,-30,-15,-9,-6,-8
1529285723051691,-3,-8,-13,7,24,9,0,-1
1529285723065656,5,4,-4,1,-25,-11,0,2
1529285723065656,-3,-4,4,6,13,7,0,-7
1529285723072684,-1,6,1,4,-6,3,0,-5
1529285723072684,2,8,20,10,-13,-6,0,1
1529285723088593,-2,-1,-11,-21,-8,3,3,2
1529285723088593,-6,-4,3,40,17,1,-2,-10
1529285723095614,-5,-11,-28,-11,-10,-1,0,9
1529285723095614,10,1,-3,-2,2,1,1,15
1529285723102602,4,9,25,25,12,3,-3,-5
1529285723102602,-1,-3,-3,-8,-11,-2,0,4
1529285723111531,-8,-8,-7,0,-6,-4,-4,-6
1529285723111531,-6,2,1,3,0,0,6,-5
1529285723134471,17,0,-11,-1,-7,1,-1,14
1529285723134471,1,5,7,-8,4,4,0,-2
1529285723135469,-3,-4,-18,7,2,-3,-5,-11
1529285723135469,-1,1,13,-21,-6,3,4,2
1529285723148465,-2,-4,-11,27,-1,3,6,-1
1529285723148465,-1,2,-2,-1,2,-3,-4,-3
1529285723155434,-10,-23,-32,-10,0,2,0,-9
1529285723155434,-1,4,6,26,22,-1,-2,-2
1529285723171403,-2,-1,-1,-22,-23,-10,-5,-4
1529285723171403,3,3,-3,-17,10,2,0,3
1529285723173367,3,-2,-5,1,-5,1,3,1
1529285723173367,2,3,6,6,2,2,-3,0
1529285723186491,-6,-4,4,19,5,7,-3,-9
1529285723186491,-5,-11,-18,-11,-2,1,1,7
1529285723192670,5,14,24,11,0,-1,4,11
1529285723192670,3,5,3,4,-6,-4,-3,-3
1529285723208620,-3,-2,0,-7,5,3,3,-1
1529285723208620,-9,-16,-27,-36,-17,-9,-4,-2
1529285723216454,9,10,29,-10,-1,3,2,12
1529285723216454,-2,-7,-15,-31,-11,-6,-6,-5
1529285723231563,-1,3,9,14,-5,-4,1,5
1529285723231563,-3,1,-5,-10,2,1,-3,-6
1529285723233408,-2,-2,-6,-6,-6,-8,-3,-9
1529285723233408,0,1,9,11,12,3,4,5
1529285723246377,-10,-4,6,-17,-13,-6,-3,-12
1529285723246377,3,-9,-6,4,-15,10,1,8
1529285723252520,3,9,20,48,14,-5,-1,-9
1529285723252520,-1,-8,-22,-51,-18,-4,2,8
1529285723268489,2,7,14,25,5,5,0,-2
1529285723268489,1,4,9,2,3,-2,-1,-2
1529285723275471,0,-6,-14,-10,1,4,-2,4
1529285723275471,3,0,7,9,-5,3,-1,-10
1529285723291464,-6,-3,-4,24,12,5,-1,6
1529285723291464,2,7,21,17,10,0,4,8
1529285723293419,3,-5,-19,-49,-8,-2,-1,-7
1529285723293419,-2,6,26,27,-1,-5,-3,-6
1529285723306752,4,5,4,25,13,9,6,6
1529285723306752,-5,3,-11,-17,3,-4,-1,0
1529285723312927,-7,-6,-19,-13,-17,-5,-1,-11
1529285723312927,2,19,34,21,10,-1,-3,5
1529285723328575,1,-7,-18,-5,-2,-4,-2,-4
1529285723328575,4,2,8,2,-2,-3,0,3
1529285723336086,-2,-7,3,8,18,9,2,2
1529285723336086,-4,-7,-18,-7,-17,-9,-5,-7
1529285723352057,-1,2,7,-18,-6,-9,-4,-4
1529285723352057,9,7,11,17,21,20,9,9
1529285723353155,2,9,11,-16,24,2,-1,-2
1529285723353155,0,-6,-10,-4,-7,1,0,3
1529285723365284,4,5,11,10,-1,0,-2,-2
1529285723365284,1,0,8,-2,-10,-4,-2,-7
1529285723374845,-3,-6,-7,18,-6,-3,-2,8
1529285723374845,-4,0,16,29,14,4,1,0
1529285723388804,-3,-5,-11,-37,-9,2,2,-3
1529285723388804,1,5,-1,21,4,-6,-1,1
1529285723396185,3,6,8,1,-5,3,1,2
1529285723396185,-4,-7,-19,-32,-12,-4,-6,-7
1529285723411926,-2,-1,4,11,1,2,0,-1
1529285723411926,-3,0,-6,-11,-7,-5,0,0
1529285723413737,-6,-1,3,15,-4,-1,-3,-5
1529285723413737,0,-2,-10,-11,-10,-2,-3,-3
1529285723425771,-3,-7,-12,-23,1,1,2,-2
1529285723425771,4,1,1,9,1,-6,-16,2
1529285723434415,1,3,7,-3,-12,-4,-2,0
1529285723434415,-4,-2,-6,11,17,4,3,7
1529285723448415,-2,-5,-2,5,-7,-5,-2,-1
1529285723448415,-6,-16,-32,-30,-26,-17,-3,-10
1529285723457399,2,6,27,54,16,16,2,1
1529285723457399,0,-2,-9,-26,-3,0,-2,0
1529285723471361,5,7,4,2,1,1,2,2
1529285723471361,-4,-2,8,6,-10,-1,-2,-1
1529285723473382,1,2,10,1,-5,-4,-6,-1
1529285723473382,0,0,1,17,10,4,3,-3
1529285723484989,-6,-11,-21,-17,-7,-4,-2,-1
1529285723484989,2,11,27,-40,2,5,5,2
1529285723493971,0,0,-5,-3,-2,-2,-3,-3
1529285723493971,-1,2,3,3,-5,-1,0,-2
1529285723509319,1,-1,3,-15,-5,-3,-2,-4
1529285723509319,3,-4,-13,-10,9,5,4,4
1529285723515303,-11,-11,-12,-8,-8,-9,-5,-3
1529285723515303,-2,7,19,7,-1,-5,-1,-2
1529285723531797,-6,-2,-11,-6,-1,2,2,5
1529285723531797,1,12,32,14,2,-4,-1,3
1529285723533482,-1,-11,-50,-33,-12,-4,-3,-3
1529285723533482,5,5,17,21,7,7,1,3
1529285723545726,3,-2,1,-7,-7,-9,-3,1
1529285723545726,-1,-7,1,15,8,4,2,-2
1529285723554715,2,-1,-10,-20,-5,0,3,-3
1529285723554715,0,6,11,-2,-10,-8,-3,-3
1529285723568684,0,4,17,47,23,14,2,1
1529285723568684,-9,-9,-22,-2,-4,-2,-3,-3
1529285723575793,-7,-13,-23,-26,-1,-5,-3,-5
1529285723575793,7,17,46,22,11,4,2,4
1529285723591572,-3,-7,-16,-5,-19,-10,-1,0
1529285723591572,3,-3,-5,3,-13,-3,-2,2
1529285723593564,9,8,15,14,48,14,8,0
1529285723593564,-3,-6,-16,-1,-1,-5,-2,-1
1529285723605702,-2,-5,-9,-13,-8,-1,-2,-2
1529285723605702,-4,6,21,-21,-8,-3,-3,-5
1529285723614157,2,-5,3,33,13,7,3,0
1529285723614157,-4,-15,-40,-34,-22,-9,0,9
1529285723629061,4,6,10,-1,19,3,2,4
1529285723629061,-4,-3,-12,10,10,2,4,1
1529285723635048,-1,3,-1,-11,-31,-8,-2,-3
1529285723635048,-3,-5,-10,-1,27,11,-4,-16
1529285723652226,2,-4,-8,4,-1,-8,-4,0
1529285723652226,3,3,15,21,16,-4,-4,-4
1529285723653787,1,0,-14,-39,-44,-7,1,2
1529285723653787,-1,-3,9,40,15,7,2,3
1529285723665184,-4,1,-6,-5,4,3,-2,-6
1529285723665184,-7,-2,4,23,0,-3,-3,-5
1529285723674163,4,13,46,25,-6,2,1,4
1529285723674163,2,-4,-14,-15,7,-3,0,0
1529285723689359,2,-4,-1,-21,3,3,0,0
1529285723689359,-1,-1,-14,12,-6,-4,0,-3
1529285723695291,-1,2,9,6,0,0,-4,-1
1529285723695291,-3,0,-7,-31,-7,-2,-3,0
1529285723712366,3,3,8,11,0,5,8,5
1529285723712366,4,-2,-8,-13,-1,-4,-9,2
1529285723713364,-5,-3,-2,-1,3,-1,2,1
1529285723713364,-5,-2,-7,7,-8,-4,-7,-30
1529285723733494,1,1,-2,-16,0,0,0,-3
1529285723733494,1,-2,-3,33,6,5,11,21
1529285723734307,3,5,10,-31,4,0,0,1
1529285723734307,7,4,18,42,2,3,3,10
1529285723749267,-1,1,-5,-1,0,1,-7,-4
1529285723749267,2,6,5,-13,-7,3,-1,-4
1529285723755437,-4,-11,-30,-17,3,1,-4,2
1529285723755437,-2,3,22,7,-13,-4,-1,1
1529285723771209,5,4,-3,-7,-9,-4,-2,-2
1529285723771209,1,6,17,13,8,1,1,1
1529285723772454,-4,-3,-5,5,11,-3,1,-4
1529285723772454,-4,-5,-13,-3,-14,-4,-1,0
1529285723793582,-4,-3,1,6,-7,-6,-3,-1
1529285723793582,-1,-2,-5,-13,-4,-1,0,-7
1529285723794398,0,1,4,10,3,-5,-5,-3
1529285723794398,4,0,0,3,-6,-1,4,6
1529285723809588,0,0,1,2,7,4,7,1
1529285723809588,-3,-1,-11,-15,-5,-1,-3,-8
1529285723815598,0,-1,0,10,-3,1,0,-5
1529285723815598,0,4,9,-4,-1,-3,-1,0
1529285723831531,0,1,0,14,4,5,4,4
1529285723831531,2,-3,-2,12,3,1,1,2
1529285723831531,3,-3,-9,4,6,2,0,1
1529285723831531,0,1,-3,-5,-12,-2,1,3
1529285723853469,-4,-1,-3,-6,-3,-1,-1,-6
1529285723853469,2,4,7,12,-1,0,-1,-2
1529285723854466,-3,-2,-5,3,-2,-5,-3,1
1529285723854466,1,0,-13,-8,2,0,-1,2
1529285723869512,-1,-3,-1,-6,0,0,0,1
1529285723869512,2,-2,-8,-5,0,-1,0,0
1529285723875666,3,-1,7,6,8,4,6,2
1529285723875666,-3,-2,-9,-12,-5,-2,-3,0
1529285723891140,1,-2,-1,0,-1,-3,-6,3
1529285723891140,-4,-1,-3,-10,-2,-1,0,-12
1529285723897998,-3,0,3,-1,-6,-2,2,4
1529285723897998,-3,-1,-1,-2,6,2,3,4
1529285723913969,-3,-1,1,20,1,-3,-1,-1
1529285723913969,-5,-4,-8,-16,-1,-1,0,-2
1529285723913969,-1,5,7,2,1,-1,-3,-2
1529285723913969,-1,-7,-10,-8,-10,-5,-3,-2
1529285723930052,1,1,2,-6,2,1,1,-1
1529285723930052,-4,0,-3,3,0,1,1,1
1529285723934954,-4,-5,-3,-2,-3,0,-4,-5
1529285723934954,5,-1,1,0,2,-2,-1,3
1529285723949914,-2,-6,-4,-8,-3,0,-3,0
1529285723949914,-2,3,14,2,0,1,-2,3
1529285723957891,-2,3,0,-3,-5,0,-3,1
1529285723957891,-2,-3,-6,-4,2,-2,-1,-4
1529285723973848,2,2,1,6,-1,-4,1,-2
1529285723973848,2,-4,-9,-1,5,2,1,0
1529285723973848,1,4,1,3,-4,-2,4,1
1529285723973848,-1,4,4,-7,3,-1,0,-2
1529285723989969,-6,-3,-10,-5,1,-2,-4,-3
1529285723989969,4,2,13,1,-2,-2,1,8
1529285723995972,1,0,-1,-1,1,-4,-6,-11
1529285723995972,4,-2,-8,2,1,-2,-5,7
1529285724010925,1,10,21,4,7,5,7,5
1529285724010925,-7,-9,-12,-4,-3,-3,-4,-1
1529285724017912,-1,-1,3,-9,-8,-3,0,-1
1529285724017912,-6,-6,-6,1,-7,-5,-6,-6
1529285724033867,2,-3,-4,-1,-3,-10,-6,-1
1529285724033867,-1,-2,3,2,-1,18,13,-1
1529285724034861,-2,-5,-3,2,21,10,4,1
1529285724034861,2,-1,-4,-5,-17,-5,-1,-1
1529285724058028,4,-1,-2,1,19,2,-1,-1
1529285724058028,0,3,-5,-9,-8,-10,-7,-2
1529285724058842,-5,0,-3,4,-1,-5,0,0
1529285724058842,-7,0,0,-8,1,1,0,-2
1529285724070503,-3,3,5,13,2,-3,-6,-4
1529285724070503,3,-4,-8,-5,-12,-2,-3,-3
1529285724077870,7,3,-1,2,-6,2,1,4
1529285724077870,-1,2,4,-3,7,1,-1,-1
1529285724093569,-11,-16,-32,-20,-17,-2,-1,-7
1529285724093569,-2,5,12,5,7,0,0,0
1529285724094403,0,3,9,4,-6,-6,-4,-1
1529285724094403,-4,-3,-1,3,2,3,4,6
1529285724109562,-2,-6,-10,-8,3,8,7,7
1529285724109562,3,-5,-5,-1,-5,-11,-13,-5
1529285724115573,0,-4,3,-1,-4,-10,-4,-4
1529285724115573,5,-8,-12,-2,3,9,9,-3
1529285724130839,6,10,14,6,2,14,10,3
1529285724130839,-3,2,0,2,1,1,1,2
1529285724137506,-2,2,2,3,-12,-5,-6,-3
1529285724137506,-5,-4,-8,-1,-17,-6,-9,-4
1529285724153609,-5,-1,5,5,20,-2,-5,-1
1529285724153609,-7,-9,-12,-5,1,-3,-2,-3
1529285724154441,6,9,17,8,10,3,1,1
1529285724154441,3,-4,-6,-6,2,-1,-3,-3
1529285724177429,7,4,11,-10,-29,-3,-2,1
1529285724177429,1,-7,-35,-15,3,1,-2,1
1529285724178377,1,9,17,6,8,5,4,3
1529285724178377,-2,5,4,-1,6,2,5,-2
1529285724190513,-1,1,-1,-2,3,-5,-3,-4
1529285724190513,-4,1,7,-7,-5,-1,1,-3
1529285724198327,-8,-13,-13,-5,-8,1,3,-1
1529285724198327,8,8,8,8,4,0,1,1
1529285724213847,-4,-7,-7,-5,-5,-5,-5,-2
1529285724213847,9,-2,8,6,1,5,3,7
1529285724214845,2,1,2,-1,2,2,1,1
1529285724214845,-8,-5,-1,0,1,0,-4,-3
1529285724229626,-6,-9,-4,-1,-1,-1,-3,-4
1529285724229626,1,2,4,2,1,1,2,1
1529285724235789,2,8,6,2,1,1,1,2
1529285724235789,-1,-1,-7,-2,3,-1,-3,2
1529285724250774,2,9,0,-6,-3,0,0,-3
1529285724250774,-5,6,12,5,2,-1,-1,-1
1529285724258113,-3,-12,-12,-8,-5,-3,-2,-2
1529285724258113,0,1,7,4,0,-3,-1,1
1529285724273501,5,-1,-3,-1,-2,0,-1,4
1529285724273501,4,1,1,-2,3,1,2,-3
1529285724274120,-2,-1,-4,-6,0,0,0,-2
1529285724274120,1,5,8,4,1,2,1,3
1529285724289407,-2,-6,-4,-6,-6,-3,-3,-2
1529285724289407,0,-2,-3,7,-2,-4,-6,-3
1529285724296127,4,7,12,2,-4,1,-1,4
1529285724296127,-6,-6,-8,-3,0,0,0,-2
1529285724310634,-1,-3,1,0,0,-2,-1,-1
1529285724310634,-6,1,-13,-7,-1,-2,3,-1
1529285724318502,-10,-4,0,4,7,0,0,-4
1529285724318502,-6,3,1,1,-2,-4,0,-5
1529285724334368,-2,-8,-6,1,-3,0,1,-5
1529285724334368,10,10,9,2,2,3,1,1
1529285724334368,10,-6,-7,0,-2,2,-1,-1
1529285724334368,3,-2,0,-1,1,2,1,-2
1529285724349319,0,1,5,6,-5,-1,0,-1
1529285724349319,-4,-7,2,-2,-5,-1,-2,-2
1529285724355307,2,-2,-3,1,1,1,1,0
1529285724355307,-2,-7,-3,2,-4,-1,-4,1
1529285724370477,-7,0,-2,1,1,-3,-6,-1
1529285724370477,-2,2,1,-4,-5,-5,-6,-3
1529285724377458,2,4,-3,1,-1,-4,2,0
1529285724377458,4,1,-4,-3,9,4,6,0
1529285724393968,0,2,5,9,-7,-6,-1,-3
1529285724393968,1,-2,5,9,6,5,4,-2
1529285724394656,-8,-2,-9,-7,-1,-8,-16,-4
1529285724394656,3,5,4,6,10,6,8,14
1529285724409991,0,0,-1,-13,-15,-7,-28,-6
1529285724409991,-25,-14,-8,-5,-5,-4,12,-8
1529285724415797,-5,-6,-3,3,0,-6,2,-14
1529285724415797,37,10,4,8,0,1,2,28
1529285724430944,7,2,-2,-11,3,6,2,21
1529285724430944,0,0,-10,-7,-7,-4,-4,0
1529285724437743,-4,-2,-5,-8,1,4,-2,2
1529285724437743,-20,-7,-6,-5,-6,1,-3,-17
1529285724454908,-19,-11,-6,4,12,-2,-2,-8
1529285724454908,9,0,-7,-10,-20,-14,-16,-8
1529285724455907,0,1,12,25,21,15,17,1
1529285724455907,-2,-4,-13,-49,-42,-29,-25,-7
1529285724470067,7,3,8,15,7,4,7,3
1529285724470067,-23,-6,4,9,9,4,-1,-2
1529285724475234,-30,-17,-9,-2,-15,-6,-6,-14
1529285724475234,41,35,19,16,31,17,16,20
1529285724491010,7,0,-1,-13,-12,-3,6,0
1529285724491010,4,-5,4,16,18,1,-1,5
1529285724498178,25,13,-2,-7,-4,-4,-3,9
1529285724498178,-33,-15,0,6,-5,4,5,-16
1529285724514162,10,9,-5,-10,-12,-10,-3,-1
1529285724514162,16,5,6,4,6,6,6,9
1529285724514162,-11,-13,-10,-12,-12,-8,-17,-5
1529285724514162,-6,-8,0,15,0,-1,0,-4
1529285724529204,-11,-2,0,2,4,4,6,-7
1529285724529204,1,6,4,-3,-4,-2,-5,-4
1529285724535297,11,9,-2,-7,5,2,4,3
1529285724535297,2,2,-6,-6,-10,-3,-2,-3
1529285724550246,2,-1,5,11,16,9,7,6
1529285724550246,-8,-6,-15,-11,-2,-4,-10,-1
1529285724558226,6,5,19,3,-7,4,5,10
1529285724558226,-9,-13,-15,-2,7,0,-2,-11
1529285724573010,-4,2,5,-6,-14,-1,0,-2
1529285724573010,1,2,2,21,28,1,2,1
1529285724574007,-4,-6,-16,-8,-9,-2,3,-2
1529285724574007,-10,-8,10,9,5,2,-1,3
1529285724588968,-4,-14,-21,-27,-14,-7,-4,-4
1529285724588968,11,16,22,-1,-22,0,2,6
1529285724594950,-5,-24,-69,-26,36,0,-4,-3
1529285724594950,10,34,69,30,6,4,6,5
1529285724610137,-4,-9,-5,5,-40,-17,-8,-5
1529285724610137,8,15,29,15,9,14,5,4
1529285724618435,-9,-4,-10,-27,-15,-10,-6,-2
1529285724618435,-14,-35,-77,-45,38,2,-8,-7
1529285724634101,6,1,19,31,-60,-9,-2,-3
1529285724634101,0,-6,-17,-8,-29,-11,-4,0
1529285724634101,7,5,11,10,6,6,5,2
1529285724634101,-17,-23,-27,-16,-18,-4,-5,-10
1529285724650085,9,18,6,-11,34,7,6,8
1529285724650085,-9,-6,1,-6,-31,-8,-4,-3
1529285724655249,-1,6,6,-4,1,6,-2,2
1529285724655249,3,1,-5,11,-22,-12,-1,0
1529285724670188,2,11,26,19,36,14,4,-3
1529285724670188,4,5,8,2,16,0,3,1
1529285724678510,-2,-13,-19,-20,-85,-12,1,4
1529285724678510,-3,0,5,15,71,12,-2,-1
1529285724693524,2,4,4,-9,-38,-15,-5,0
1529285724693524,5,10,5,11,42,17,3,2
1529285724694341,1,8,13,11,31,6,0,-2
1529285724694341,-1,-6,-1,-6,-33,-3,-3,-1
1529285724709301,-6,-3,-5,-5,21,-2,0,-4
1529285724709301,-10,-19,-25,-21,-15,-8,-2,-6
1529285724715285,-2,-1,6,1,-16,-9,-1,1
1529285724715285,10,22,30,15,3,2,2,4
1529285724731828,2,5,-3,6,27,11,2,2
1529285724731828,-1,-8,-9,-7,-8,-3,-2,-2
1529285724738080,-6,-4,2,10,21,6,0,-2
1529285724738080,9,14,9,6,-19,-3,3,2
1529285724754036,-3,-11,-14,-5,7,4,-1,-2
1529285724754036,-1,-3,-1,-2,-11,-2,-2,-1
1529285724754036,3,9,13,7,12,3,-2,-1
1529285724754036,-6,-5,-7,-9,-12,-2,-4,-4
1529285724769827,1,-1,-7,-4,1,0,0,-2
1529285724769827,4,-4,0,1,8,1,1,0
1529285724775815,3,6,6,8,6,2,2,2
1529285724775815,1,0,0,-6,-11,-4,-1,-1
1529285724790772,-6,-1,0,3,10,3,-2,0
1529285724790772,-3,-5,-3,-6,1,-3,-1,-2
1529285724797926,3,1,9,9,-2,-3,-3,-2
1529285724797926,-4,-5,-4,-6,-8,-4,-2,-4
1529285724814266,-1,-1,-5,0,10,-1,1,-1
1529285724814266,-4,3,-6,-5,4,-1,1,-1
1529285724814266,-1,1,5,0,-2,-3,2,0
1529285724814266,-3,-4,1,3,0,-1,-1,2
1529285724829462,1,-2,-1,-3,1,0,-1,0
1529285724829462,-2,2,-1,-1,-6,-1,-1,0
1529285724835612,-2,-1,3,2,-1,2,-1,0
1529285724835612,0,-4,-3,1,-6,-1,2,-2
1529285724850632,1,0,-5,-5,-1,2,-1,-1
1529285724850632,4,1,-2,1,-4,1,0,-3
1529285724857793,1,2,2,-1,4,0,-3,-1
1529285724857793,-2,-2,2,0,-3,-1,-5,-3
1529285724872792,-2,-2,-2,1,4,2,0,-2
1529285724872792,-2,2,2,-3,0,-1,0,1
1529285724881209,3,1,-2,-1,1,0,1,2
1529285724881209,-4,-3,-1,-1,-5,-2,1,-2
1529285724889343,-2,-2,0,2,0,-1,1,1
1529285724889343,3,0,-4,-11,-1,1,1,1
1529285724895349,1,0,4,20,1,-2,0,1
1529285724895349,0,6,2,-3,2,-1,1,-1
1529285724910350,2,3,2,-2,1,0,-2,-3
1529285724910350,3,-1,-2,-3,-8,-5,-4,-1
1529285724917689,0,1,-2,-11,-5,-1,-2,-3
1529285724917689,-4,-5,-1,2,0,-2,-4,-2
1529285724932473,-9,-8,-2,1,2,1,-2,-1
1529285724932473,-4,-5,-1,-1,2,1,-1,-1
1529285724940607,1,-6,2,0,-2,-1,0,0
1529285724940607,7,-2,1,-1,-3,-2,0,2
1529285724949426,-1,5,-4,-3,-2,-1,2,3
1529285724949426,-2,4,-1,5,2,0,-2,3
1529285724955720,0,4,0,-1,-1,-1,0,1
1529285724955720,-3,3,-1,-3,-2,-3,-1,-1
1529285724971047,2,-1,-2,-4,-3,-2,0,-2
1529285724971047,-2,-1,-1,1,0,-2,2,-4
1529285724977696,0,-2,-3,0,3,1,1,-2
1529285724977696,3,-1,-1,-1,0,2,-3,1
1529285724992685,1,-3,-1,-1,1,-1,-2,-6
1529285724992685,-7,-4,2,3,1,-1,-1,-5
1529285725009610,-5,-3,0,-3,-3,-1,1,-3
1529285725009610,-7,1,-3,0,-2,-1,2,3
