timestamp,emg1,emg2,emg3,emg4,emg5,emg6,emg7,emg8
1528270451322315,2,1,0,0,-17,-1,0,3
1528270451322315,1,-11,3,-2,8,1,0,6
1528270451336279,4,5,-7,-11,-2,2,4,6
1528270451336279,-5,-1,2,14,20,-2,1,-4
1528270451344258,-10,-10,-6,1,6,2,-4,-6
1528270451344258,-3,1,-3,-1,-11,-6,0,0
1528270451357224,-8,-2,0,0,-23,-7,0,-3
1528270451357224,-1,-3,0,3,25,12,6,4
1528270451400107,5,2,1,2,20,2,0,0
1528270451400107,1,2,-2,-1,-5,1,1,-2
1528270451403100,-2,0,3,4,-11,-3,2,1
1528270451403100,-3,-4,2,-1,24,5,1,0
1528270451404097,-3,-2,2,22,-14,-3,-3,0
1528270451404097,2,-3,-7,-26,-2,-1,-2,-1
1528270451405094,3,2,0,4,-7,-7,0,0
1528270451405094,-2,0,-4,-42,-14,-6,-3,-2
1528270451410083,-3,-5,1,-3,-3,-6,-6,-4
1528270451410083,-1,-2,4,19,29,18,4,1
1528270451417062,-2,1,2,13,-8,-8,-2,1
1528270451417062,-1,1,-1,-10,11,15,4,1
1528270451433018,-1,1,0,4,-8,-4,-1,-2
1528270451433018,-2,-3,2,12,1,1,-3,-3
1528270451440001,0,2,5,-14,2,-1,2,-4
1528270451440001,0,-7,-4,28,-12,-3,-1,-3
1528270451446983,1,-6,-8,-40,13,9,0,1
1528270451446983,-1,-2,-2,-7,0,-10,-5,1
1528270451470918,-3,-4,-1,4,5,-4,-7,-2
1528270451470918,-2,1,6,43,-6,0,-3,-2
1528270451471916,2,2,-1,11,-19,1,3,2
1528270451471916,-13,-19,-19,-67,-9,-5,-3,-4
1528270451484881,5,-3,-2,-2,-6,-8,-3,-1
1528270451484881,4,7,3,-13,-19,-18,-3,0
1528270451485878,-2,-2,-1,34,20,8,4,0
1528270451485878,4,5,6,7,-14,4,4,1
1528270451507821,-4,3,-1,-11,11,10,-1,-3
1528270451507821,-1,-2,-2,22,0,3,-2,-2
1528270451508818,-2,3,-1,-31,-25,-4,-1,0
1528270451508818,-3,-6,0,0,-19,-10,-3,-2
1528270451530759,-4,-5,-1,8,33,6,3,0
1528270451530759,2,4,-5,-18,-33,0,0,-2
1528270451531757,-2,5,-2,-17,-19,-4,-4,-2
1528270451531757,2,2,3,19,39,4,-1,0
1528270451545718,-1,-1,-2,8,-33,-3,-4,0
1528270451545718,-2,-2,-3,-12,27,12,3,1
1528270451545718,-3,3,-4,-10,-5,-14,-7,-2
1528270451545718,1,0,0,6,-23,-3,1,0
1528270451568658,-1,-4,0,4,-13,-7,1,-1
1528270451568658,-2,4,3,5,36,11,6,2
1528270451575639,5,-3,-1,3,6,14,4,1
1528270451575639,-2,-2,-2,26,0,-8,-7,-2
1528270451590599,-1,-1,-4,-68,-28,-13,-6,-4
1528270451590599,-1,2,1,4,15,2,1,0
1528270451597581,8,6,8,22,8,1,-1,3
1528270451597581,-5,-17,-2,15,-7,-4,-2,-2
1528270451605594,-3,-4,-6,-50,-3,-3,-3,-4
1528270451605594,-7,-7,-3,-17,-17,-9,-2,-2
1528270451606557,-6,5,2,18,9,-1,0,-2
1528270451606557,-10,9,2,28,23,13,6,-1
1528270451636475,10,7,-2,1,-2,5,0,3
1528270451636475,19,10,-1,3,-5,-7,-5,1
1528270451636475,-7,-11,-4,6,4,-9,-1,0
1528270451636475,-2,1,1,-27,-17,-2,-5,-1
1528270451651479,-6,2,0,42,6,1,-3,0
1528270451651479,-4,-6,-4,-53,-3,-2,1,-4
1528270451651479,-5,-4,-8,14,-5,-7,-4,-1
1528270451651479,5,7,-9,-13,-9,-13,-4,-3
1528270451665437,-4,7,15,36,22,19,9,1
1528270451665437,-3,-6,-3,-14,-7,-5,-4,-2
1528270451666397,-1,0,-1,-15,-11,-5,-1,-4
1528270451666397,-1,-1,1,-15,-26,-10,-3,-2
1528270451688349,6,12,-3,26,24,2,-1,1
1528270451688349,-6,-10,-3,23,0,6,1,0
1528270451688349,0,-6,0,-18,14,12,2,0
1528270451688349,6,3,-2,6,-7,-7,-7,3
1528270451711288,-2,-6,-8,32,-3,-1,-5,-4
1528270451711288,9,-4,-3,-27,-9,-12,-6,-1
1528270451712273,-23,8,-7,-9,0,3,3,-3
1528270451712273,6,-2,10,6,6,2,4,14
1528270451725239,-6,-5,5,11,0,1,0,-12
1528270451725239,46,24,2,-12,-5,-4,-2,2
1528270451726236,-1,-3,8,-9,-11,-6,-6,-5
1528270451726236,2,0,-4,-8,-4,-4,-2,-3
1528270451748225,-17,-16,-8,-2,17,13,9,4
1528270451748225,2,-2,4,30,-5,-8,-7,-2
1528270451749222,5,0,3,-2,-1,-1,2,0
1528270451749222,-3,3,-4,-12,1,3,-1,-2
1528270451771125,21,-2,0,-8,-11,-6,-6,2
1528270451771125,-16,-13,-4,14,-2,-5,-2,-3
1528270451772114,1,-10,-1,-16,3,6,2,1
1528270451772114,-13,-6,-1,7,7,3,-1,-5
1528270451785078,-3,-2,1,-6,-2,-4,-2,-1
1528270451785078,-12,1,8,20,-8,-2,-3,-2
1528270451786076,-7,0,-7,-53,-1,-1,0,-2
1528270451786076,9,4,3,50,4,2,1,0
1528270451808019,2,-1,-3,-86,-21,-8,-4,-1
1528270451808019,-15,-4,-9,25,12,3,4,7
1528270451809052,16,-1,2,19,1,-2,-3,-7
1528270451809052,6,-1,5,3,-2,-1,-3,-4
1528270451831980,-8,-7,-2,9,-1,-3,-1,-3
1528270451831980,-5,4,1,-14,-13,-3,-1,-1
1528270451832976,-2,5,1,13,8,2,-1,-1
1528270451832976,2,-2,-10,-20,1,0,1,-4
1528270451844971,4,4,6,13,-3,-2,-10,13
1528270451844971,-4,-4,1,-12,-1,0,11,-10
1528270451860911,0,-7,-7,11,0,-2,0,2
1528270451860911,-7,-14,-5,-9,-4,-4,-2,-5
1528270451867857,3,-1,0,0,4,2,5,0
1528270451867857,-5,-2,0,6,5,2,-3,1
1528270451868855,1,5,0,0,-4,-2,-1,1
1528270451868855,-9,11,-5,-13,-7,-6,-3,-4
1528270451890832,17,6,-6,-1,-1,-5,-5,-1
1528270451890832,-4,-1,-7,-5,3,4,3,0
1528270451891793,-3,-4,1,13,5,0,0,0
1528270451891793,-2,1,2,-8,0,3,1,2
1528270451904758,-1,0,-6,3,5,2,1,-4
1528270451904758,-3,-8,1,0,-5,-6,-6,-3
1528270451912770,2,0,-9,-1,-7,-8,-5,0
1528270451912770,2,3,2,13,4,1,2,2
1528270451927697,-9,-2,-4,26,4,1,2,-3
1528270451927697,-4,0,-8,-46,-8,-1,-3,-4
1528270451928697,-2,2,1,-1,-4,-1,-1,1
1528270451928697,3,4,3,-12,-14,-3,-2,-1
1528270451967625,-7,-4,-1,14,8,-2,-2,-4
1528270451967625,0,-3,-2,6,-4,-2,-3,2
1528270451967625,1,-2,6,0,1,3,2,-1
1528270451967625,0,-10,-9,-2,11,2,2,-1
1528270451969586,1,5,6,-6,-19,-2,2,-1
1528270451969586,-1,-6,-3,8,4,-2,-2,-2
1528270451972577,0,-10,-3,-10,-6,-7,-4,-3
1528270451972577,-3,4,4,-1,-6,0,1,0
1528270451987539,-6,-12,-10,-5,12,3,-1,-2
1528270451987539,-1,9,0,-2,-6,0,-1,-1
1528270451988534,-1,-7,-6,10,-2,-3,-1,-2
1528270451988534,-3,-2,3,0,3,-1,0,-1
1528270452011473,1,5,-13,-14,-5,-2,-1,-1
1528270452011473,1,3,1,3,0,-2,-3,-1
1528270452011473,-4,-2,-4,5,3,-1,0,-2
1528270452011473,0,-1,-2,-9,7,3,-1,2
1528270452024464,-3,-2,6,16,-12,-4,-2,0
1528270452024464,-2,-2,0,4,6,1,3,1
1528270452033003,2,5,4,-12,-20,-4,-5,-2
1528270452033003,-1,-5,-4,-4,8,4,0,-2
1528270452047254,0,0,-3,-10,1,1,-2,-2
1528270452047254,-3,1,4,22,-1,-4,-2,-2
1528270452063212,-1,-5,2,3,1,-2,1,-3
1528270452063212,-1,-4,-5,13,3,3,0,0
1528270452070201,-1,-3,-4,-38,-9,-4,-2,-3
1528270452070201,-1,3,0,-1,-1,-1,-4,1
1528270452086511,-1,-1,3,-4,5,1,-2,1
1528270452086511,0,4,0,3,-2,-3,-2,0
1528270452088147,-3,0,1,5,2,0,0,-1
1528270452088147,-3,-4,0,-2,0,-1,0,-2
1528270452100381,-1,3,-6,-3,0,3,0,0
1528270452100381,1,0,0,12,-4,-2,-2,-4
1528270452108092,-3,-2,-4,-16,-2,0,2,0
1528270452108092,0,-1,-4,-8,2,0,0,0
1528270452109091,-2,1,-3,14,1,-1,-1,0
1528270452109091,0,0,-1,-6,-4,-3,-1,-4
1528270452131031,-2,-2,1,1,-3,-2,1,-1
1528270452131031,-2,-6,0,13,-1,1,0,-1
1528270452132028,-1,-1,-2,-5,1,0,-3,0
1528270452132028,0,0,4,-10,-3,-3,0,0
1528270452145025,-1,2,1,3,0,-2,-2,-2
1528270452145025,-4,-5,-5,-2,-4,0,-1,-2
1528270452153972,-1,1,-1,9,2,1,-1,-2
1528270452153972,-4,2,0,-5,-2,-1,0,-1
1528270452166992,1,-3,0,8,2,1,0,0
1528270452166992,-1,-5,-17,-16,-3,-5,-3,-1
1528270452177054,0,-2,0,-7,1,0,0,1
1528270452177054,2,-4,-14,-10,-4,0,2,0
1528270452190886,2,8,8,9,2,-2,-1,-1
1528270452190886,1,18,4,13,1,-2,-3,-2
1528270452192866,-4,8,0,1,0,-2,-2,-4
1528270452192866,-2,-11,-9,-32,-7,-1,1,-1
1528270452204867,2,-4,5,8,-1,1,-1,0
1528270452204867,-1,-14,3,-15,-2,5,1,1
1528270452213810,2,22,2,4,0,1,1,1
1528270452213810,0,16,11,13,-7,-4,-3,-1
1528270452227904,-3,-13,-4,-17,-9,-5,-3,-4
1528270452227904,0,-13,5,12,11,-2,-2,-1
1528270452236089,1,-17,-14,-9,8,-2,2,1
1528270452236089,-8,-6,-4,4,-3,-6,-6,-2
1528270452250991,-5,27,-13,-4,8,-5,-2,-3
1528270452250991,-4,5,-5,-22,-37,-19,-12,-7
1528270452252987,1,-16,16,-2,21,-2,-3,-1
1528270452252987,-17,-85,-40,6,-3,-2,-3,-5
1528270452273951,11,-13,5,11,-43,20,9,4
1528270452273951,1,6,34,17,35,15,4,-3
1528270452274929,21,42,41,5,-25,-8,-2,4
1528270452274929,-8,-22,3,16,29,18,9,0
1528270452286895,-4,-18,-31,-20,6,-14,-12,-4
1528270452286895,-8,-30,-27,-6,-12,-3,3,-2
1528270452295917,-4,-15,-27,-14,-5,4,0,-5
1528270452295917,8,39,16,9,13,-3,-3,1
1528270452310886,2,10,-12,3,2,8,5,-2
1528270452310886,2,-6,-18,-15,-10,0,9,11
1528270452312826,-4,0,-10,9,0,-9,-9,0
1528270452312826,12,34,7,3,-3,10,7,3
1528270452333824,-9,-15,-17,-14,1,-5,-10,-7
1528270452333824,0,15,0,-11,-15,-14,-11,1
1528270452334822,-2,8,14,2,-5,6,4,-5
1528270452334822,-6,-1,19,-13,-8,4,0,11
1528270452355712,18,67,92,20,16,2,0,-3
1528270452355712,-6,-45,-12,6,6,0,-1,-3
1528270452357707,-18,-36,-30,-13,-12,-1,1,-3
1528270452357707,0,12,11,-6,-5,-9,-8,-9
1528270452378706,-9,-43,12,-3,-2,-5,1,0
1528270452378706,11,35,61,16,17,2,1,3
1528270452380700,-16,-42,-19,-12,-5,-5,-3,-7
1528270452380700,10,26,8,-3,-1,-14,-7,0
1528270452393619,-18,-65,-46,-7,-9,-2,0,0
1528270452393619,10,6,1,6,2,0,1,9
1528270452395624,18,-46,33,-6,5,0,2,-1
1528270452395624,19,-104,-16,5,-2,2,3,1
1528270452423586,-7,40,-12,6,14,7,1,2
1528270452423586,-17,-79,-58,-19,-13,-6,-6,-11
1528270452425551,2,-18,-25,9,7,-2,-2,2
1528270452425551,-16,96,-2,-8,-8,-5,-7,-3
1528270452429569,1,-2,-22,-1,2,2,3,-1
1528270452429569,2,16,-5,4,6,4,-1,-2
1528270452438550,-7,61,9,2,-4,2,0,1
1528270452438550,3,8,-5,0,1,1,1,-6
1528270452453450,-2,-13,16,-3,-5,-8,-2,-1
1528270452453450,0,29,-1,-1,0,4,6,0
1528270452455446,0,27,14,3,1,0,3,-3
1528270452455446,-5,-6,0,-1,-3,-4,2,-5
1528270452476444,18,25,15,2,1,-3,4,34
1528270452476444,-30,39,-2,-16,-5,-5,-1,-27
1528270452477403,8,-7,22,2,1,0,0,-6
1528270452477403,-6,-19,-26,0,0,-3,1,-2
1528270452489411,-20,41,-11,-3,-4,-4,1,-6
1528270452489411,13,20,24,10,3,-2,2,10
1528270452506324,-10,-1,-52,-10,-7,-4,0,2
1528270452506324,-19,15,-13,-9,0,-6,-7,-17
1528270452513347,31,22,0,1,-2,0,3,-2
1528270452513347,4,-5,26,9,2,2,0,15
1528270452519330,-7,14,-14,-4,2,6,1,-6
1528270452519330,4,4,-35,-14,-13,-7,0,9
1528270452536287,3,8,33,22,15,-1,-12,-5
1528270452536287,18,0,0,37,8,2,3,1
1528270452537227,-10,95,68,3,-5,0,10,18
1528270452537227,24,90,-46,-16,-12,-8,-7,-16
1528270452550218,-21,44,-29,-57,-4,2,2,-6
1528270452550218,-20,-43,-6,-40,-10,-8,-22,-12
1528270452559168,19,-128,-46,91,6,-5,-7,7
1528270452559168,-12,-48,10,-77,-15,4,2,-1
1528270452572512,-6,-85,66,39,-5,-4,-12,-9
1528270452572512,6,-82,15,7,11,10,18,7
1528270452581111,-11,-16,35,-32,-27,-13,-20,-6
1528270452581111,4,-9,116,127,3,-1,8,9
1528270452596437,-1,-118,-68,-105,-5,-2,-2,-5
1528270452596437,-5,-86,35,44,35,10,4,-1
1528270452598432,-7,-102,-51,-88,-13,-6,-2,-6
1528270452598432,1,-128,-12,-88,-8,4,-5,1
1528270452610507,-5,-86,53,121,4,-3,4,-4
1528270452610507,6,-14,34,21,-15,-4,-2,4
1528270452618689,8,-5,-2,21,20,10,8,3
1528270452618689,-7,-51,-55,-6,-1,-14,-8,-5
1528270452634332,2,-1,-28,-63,23,1,3,4
1528270452634332,-3,16,-31,-11,-16,2,1,-1
1528270452640560,0,2,1,45,7,-1,-1,-3
1528270452640560,-8,61,-26,-3,-4,5,-2,1
1528270452656102,0,51,46,76,-1,-4,-4,-1
1528270452656102,7,9,-46,7,-13,-8,-4,4
1528270452657867,-5,-58,52,16,30,14,-3,-1
1528270452657867,2,-61,-17,9,1,-6,-1,-16
1528270452670011,3,-11,-26,-34,-6,-2,-3,-1
1528270452670011,-3,-12,-23,-68,7,6,1,-5
1528270452678781,-4,12,-12,91,-28,-11,-7,-8
1528270452678781,-1,7,-41,-32,2,4,3,8
1528270452693780,0,5,32,53,17,5,-1,-2
1528270452693780,-2,22,-17,-28,-9,-7,-4,-8
1528270452699989,3,24,-29,-32,-7,-11,0,6
1528270452699989,-2,17,41,9,10,10,5,6
1528270452716547,-1,15,-11,-3,-10,4,4,-2
1528270452716547,0,16,-3,-9,10,7,2,5
1528270452718201,5,27,-9,-47,1,6,8,2
1528270452718201,1,15,45,17,-11,-8,-3,3
1528270452730180,-6,-1,-31,-26,-18,-6,-4,-2
1528270452730180,-1,33,-3,7,5,1,1,-4
1528270452739145,3,12,22,12,2,-2,-4,-3
1528270452739145,19,-3,-2,35,12,6,0,0
1528270452753108,-22,-11,-40,-83,-6,-1,1,0
1528270452753108,-3,11,8,34,-8,-7,-8,-3
1528270452767317,-2,1,-8,-20,-9,-1,1,-4
1528270452767317,1,-6,32,41,10,3,0,6
1528270452776374,10,-3,-12,-78,-10,-3,-1,-2
1528270452776374,-2,-7,14,36,5,-3,-5,-4
1528270452777354,-4,12,-1,-41,-3,6,2,-3
1528270452777354,-4,5,0,-5,7,3,0,-1
1528270452799317,2,9,14,39,-3,-4,-2,-1
1528270452799317,-3,7,-13,-43,-8,-7,-2,-4
1528270452800292,1,19,-1,30,10,0,1,1
1528270452800292,-5,3,7,-12,-1,1,1,1
1528270452813638,-3,-6,-25,11,4,0,0,-2
1528270452813638,2,8,-1,-5,-6,0,1,-1
1528270452820245,-3,8,0,12,4,-2,-2,17
1528270452820245,1,9,20,1,-4,-5,-4,-15
1528270452836542,-2,0,-16,20,-3,1,-1,-2
1528270452836542,-2,-8,-21,-18,-4,-1,-3,-4
1528270452838190,1,-2,4,-23,-3,0,-2,0
1528270452838190,-6,-8,-7,-23,-2,-1,-2,5
1528270452858527,1,-7,11,39,8,3,3,2
1528270452858527,1,-4,17,23,-6,-5,-4,1
1528270452865131,-2,3,-17,-20,-4,-6,-4,-8
1528270452865131,-2,-4,27,0,0,-2,-1,1
1528270452873097,-2,-7,-13,18,-1,2,-1,-5
1528270452873097,-3,-2,2,-8,-6,1,-1,0
1528270452881341,-2,4,9,8,-5,-2,-2,-4
1528270452881341,-3,-2,-21,10,5,5,1,-1
1528270452896579,1,5,15,-4,2,-3,-2,4
1528270452896579,0,1,1,-4,-6,-1,0,-2
1528270452898555,-3,0,5,-6,2,0,-1,-4
1528270452898555,-1,1,-4,-6,-7,-5,-3,2
1528270452919421,3,0,0,-14,-4,0,0,0
1528270452919421,-1,2,0,17,0,-4,-1,1
1528270452920162,-1,-1,1,-13,-5,-2,-1,-6
1528270452920162,-2,0,-2,-7,-1,2,1,1
1528270452932129,-2,-3,-3,0,-4,-3,-2,-3
1528270452932129,0,1,6,0,-1,0,-1,0
1528270452941107,0,-7,-8,-9,0,0,-2,-1
1528270452941107,-3,-4,-1,-1,-2,-2,-1,-2
1528270452956078,-1,-3,3,6,-2,-3,-2,-1
1528270452956078,0,2,-7,-5,-2,1,3,-1
1528270452958060,-7,-25,-3,-8,-3,-3,-2,-5
1528270452958060,-1,-8,-6,-3,-1,0,-3,4
1528270452979037,-4,-3,-3,0,-4,-3,-2,-4
1528270452979037,-1,-7,2,-13,0,-2,1,-1
1528270452980154,1,0,-3,10,2,-2,-1,-2
1528270452980154,-1,-1,-1,1,1,0,-2,-4
1528270452992271,1,0,3,0,-1,0,-1,1
1528270452992271,-1,8,3,2,-2,-2,-1,0
1528270453009226,0,-2,-1,-5,2,1,2,21
1528270453009226,19,1,-4,-1,-2,1,-1,-20
1528270453015558,-20,-2,4,1,-3,-1,-3,-4
1528270453015558,-9,-5,-12,-7,0,-3,4,3
1528270453024186,32,19,2,3,-1,-1,-4,-5
1528270453024186,-1,-1,-1,-3,-3,-2,-2,6
1528270453039321,5,0,-3,-2,-2,-1,2,-1
1528270453039321,-1,-1,-7,2,0,-2,-3,1
1528270453040322,-12,0,-1,-8,-2,-2,2,-6
1528270453040322,-5,0,-4,0,-1,-1,4,7
1528270453052618,8,3,2,-1,-3,-1,-6,-6
1528270453052618,-2,-2,-4,-2,0,0,-2,0
1528270453061594,-4,-3,-1,-4,-2,0,0,-4
1528270453061594,-7,2,0,-3,-1,-1,-4,-2
1528270453076794,-5,-2,-1,1,-1,2,0,5
1528270453076794,4,-3,6,-1,-1,1,-1,-1
1528270453077737,-3,-3,1,-3,0,-1,-1,-3
1528270453077737,-5,-2,4,1,-1,-3,-2,1
1528270453098731,0,3,-2,-3,-1,-4,-1,2
1528270453098731,-2,-1,-2,-2,-1,-1,-1,-6
1528270453100460,-3,2,-4,-1,-1,-2,-2,-1
1528270453100460,-4,-2,-5,-2,-3,-2,1,1
1528270453114382,3,0,-4,-2,0,-3,0,-2
1528270453114382,3,-2,-4,-2,-2,0,-2,-4
1528270453121367,-4,-2,-5,1,2,2,1,0
1528270453121367,0,-1,-3,0,0,-2,-1,-1
1528270453136759,1,0,0,-1,0,0,0,-2
1528270453136759,-1,-3,1,0,-1,0,-3,-1
1528270453137683,-5,-1,3,-2,-4,-1,-1,-4
1528270453137683,-2,-1,1,-1,0,-2,0,0
1528270453158971,-1,-5,-1,-1,-1,-1,-1,-3
1528270453158971,0,-3,-2,-2,-2,-2,0,2
1528270453160617,-2,-1,1,0,1,-2,0,0
1528270453160617,-3,1,1,-1,0,-2,-2,0
1528270453180563,-2,1,0,-1,-3,-2,1,1
1528270453180563,0,-2,-1,-1,-2,0,-1,0
1528270453188542,-2,-3,-2,-2,-2,-1,0,-4
1528270453188542,-1,-3,-6,0,0,0,-1,-2
1528270453196573,0,0,-6,-1,-1,-3,-2,1
1528270453196573,1,6,0,-2,-3,-4,-4,-2
1528270453197614,-3,15,-1,-3,-1,-2,-4,-2
1528270453197614,-2,4,2,-1,2,1,1,0
1528270453218799,-1,-9,0,-1,1,0,2,-2
1528270453218799,-1,-9,3,0,0,-2,2,0
1528270453220459,0,-1,-4,-1,-1,-2,-2,-1
1528270453220459,-1,36,-1,-1,-4,-3,-1,-1
1528270453233062,0,35,3,3,-1,0,-1,1
1528270453233062,-1,5,-7,-1,1,0,-1,1
1528270453240709,0,5,-2,-3,-1,-2,-4,-1
1528270453240709,-5,-21,0,0,-2,-3,2,-1
1528270453256919,5,-39,5,-1,1,2,-1,2
1528270453256919,-4,-35,-4,2,-2,-3,-3,-4
1528270453257663,-1,-18,4,2,1,3,1,0
1528270453257663,-2,0,-1,0,0,1,-2,0
1528270453286583,-3,2,0,-3,-3,-1,0,0
1528270453286583,3,-28,0,-2,0,-1,1,-1
1528270453287581,-1,-34,-8,-4,-1,0,1,-2
1528270453287581,-1,-27,-2,-1,-1,-2,-3,0
1528270453292744,-5,-17,-10,-10,-7,-1,-1,-3
1528270453292744,-1,23,13,3,1,-1,-4,-1
1528270453301544,-6,7,-8,-1,-2,-3,-3,-1
1528270453301544,0,4,2,-1,-1,-2,-3,0
1528270453316771,1,4,-2,-2,-3,-3,-2,-1
1528270453316771,0,15,0,-2,0,-1,0,-2
1528270453317509,1,12,4,1,1,0,-1,-1
1528270453317509,1,3,3,2,1,1,0,1
1528270453338451,-1,5,3,2,1,0,0,-2
1528270453338451,-1,2,-5,-4,-2,0,-1,0
1528270453340439,0,4,2,0,0,-1,0,1
1528270453340439,-2,-4,-5,-4,-2,0,-1,-1
1528270453352412,0,7,2,2,2,-2,-2,-2
1528270453352412,-3,3,-7,-3,-1,0,1,-2
1528270453361390,-1,-1,-9,-8,-5,-3,-1,0
1528270453361390,-3,-5,-6,-3,-4,-3,-4,-3
1528270453376343,1,3,-3,-1,-1,-1,0,0
1528270453376343,0,6,-3,-3,-1,-2,1,0
1528270453377607,-1,3,2,2,-1,0,-1,-3
1528270453377607,-1,3,0,1,0,0,-1,-2
1528270453398285,-2,0,-2,2,-2,0,-2,-2
1528270453398285,-3,-2,-4,0,0,-1,-2,-1
1528270453400281,0,2,0,0,2,-3,-2,0
1528270453400281,-1,0,-2,-1,-1,-2,-2,0
1528270453412248,-2,1,-2,1,-2,-1,-1,-1
1528270453412248,3,6,0,2,0,2,-1,0
1528270453421223,-8,-2,-7,-1,-1,1,-4,-7
1528270453421223,-10,-11,-21,-1,0,-1,-22,-9
1528270453436556,-9,-42,-36,-5,-2,-5,-43,-14
1528270453436556,-8,-45,-39,-14,-5,-6,-43,-10
1528270453438499,-1,-26,-15,-12,-5,-1,-13,-4
1528270453438499,4,1,14,-6,-2,3,15,11
1528270453458446,5,28,40,5,1,5,44,17
1528270453458446,5,30,48,14,3,4,49,12
1528270453460440,4,26,40,13,1,0,35,6
1528270453460440,3,22,29,11,2,-4,21,2
1528270453472411,5,16,18,5,0,-2,13,3
1528270453472411,2,11,5,-3,-2,-4,2,-2
1528270453481385,3,10,5,-1,-1,-4,-7,-3
