timestamp,emg1,emg2,emg3,emg4,emg5,emg6,emg7,emg8
1528278499395419,-2,-1,0,-2,-1,0,-1,0
1528278499395419,-2,0,-1,-1,-1,-1,-1,0
1528278499410377,-1,-1,0,0,0,1,-1,-1
1528278499410377,0,0,0,0,1,1,0,-1
1528278499411376,0,-1,-1,0,0,-1,-2,-1
1528278499411376,1,-1,-2,0,-2,-2,0,-3
1528278499418357,0,-2,-2,-2,-2,0,0,1
1528278499418357,-1,-1,0,-1,0,-1,0,0
1528278499441295,0,0,0,0,-1,-1,-1,1
1528278499441295,-1,2,-1,-1,0,-1,-1,-1
1528278499441295,0,0,-2,-1,0,-1,0,-2
1528278499441295,1,-1,-2,0,-1,-1,-2,-2
1528278499488172,-1,-1,0,0,-1,-1,0,-1
1528278499488172,-1,-2,0,0,1,0,0,0
1528278499488172,0,-1,1,1,-2,-3,1,-2
1528278499488172,-2,-1,-1,0,-1,-2,1,-1
1528278499492160,-1,-1,-1,0,0,0,2,-1
1528278499492160,-1,-2,0,-1,-2,-1,-1,0
1528278499493157,-1,2,-1,0,0,-1,-1,0
1528278499493157,-1,-1,0,0,-1,0,0,-2
1528278499498144,-1,-2,-1,-1,-1,0,-1,0
1528278499498144,0,-1,-1,1,-1,0,-1,1
1528278499507119,1,0,0,0,-2,-2,0,-1
1528278499507119,0,1,1,-1,-2,0,0,-1
1528278499513103,-1,-1,-1,-1,0,-1,-2,0
1528278499513103,-1,-2,-1,-1,0,0,0,0
1528278499529061,-1,-1,-1,-2,0,-1,-1,0
1528278499529061,0,0,0,-1,-1,0,-1,0
1528278499536042,0,0,-1,-1,-2,0,-1,-2
1528278499536042,-1,-1,-2,-1,0,-1,-1,-1
1528278499559978,0,-1,-2,0,-2,-1,-1,1
1528278499559978,1,0,-1,0,0,-1,0,0
1528278499561988,-2,1,-1,1,-1,-1,-2,-1
1528278499561988,-2,-2,-1,-2,-1,0,0,-1
1528278499573952,0,1,1,-1,0,-1,-1,-1
1528278499573952,-1,-1,-1,0,-1,1,-1,-2
1528278499582916,0,-1,-1,-1,-2,-1,-1,0
1528278499582916,-1,-1,0,-1,-3,1,0,-2
1528278499597880,1,-2,-3,2,-1,1,0,1
1528278499597880,-1,0,1,0,-1,-2,-1,0
1528278499598882,-1,0,0,1,-2,1,2,0
1528278499598882,-2,-1,1,0,1,-1,-1,0
1528278499619817,1,0,-3,0,-1,-1,0,-1
1528278499619817,-2,-1,0,0,-1,-1,-1,0
1528278499621812,-2,0,-1,0,0,-1,0,0
1528278499621812,-2,-2,0,1,-1,0,0,0
1528278499633781,0,-1,-2,-2,0,0,-2,1
1528278499633781,-1,0,-1,-1,0,-2,-1,-1
1528278499642757,-1,0,0,-1,-2,-1,-1,0
1528278499642757,-1,-1,-1,-1,-2,0,0,-2
1528278499657717,0,-1,-1,-1,-1,1,-1,-1
1528278499657717,0,-2,-2,0,0,-2,0,-1
1528278499658726,1,0,0,-2,-1,1,-2,1
1528278499658726,1,0,0,-2,-1,-2,-1,-1
1528278499678661,-1,-1,-2,0,-2,0,0,-1
1528278499678661,0,-2,-1,-2,0,-1,0,-1
1528278499694618,-2,0,1,0,1,-2,0,-1
1528278499694618,-1,1,-2,-1,-1,1,-1,0
1528278499694618,-3,0,0,0,-1,-1,-1,0
1528278499694618,-1,1,-2,-1,-1,0,0,-2
1528278499702597,1,-1,0,-1,-2,-2,0,-1
1528278499702597,0,-2,1,-2,0,-1,-1,0
1528278499716559,0,-3,-1,-1,-1,-1,-1,0
1528278499716559,0,1,-1,-3,-1,-2,-1,-2
1528278499723541,0,0,-1,-1,0,-1,1,-1
1528278499723541,-1,-1,0,-1,-1,0,-2,1
1528278499739498,-1,-1,-2,-1,-1,0,-1,1
1528278499739498,0,-2,0,1,-2,0,-1,-1
1528278499741494,0,-1,0,1,0,0,0,0
1528278499741494,1,-1,-1,-1,1,0,0,0
1528278499753461,-1,-1,0,0,-1,-1,0,-1
1528278499753461,0,1,-2,-1,0,-1,-1,-2
1528278499762437,0,-1,0,0,0,-1,-1,-1
1528278499762437,-1,-2,0,-1,-1,0,-1,0
1528278499776399,0,0,-1,-1,-2,0,0,-2
1528278499776399,0,0,-3,-2,0,-3,0,-1
1528278499785376,0,-1,-2,-2,0,0,-1,-1
1528278499785376,-1,0,0,-1,-1,-1,-1,1
1528278499800336,0,-1,0,-2,-1,-2,1,0
1528278499800336,1,0,1,0,-2,-1,-1,-1
1528278499801333,0,-1,-2,0,-1,-2,-1,-2
1528278499801333,-1,1,-1,1,-1,0,-1,0
1528278499821280,-1,-3,1,0,0,1,0,0
1528278499821280,0,-1,-1,-1,-1,-1,0,0
1528278499822277,0,-1,0,0,0,-2,0,1
1528278499822277,0,-1,0,1,1,-2,0,-1
1528278499836239,1,1,-1,-1,-1,0,-1,0
1528278499836239,0,-1,-1,-1,-1,-1,-1,0
1528278499837236,0,-1,1,1,-2,0,0,-1
1528278499837236,-2,0,-1,-1,1,0,0,-2
1528278499859178,-1,-1,-2,0,-1,-1,0,-1
1528278499859178,0,1,0,0,-1,0,-1,-1
1528278499860175,0,-2,-1,-2,-1,-2,-2,-1
1528278499860175,0,0,1,1,-2,0,0,-1
1528278499882117,-2,0,-2,-1,-1,-1,-1,2
1528278499882117,-2,0,1,1,1,1,1,-2
1528278499882117,-1,0,0,-2,0,-2,0,1
1528278499882117,-1,-1,-1,-3,-3,-2,-2,0
1528278499897078,-2,0,-2,1,1,-1,-1,-1
1528278499897078,0,0,-2,0,1,-1,0,-2
1528278499897078,-1,-2,0,-3,1,0,1,-1
1528278499897078,1,1,0,1,-1,0,-2,0
1528278499919018,-2,0,-1,0,-1,0,-2,-2
1528278499919018,0,-1,-2,-4,-4,0,0,-1
1528278499920016,-1,-1,0,1,-1,-2,-1,-2
1528278499920016,0,-1,0,0,-1,-1,-1,0
1528278499941962,0,-1,0,-1,-1,1,0,-1
1528278499941962,-1,-1,-1,1,0,0,-1,0
1528278499942981,-1,0,-1,0,0,1,0,0
1528278499942981,0,-1,0,2,1,1,-1,1
1528278499956951,-1,0,0,-3,0,0,-1,-1
1528278499956951,-2,-2,-1,-1,-1,-1,-1,-1
1528278499957916,0,0,-1,-2,0,-2,0,-2
1528278499957916,-2,-2,-1,0,0,-2,-1,-1
1528278499978859,-1,0,-1,2,1,-1,0,0
1528278499978859,0,0,-2,-3,-2,-1,0,-1
1528278499979870,-1,-1,-1,0,-2,0,-2,0
1528278499979870,0,0,0,-1,-1,-2,1,-2
1528278500001849,0,-1,-1,-1,-1,0,0,-1
1528278500001849,-1,-1,-1,-1,-1,-2,-1,1
1528278500002850,0,1,0,1,1,0,-1,-1
1528278500002850,0,1,-1,1,-2,-1,-1,-2
1528278500016758,-1,-1,-1,0,-2,-1,-1,0
1528278500016758,1,0,0,1,1,0,-1,-2
1528278500017791,-1,-1,-1,-1,2,-2,-1,0
1528278500017791,-1,-2,-3,-5,-6,-3,-1,-1
1528278500038728,-2,-1,0,0,-1,-1,-1,1
1528278500038728,0,-1,0,0,1,0,0,-2
1528278500039705,-1,-1,0,0,-2,0,-1,0
1528278500039705,-2,0,-1,2,-2,0,-2,-1
1528278500061682,0,0,-1,-2,-2,1,0,-1
1528278500061682,-1,-2,-1,0,0,-1,-1,0
1528278500062635,0,-2,1,-2,-1,-1,1,-2
1528278500062635,-1,0,1,-1,0,0,-1,1
1528278500084613,1,0,-1,0,-2,-2,0,1
1528278500084613,-1,-2,-2,-1,0,-1,0,-1
1528278500084613,-1,-1,-1,0,0,-1,-2,-1
1528278500084613,-1,-1,-1,-1,1,-2,-1,0
1528278500099592,0,0,0,-3,-2,0,0,0
1528278500099592,1,-1,1,-1,0,0,0,-1
1528278500099592,-2,0,-1,-2,-1,-2,-1,0
1528278500099592,0,-1,-1,0,0,-1,0,-2
1528278500121522,0,2,0,-1,0,0,0,1
1528278500121522,0,-1,0,-1,-1,-2,1,-1
1528278500122497,-1,-1,-1,-1,-1,0,0,0
1528278500122497,-1,-1,-1,1,1,-1,0,0
1528278500136437,-1,-2,0,0,0,-2,0,-1
1528278500136437,-1,2,-1,-1,-3,0,-2,-1
1528278500137435,1,0,-1,-1,-4,-1,-1,0
1528278500137435,-2,-2,-2,-3,0,0,-1,0
1528278500159378,1,0,0,0,0,1,1,0
1528278500159378,-1,2,-1,0,0,0,0,-1
1528278500160374,-2,-1,-1,0,1,0,-2,0
1528278500160374,0,0,-2,-2,-2,1,-1,-1
1528278500181888,-1,0,0,1,1,1,-2,-1
1528278500181888,-1,0,0,-3,0,0,0,-1
1528278500182616,0,-1,-2,-3,-4,0,0,-1
1528278500182616,-1,-2,-2,2,-1,-1,-2,0
1528278500196924,0,0,-2,-2,-1,-1,1,-1
1528278500196924,1,-1,-1,-1,0,1,-2,-1
1528278500198175,-3,-1,-1,1,2,-2,-2,-1
1528278500198175,0,0,0,-3,-1,-1,1,-2
1528278500219519,0,-2,0,-1,-3,-1,0,0
1528278500219519,0,-2,-1,-1,-1,1,-1,-1
1528278500220157,0,-1,-1,0,1,1,1,-1
1528278500220157,0,-1,0,-1,-1,-2,-1,0
1528278500242099,-1,-1,-1,1,0,-1,-2,-1
1528278500242099,-1,1,0,-2,-3,0,-2,-2
1528278500242099,0,2,1,-2,0,0,-1,-2
1528278500242099,1,1,0,1,1,-1,-1,0
1528278500257323,1,-2,-2,-1,-1,-1,2,-1
1528278500257323,-1,-1,-1,0,0,1,0,-1
1528278500257323,0,-2,0,-2,-1,0,0,-1
1528278500257323,0,0,0,0,0,-1,0,0
1528278500279046,-1,0,0,0,1,0,-2,0
1528278500279046,0,0,0,1,-1,0,-2,0
1528278500280006,0,0,-2,-1,0,0,-1,-1
1528278500280006,0,-1,-3,-4,-5,-3,0,-1
1528278500302205,0,-1,-2,1,-1,0,-1,1
1528278500302205,-1,-1,0,0,1,1,1,-1
1528278500302935,-1,-3,-1,-1,0,1,-1,0
1528278500302935,-1,-1,-1,1,0,-1,0,0
1528278500316916,-1,0,-2,-1,-1,0,0,-3
1528278500316916,1,-1,-2,-2,0,-2,0,-1
1528278500317926,0,0,-1,0,-1,-2,0,1
1528278500317926,0,0,1,-1,-1,0,-1,0
1528278500340857,1,-1,-1,-1,-1,-2,0,-1
1528278500340857,-2,-2,0,-1,-1,0,0,-1
1528278500341873,-2,-1,-2,0,0,0,-1,-3
1528278500341873,0,-1,-1,-2,0,0,-2,0
1528278500362052,-2,-1,-1,2,2,0,-1,1
1528278500362052,0,-1,0,-1,0,1,0,-1
1528278500362785,-1,1,0,-1,-2,0,-2,1
1528278500362785,-2,-2,0,0,-2,-1,-1,-2
1528278500376769,0,1,-1,-1,-1,0,1,0
1528278500376769,-1,-1,-1,1,0,1,-1,-1
1528278500377735,0,1,0,-1,1,-2,1,0
1528278500377735,-1,-2,0,0,0,-1,0,0
1528278500399677,0,-1,-2,-1,-1,0,-1,0
1528278500399677,0,1,0,0,-2,-1,-1,-1
1528278500399677,0,-1,0,-2,-2,-1,-2,0
1528278500399677,-1,0,0,0,-1,-1,1,1
1528278500421690,1,-1,-2,-2,-1,-2,-1,-2
1528278500421690,-1,0,0,-2,-2,-1,0,-2
1528278500422619,-1,0,-1,0,-3,-1,-1,0
1528278500422619,1,-1,0,-1,-1,0,0,-1
1528278500436882,-1,2,-1,-1,0,0,-1,1
1528278500436882,0,-1,0,-1,-1,-1,0,0
1528278500437576,-2,-1,-2,-1,0,-1,0,-1
1528278500437576,0,-1,0,0,0,-2,-1,-1
1528278500458519,0,-1,0,-1,0,1,0,-1
1528278500458519,-2,1,-1,1,0,0,-1,-1
1528278500466744,0,-1,1,1,-1,0,0,-1
1528278500466744,-2,0,-2,-3,-5,-1,-1,-1
1528278500482494,0,-1,1,0,-1,0,-3,-1
1528278500482494,-1,-1,-3,-1,-1,-1,1,0
1528278500482494,0,0,2,0,2,1,-1,0
1528278500482494,-1,-1,-1,2,1,1,2,-1
1528278500504397,1,0,-1,-1,-2,-1,0,-1
1528278500504397,0,0,0,-1,1,0,-1,0
1528278500505394,-1,-1,-1,-1,0,-3,-1,0
1528278500505394,0,-1,-2,0,0,0,-1,-2
1528278500518376,0,-2,1,2,1,0,0,-1
1528278500518376,-2,0,-2,-5,-3,1,1,-1
1528278500527392,-2,0,1,1,-2,-1,-1,0
1528278500527392,-1,-1,-1,-1,-1,1,0,0
1528278500541298,-3,0,-1,0,0,-1,-1,0
1528278500541298,-1,-2,0,1,2,-1,0,-1
1528278500542296,0,-2,-1,-1,0,-1,-1,-1
1528278500542296,-1,-2,0,-1,-1,-2,-1,0
1528278500565234,-1,-1,-1,-1,-1,-1,0,0
1528278500565234,-1,0,-2,-1,0,0,-1,-2
1528278500565234,-1,0,-1,-2,-1,0,1,0
1528278500565234,0,0,0,-2,-1,-1,-2,0
1528278500579338,1,-2,0,-2,0,2,0,-2
1528278500579338,-1,-2,0,0,1,-2,-2,1
1528278500586504,0,-1,-1,-1,-2,-1,-1,-1
1528278500586504,0,0,0,1,-1,-1,0,1
1528278500602408,-2,-1,-1,-1,-1,0,0,-2
1528278500602408,0,-2,-1,-1,-1,-2,-1,0
1528278500602408,1,-1,-1,0,0,-1,-1,-2
1528278500602408,-1,-1,0,0,0,0,-1,-1
1528278500625176,1,-1,0,-1,-1,-1,-2,0
1528278500625176,0,0,-1,-1,-1,0,-2,-1
1528278500626341,0,1,0,0,-1,-1,-1,-1
1528278500626341,0,-2,-1,-1,-2,-2,-1,0
1528278500638069,-2,-2,0,0,-1,1,0,-2
1528278500638069,-2,0,1,0,1,0,-1,-2
1528278500647046,0,0,-2,-1,-3,-1,0,0
1528278500647046,1,0,0,-1,0,-1,1,0
1528278500662014,0,-1,-1,0,0,0,-1,0
1528278500662014,-2,-1,-1,0,-3,-1,0,1
1528278500662972,-1,0,-2,-1,1,-2,-1,0
1528278500662972,-2,-1,-1,-1,-1,-1,-2,-1
1528278500683916,-2,-1,-1,-1,-1,-2,0,0
1528278500683916,-2,-1,-1,1,-1,-1,0,0
1528278500684915,0,0,0,0,-1,-1,-2,-1
1528278500684915,0,-1,0,0,-1,-2,1,0
1528278500698877,-3,0,-1,-2,0,-1,-1,1
1528278500698877,-1,-1,-2,-1,-2,-1,0,0
1528278500706856,1,-2,2,-1,0,0,0,-1
1528278500706856,0,-1,0,-2,-2,0,0,1
1528278500722819,0,0,0,1,-1,-2,-2,-1
1528278500722819,0,-1,1,0,2,-2,-1,-1
1528278500723811,-1,-1,-2,-4,-6,-2,-1,-1
1528278500723811,-2,0,-2,0,-1,1,0,0
1528278500744758,0,0,-1,-1,-1,0,-1,1
1528278500744758,-2,0,-1,-1,-2,-1,-1,-1
1528278500744758,-1,-1,-2,-3,-1,-1,2,0
1528278500744758,0,-1,-1,0,0,0,0,-1
1528278500768004,0,-1,-1,1,1,-1,-1,-1
1528278500768004,0,-1,0,-1,0,-1,-1,-1
1528278500768719,0,-1,-1,0,1,-1,0,0
1528278500768719,0,-1,-1,-1,-1,0,-1,0
1528278500782079,-1,0,0,1,1,1,0,-1
1528278500782079,-1,-1,-1,-4,-2,0,-2,-1
1528278500782653,0,0,0,1,0,0,-2,-1
1528278500782653,1,-1,-1,0,0,-1,0,0
1528278500804864,0,1,-1,-3,-2,-2,0,-1
1528278500804864,-3,-1,-1,-2,-1,1,0,0
1528278500805778,-1,-2,-1,0,1,-1,-2,-1
1528278500805778,0,0,-1,0,-1,-1,0,0
1528278500827801,-1,0,1,0,1,-1,-1,-1
1528278500827801,1,0,0,2,3,-1,-1,-1
1528278500828530,-2,0,-2,-6,-8,-1,-1,-1
1528278500828530,0,-2,-2,-2,-2,-2,-1,-1
1528278500841505,-1,-1,0,3,2,-2,0,-1
1528278500841505,1,0,-2,-1,0,0,-2,-1
1528278500842495,0,0,-1,-1,0,0,-1,0
1528278500842495,0,2,3,7,5,0,0,0
1528278500864857,0,-1,-3,-7,1,-2,-1,0
1528278500864857,-4,-1,-4,-6,-8,-5,0,-2
1528278500865432,-2,-2,0,0,-1,-1,-1,-1
1528278500865432,-1,0,-4,-2,-3,-1,-1,-1
1528278500887768,0,-2,1,5,5,1,-1,0
1528278500887768,1,-1,0,2,4,1,-1,-1
1528278500888371,0,0,0,-2,0,1,0,0
1528278500888371,-2,-1,-1,-2,0,1,-1,0
1528278500902364,-1,-1,0,1,-1,-1,-2,-1
1528278500902364,1,-1,0,1,1,-1,1,-2
1528278500902364,1,-1,-1,0,2,-2,-1,0
1528278500902364,-1,-2,-1,-1,-2,-1,0,-1
1528278500924279,-1,0,-1,0,-1,1,0,0
1528278500924279,1,1,-1,1,0,0,-2,0
1528278500925286,-3,-2,-1,0,-1,-1,0,-1
1528278500925286,-1,-2,2,1,1,0,-1,1
1528278500947214,1,-1,-1,-3,1,-1,-1,1
1528278500947214,0,1,-1,-7,-6,0,-1,-2
1528278500948211,-2,-1,1,2,0,0,1,-1
1528278500948211,-1,-1,0,2,1,-1,-2,-2
1528278500962172,-2,-1,-1,-3,-2,-1,-1,-2
1528278500962172,0,-1,-1,1,0,-2,0,0
1528278500962172,0,-1,-3,-2,-2,-1,-1,0
1528278500962172,-2,0,-1,0,0,0,0,-1
1528278500984113,-2,-1,0,1,2,-1,0,0
1528278500984113,0,1,0,1,2,0,0,0
1528278500985121,0,-1,-1,0,-1,1,1,0
1528278500985121,-1,-2,-1,1,-1,0,1,-2
1528278501007052,-1,0,-1,-1,0,-1,0,0
1528278501007052,1,0,-1,-1,-2,0,0,1
1528278501008055,-2,0,-1,0,-1,0,-1,-1
1528278501008055,1,0,1,1,2,0,0,0
1528278501022012,0,0,-1,-1,0,-1,0,-2
1528278501022012,-1,0,0,-1,0,-1,-1,-1
1528278501023015,-2,-1,-1,-1,-1,2,0,-1
1528278501023015,0,-1,-1,-1,-1,-1,0,-1
1528278501043953,-1,-1,-1,0,-1,0,-1,1
1528278501043953,1,0,-2,0,0,-1,-1,-1
1528278501044961,1,0,0,-1,0,-1,0,1
1528278501044961,-2,-1,-2,-2,-1,-2,0,0
1528278501067889,-2,-1,-1,-1,-3,0,0,-1
1528278501067889,0,0,-1,-2,-1,-2,-1,-1
1528278501067889,-1,0,0,-1,0,-2,-1,0
1528278501067889,0,0,1,2,0,2,-1,0
1528278501081852,2,-1,0,-1,-2,-1,-2,-2
1528278501081852,0,-1,-1,-3,-2,0,-2,1
1528278501081852,0,-1,-1,-3,-2,0,-2,1
1528278501081852,0,-1,-1,-3,-2,0,-2,1
1528278501081852,0,-1,-1,-3,-2,0,-2,1
1528278501081852,0,-1,-1,-3,-2,0,-2,1
1528278501081852,0,-1,-1,-3,-2,0,-2,1
1528278501081852,0,-1,-1,-3,-2,0,-2,1
1528278501081852,0,-1,-1,-3,-2,0,-2,1
1528278501081852,0,-1,-1,-3,-2,0,-2,1
1528278501081852,0,-1,-1,-3,-2,0,-2,1
1528278501081852,0,-1,-1,-3,-2,0,-2,1
1528278501081852,0,-1,-1,-3,-2,0,-2,1
1528278501081852,0,-1,-1,-3,-2,0,-2,1
1528278501081852,0,-1,-1,-3,-2,0,-2,1
1528278501081852,0,-1,-1,-3,-2,0,-2,1
1528278501081852,0,-1,-1,-3,-2,0,-2,1
1528278501081852,0,-1,-1,-3,-2,0,-2,1
1528278501081852,0,-1,-1,-3,-2,0,-2,1
1528278501081852,0,-1,-1,-3,-2,0,-2,1
1528278501081852,0,-1,-1,-3,-2,0,-2,1
1528278501081852,0,-1,-1,-3,-2,0,-2,1
1528278501081852,0,-1,-1,-3,-2,0,-2,1
1528278501081852,0,-1,-1,-3,-2,0,-2,1
1528278501081852,0,-1,-1,-3,-2,0,-2,1
1528278501081852,0,-1,-1,-3,-2,0,-2,1
1528278501081852,0,-1,-1,-3,-2,0,-2,1
1528278501081852,0,-1,-1,-3,-2,0,-2,1
1528278501081852,0,-1,-1,-3,-2,0,-2,1
1528278501081852,0,-1,-1,-3,-2,0,-2,1
1528278501081852,0,-1,-1,-3,-2,0,-2,1
1528278501081852,0,-1,-1,-3,-2,0,-2,1
1528278501081852,0,-1,-1,-3,-2,0,-2,1
1528278501081852,0,-1,-1,-3,-2,0,-2,1
1528278501081852,0,-1,-1,-3,-2,0,-2,1
1528278501081852,0,-1,-1,-3,-2,0,-2,1
1528278501081852,0,-1,-1,-3,-2,0,-2,1
1528278501081852,0,-1,-1,-3,-2,0,-2,1
1528278501081852,0,-1,-1,-3,-2,0,-2,1
1528278501081852,0,-1,-1,-3,-2,0,-2,1
1528278501081852,0,-1,-1,-3,-2,0,-2,1
1528278501081852,0,-1,-1,-3,-2,0,-2,1
1528278501081852,0,-1,-1,-3,-2,0,-2,1
1528278501081852,0,-1,-1,-3,-2,0,-2,1
1528278501081852,0,-1,-1,-3,-2,0,-2,1
