timestamp,emg1,emg2,emg3,emg4,emg5,emg6,emg7,emg8
1529306155476628,-2,-4,3,6,3,-5,-1,-2
1529306155476628,-3,-2,-1,-8,-3,-1,-2,-4
1529306155491589,-8,5,1,5,0,-1,-1,-7
1529306155491589,0,0,-2,2,-2,-1,1,5
1529306155498570,8,-4,0,5,4,2,3,5
1529306155498570,-6,5,-2,-6,-4,-3,1,0
1529306155506548,-11,-4,0,3,-3,-1,-2,-7
1529306155506548,1,1,-3,-4,4,3,1,2
1529306155528492,-1,-2,-2,1,2,0,1,1
1529306155528492,-3,-6,-4,-1,0,4,1,-1
1529306155536496,0,2,-8,-28,-11,-8,-7,1
1529306155536496,-3,6,7,16,1,-1,-2,-7
1529306155551429,1,-4,-1,5,3,-3,-3,5
1529306155551429,-1,-3,-5,-4,-4,-2,-3,-3
1529306155558453,-3,-5,-9,-5,-8,-5,-4,-4
1529306155558453,-1,-1,1,1,7,0,3,-1
1529306155573371,-4,-6,-4,-8,-8,-9,-4,3
1529306155573371,2,6,11,8,4,-1,1,-1
1529306155581375,-3,-7,-8,-5,1,0,1,0
1529306155581375,1,-2,-1,0,3,4,-2,1
1529306155588356,-2,-2,5,1,-1,-1,-1,-3
1529306155588356,2,4,5,13,0,2,-1,2
1529306155603343,-2,0,-5,-3,-4,-2,-4,-3
1529306155603343,3,1,2,0,12,10,2,0
1529306155611269,-6,-3,-1,0,-8,-6,-3,-3
1529306155611269,-5,-4,-4,-8,-8,-8,-4,-3
1529306155626230,0,1,0,-6,-7,-2,0,1
1529306155626230,2,6,2,3,4,3,3,4
1529306155633252,3,1,0,6,5,4,1,1
1529306155633252,2,-2,-3,-7,-5,-3,-2,1
1529306155648170,-4,0,6,19,3,-2,-1,0
1529306155648170,-2,-8,-8,6,4,2,-2,1
1529306155664137,-1,0,3,-2,-6,-2,-4,-3
1529306155664137,-3,-2,-8,-5,-1,1,-2,-3
1529306155671109,3,2,0,-4,3,5,2,-1
1529306155671109,-2,-2,-4,-6,-1,-1,-2,-2
1529306155686070,2,0,2,1,2,3,1,-1
1529306155686070,-2,-1,0,-1,-1,-1,-3,-4
1529306155694049,3,6,3,15,16,9,5,3
1529306155694049,2,3,1,0,3,5,2,1
1529306155709060,-5,-5,-2,-8,-7,-6,-4,-5
1529306155709060,0,-2,0,0,-2,-3,-1,-1
1529306155723967,2,5,0,0,-2,1,3,4
1529306155723967,-3,-5,2,9,7,2,3,1
1529306155730949,-5,-7,-11,-8,-11,-9,-5,-3
1529306155730949,-3,-6,-10,-12,-7,-3,0,-1
1529306155745909,-3,-5,-4,-6,-6,-5,-5,-5
1529306155745909,0,1,2,-1,-3,-5,-3,-2
1529306155753927,2,1,3,0,-2,0,1,3
1529306155753927,1,1,3,4,-3,-3,-2,0
1529306155768849,-6,-2,-3,1,-3,-2,-4,-3
1529306155768849,1,6,3,-2,-1,0,0,3
1529306155783809,-1,1,2,3,1,-1,0,2
1529306155783809,-1,1,6,14,5,2,0,-1
1529306155790791,1,-3,-1,1,2,0,-1,-1
1529306155790791,0,0,-1,1,2,2,-1,-5
1529306155805749,8,5,4,2,4,4,6,10
1529306155805749,-5,-11,-9,-7,-6,-6,-7,-5
1529306155813729,-4,3,-3,-4,-3,-3,-3,-3
1529306155813729,-7,-6,2,0,0,0,2,-3
1529306155828726,-8,-8,-5,-7,-3,-3,-4,-9
1529306155828726,10,9,8,4,0,-7,0,1
1529306155836669,5,15,4,10,7,15,10,9
1529306155836669,-18,-17,-12,-4,-5,-8,-8,-8
1529306155850630,-4,-8,-10,-19,-5,-8,-6,-7
1529306155850630,2,4,4,7,-2,0,-2,-1
1529306155866620,-8,-6,-6,-7,-14,-17,-6,-4
1529306155866620,-8,-6,6,13,10,11,1,1
1529306155873568,11,7,1,5,-5,-5,3,2
1529306155873568,-7,4,7,6,1,0,-1,-2
1529306155888528,-2,-13,-14,-16,1,6,-1,2
1529306155888528,9,5,4,3,5,5,6,8
1529306155896506,1,-4,-1,-9,-4,-1,2,4
1529306155896506,11,11,0,-3,6,6,2,4
1529306155911498,11,9,0,-3,-3,-5,-10,-5
1529306155911498,-3,-20,-5,1,5,11,13,10
1529306155926445,9,19,2,-9,4,2,-4,0
1529306155926445,-6,-4,-2,7,-1,-3,-5,-4
1529306155933426,-2,-1,13,15,2,5,0,4
1529306155933426,8,21,3,-18,1,3,-9,-6
1529306155948387,-4,-5,10,6,-4,-3,0,3
1529306155948387,-1,-5,-4,14,-4,-1,9,7
1529306155956348,4,10,5,8,4,1,2,2
1529306155956348,-9,-16,-23,-20,-7,-14,-11,-8
1529306155971307,-28,-39,-53,-38,-23,-16,-19,-13
1529306155971307,14,18,28,3,18,10,7,8
1529306155986271,-8,-12,-24,-24,-7,1,6,-5
1529306155986271,-6,-19,-10,0,-4,-9,-6,-3
1529306155993248,2,20,10,1,-2,19,14,2
1529306155993248,1,-2,-7,7,6,-4,-4,5
1529306156009204,-3,4,11,9,-11,-13,-5,-4
1529306156009204,-3,-9,-31,-27,-11,-3,0,-4
1529306156016213,-8,-19,-7,1,-6,-13,-5,-1
1529306156016213,-1,-1,-7,-7,-6,-1,5,-3
1529306156031186,4,10,17,41,24,10,8,5
1529306156031186,-5,-9,-13,-40,-31,-20,-8,-7
1529306156046120,0,-2,-5,4,8,28,13,3
1529306156046120,-5,1,1,-5,-5,-13,-15,-6
1529306156054104,-13,-5,2,-8,0,3,2,-12
1529306156054104,12,-8,-5,11,4,11,25,25
1529306156069046,25,22,16,14,6,-9,0,11
1529306156069046,-4,8,-3,-24,-5,3,-9,-14
1529306156076028,5,-10,3,42,12,3,8,4
1529306156076028,-13,0,1,0,6,4,-4,-12
1529306156090986,0,4,18,17,-4,-16,-15,-6
1529306156090986,-3,-2,-8,4,0,-3,-2,-11
1529306156105947,-8,0,5,16,16,-3,-16,-15
1529306156105947,-9,-20,-22,-3,-5,-8,-2,-2
1529306156114401,12,12,3,-49,-20,11,13,8
1529306156114401,-3,6,23,19,-7,-8,-14,-7
1529306156129378,2,-23,-22,-4,-18,-26,-12,1
1529306156129378,-17,-6,0,0,-14,-9,-12,-11
1529306156136067,-1,-11,-10,-4,2,2,4,2
1529306156136067,-4,0,2,-13,-7,7,-5,-10
1529306156151026,-13,-29,-45,-41,-22,-13,-3,0
1529306156151026,0,11,12,-10,-38,-35,-27,-13
1529306156165998,-13,-2,-13,-49,-19,-11,-17,-16
1529306156165998,-1,-2,11,32,36,41,58,13
1529306156195906,12,13,21,12,16,-4,-13,5
1529306156195906,-12,-6,-17,24,19,4,6,1
1529306156218846,-14,-18,-10,-21,-31,-21,-12,-17
1529306156218846,3,11,14,-3,-20,-22,-25,-1
1529306156225875,-7,6,-5,-18,17,22,17,-5
1529306156225875,12,3,10,44,3,0,4,14
1529306156240840,-15,-1,-1,-7,-39,-34,-24,-18
1529306156240840,5,1,5,1,-13,-21,-16,-1
1529306156255801,2,-4,1,3,13,3,2,2
1529306156255801,2,2,14,3,29,13,-14,-2
1529306156270760,-7,-14,-12,-1,-34,-15,0,-5
1529306156270760,22,35,33,39,55,41,24,20
1529306156285687,-6,-18,-9,-24,-17,-10,-5,-7
1529306156285687,-2,3,1,-24,-11,2,-3,2
1529306156293697,-2,1,-4,-1,-3,-2,11,5
1529306156293697,-9,1,-6,4,7,-2,-4,-13
1529306156308630,3,-8,-10,-2,-21,-14,-7,-2
1529306156308630,13,9,10,1,11,4,11,13
1529306156316612,1,-1,5,7,4,-1,-4,-2
1529306156316612,-13,-20,-24,-23,-9,-4,4,-4
1529306156331597,14,7,-3,-6,2,3,5,13
1529306156331597,-8,-7,-8,-1,-30,-15,-5,-7
1529306156346556,-7,-5,-5,-24,-14,-6,2,-4
1529306156346556,-3,-4,-4,18,12,9,3,-1
1529306156353515,3,9,12,-1,1,4,6,4
1529306156353515,-6,-8,-10,-7,-13,-16,-12,-6
1529306156368443,0,4,-4,-10,3,3,-1,2
1529306156368443,-3,-6,-2,2,-17,-2,0,-6
1529306156376422,-7,-1,-2,-6,6,0,-8,-6
1529306156376422,3,-2,-6,-9,4,8,6,4
1529306156391383,-6,-2,-1,-1,1,6,-3,-1
1529306156391383,8,3,-4,-2,4,9,19,11
1529306156406342,-4,2,5,11,-5,-6,-6,-5
1529306156406342,1,-6,-8,-19,-1,2,6,5
1529306156413323,-1,-4,0,9,7,7,-5,-1
1529306156413323,0,0,0,9,-6,-4,4,1
1529306156428335,4,6,-4,-16,-3,-4,-3,-1
1529306156428335,-5,-5,6,18,6,-5,-3,-2
1529306156436264,-4,-6,-6,-7,-11,-1,-6,-4
1529306156436264,4,1,-2,-15,-3,-2,-3,-2
1529306156451222,-4,-3,5,13,2,1,0,-3
1529306156451222,2,1,0,1,-2,1,1,-1
1529306156458206,1,5,4,7,3,1,0,-3
1529306156458206,-1,-4,-5,-16,-5,-1,-1,0
1529306156474285,-1,2,0,8,4,-1,-4,1
1529306156474285,-5,-6,-4,-7,-2,-7,-13,-3
1529306156481370,0,-3,-2,0,-3,-1,7,-1
1529306156481370,2,8,2,-2,0,5,-5,1
1529306156496584,-12,-4,-4,3,-7,-12,-8,-14
1529306156496584,-1,-3,-5,-3,1,-2,2,5
1529306156511315,4,-1,1,-2,9,17,2,2
1529306156511315,7,1,3,7,1,4,3,1
1529306156518302,-5,-3,4,3,3,-5,-2,-3
1529306156518302,-3,1,-2,-7,-8,-5,0,-5
1529306156534285,-7,-2,-10,-7,-4,-7,-5,-5
1529306156534285,2,0,-2,0,3,3,1,5
1529306156541459,13,1,4,0,-6,-9,-8,6
1529306156541459,0,-2,-4,-6,-4,4,3,-5
1529306156556226,1,0,2,0,2,4,7,7
1529306156556226,-3,-1,-1,-2,-6,-7,-9,-6
1529306156571397,13,6,3,2,1,0,1,10
1529306156571397,-11,-8,-3,-8,-2,-7,-7,-8
1529306156579322,1,-3,-3,3,5,3,5,9
1529306156579322,-2,-1,-1,0,-2,-4,0,-1
1529306156594316,-4,2,1,4,-1,-1,-4,-12
1529306156594316,19,9,3,-2,0,2,4,20
1529306156601075,-1,-5,-3,2,0,-4,-7,0
1529306156601075,-5,-3,-3,-1,1,0,0,5
1529306156616282,-2,1,0,-4,-4,-6,-6,-7
1529306156616282,7,-1,-1,-1,1,0,1,2
1529306156631250,-8,-1,-4,-4,-6,-6,-1,-4
1529306156631250,-8,-3,-3,-1,-3,-2,-4,-16
1529306156639221,6,1,-3,0,0,-1,-1,8
1529306156639221,-6,-3,1,1,2,7,-3,-7
1529306156654199,6,-3,-3,0,-1,-4,-2,6
1529306156654199,2,-3,3,2,0,9,-1,0
1529306156661941,-16,-6,-6,-6,-1,-3,-7,-15
1529306156661941,11,6,1,2,2,7,11,10
1529306156677052,2,3,0,2,1,6,5,-1
1529306156677052,-8,-2,2,3,-1,-4,-6,-5
1529306156691199,1,-2,-4,-6,2,4,2,0
1529306156691199,1,-2,-2,1,-1,-3,-1,3
1529306156699451,-16,-10,1,-3,-3,-1,-2,-4
1529306156699451,2,1,-3,-3,-2,-11,-6,-2
1529306156713436,-5,1,2,4,6,16,17,5
1529306156713436,4,1,-2,-2,-3,-4,-4,-1
1529306156721415,8,4,0,0,-1,-2,-1,1
1529306156721415,-4,-4,-1,-5,-6,-4,-3,-2
1529306156736928,0,2,1,5,5,2,5,-1
1529306156736928,-1,-2,0,-1,-1,-3,-6,2
1529306156751125,4,3,-1,-4,0,0,6,2
1529306156751125,-4,-1,-3,-2,-1,-1,2,2
1529306156759444,1,1,-1,0,-6,-7,-4,-2
1529306156759444,-3,-4,-1,-3,-3,-2,-3,-4
1529306156774433,-4,-4,0,-1,-4,-4,-8,-4
1529306156774433,-3,-4,-2,-3,-1,-9,-3,0
1529306156781420,5,4,1,3,6,11,5,3
1529306156781420,0,-1,-3,-1,-1,2,1,1
1529306156796293,1,1,0,1,-3,-3,-3,-2
1529306156796293,-1,-2,-2,-1,0,-4,-3,-1
1529306156811014,-9,-3,-1,1,2,5,0,-1
1529306156811014,0,0,2,0,-4,-10,-3,-1
1529306156819004,1,-3,-2,-2,-1,3,2,0
1529306156819004,0,-4,-1,-2,-3,-4,2,-2
1529306156833953,-1,-1,-3,-1,-2,-5,-6,-3
1529306156833953,-3,-3,-4,-4,-4,-10,-7,-3
1529306156849139,-8,2,1,1,6,13,9,-4
1529306156849139,8,2,-1,-1,-3,-2,0,12
1529306156864140,-5,-4,-3,-4,-6,-7,-4,-3
1529306156864140,-4,-1,-1,-2,-1,-1,-1,-3
1529306156870892,-1,0,-4,-1,1,0,-1,-1
1529306156870892,1,-1,-1,1,0,3,-2,0
1529306156885814,-1,-2,-1,-2,-4,-5,-5,-2
1529306156885814,-4,-2,0,0,0,0,1,-1
1529306156893793,-2,-1,2,-2,-2,-4,-2,-1
1529306156893793,-3,-2,-2,-2,-1,0,1,0
1529306156901194,4,-1,-1,-1,-2,-6,-2,3
1529306156901194,-1,0,0,3,5,9,2,0
1529306156909379,-1,0,0,-3,-1,-1,-1,-3
1529306156909379,-3,1,-1,0,-2,0,-2,-1
1529306156924338,0,-1,-1,0,-2,-2,-3,1
1529306156924338,-1,-1,0,-1,-3,-3,-2,-2
1529306156931116,-1,-1,0,-1,0,-2,-4,-1
1529306156931116,-1,-2,-2,0,0,1,0,0
1529306156946075,2,-3,-2,-2,-3,-5,-1,2
1529306156946075,-3,-1,-1,-1,-1,0,-1,-7
1529306156954107,0,-2,-1,-1,0,-1,-2,-2
1529306156954107,-1,-2,-1,-1,0,2,0,0
1529306156961039,1,-1,-1,-1,0,-3,-2,-2
1529306156961039,-3,-6,-2,-1,-2,-1,-2,-2
1529306156969014,-1,-4,-1,-2,-3,-1,-2,-1
1529306156969014,1,-3,1,0,0,1,-2,1
1529306156984300,0,-2,-1,0,-2,-1,-1,-1
1529306156984300,-2,3,-1,-1,-1,-2,-1,-3
1529306156990995,-1,1,0,0,-2,-2,-1,0
1529306156990995,0,-1,-2,-4,-3,-1,-1,-2
1529306157006954,1,-1,0,1,0,0,-1,-1
1529306157006954,-1,-1,-1,-1,0,-3,1,1
1529306157014125,-1,1,-1,1,0,0,-1,-2
1529306157014125,-2,2,0,1,0,1,1,-3
1529306157020884,-2,3,2,-1,-2,0,0,-2
1529306157020884,-1,1,-1,0,-2,-1,-3,-3
1529306157028855,-3,1,-1,-2,-2,-1,0,0
1529306157028855,-3,2,-1,-1,-1,0,0,-1
1529306157043814,1,2,-2,0,-1,-2,-3,1
1529306157043814,-1,-1,-2,-1,-1,0,-2,-4
1529306157050800,0,-1,0,-1,-2,1,-1,3
1529306157050800,-2,-2,-1,-2,0,0,-2,-1
1529306157065783,-3,-2,-1,0,-1,-2,-1,0
1529306157065783,-2,-2,-1,-1,-2,-3,-2,-1
1529306157073766,-1,-1,-1,-2,0,-1,0,-1
1529306157073766,-4,-3,-2,0,0,-1,1,-1
1529306157080757,2,-2,-1,-1,-1,-1,1,-2
1529306157080757,1,-1,-2,-1,-2,0,-1,-1
1529306157088924,1,-2,0,-2,0,0,-3,-2
1529306157088924,0,1,0,0,-1,1,0,-3
1529306157103920,-3,0,-1,-2,-1,0,-1,0
1529306157103920,0,-2,-1,-1,0,-2,-1,0
1529306157111637,0,-1,-2,0,0,-1,-2,-2
1529306157111637,2,0,-1,-2,-1,0,-1,0
1529306157126865,0,1,-1,-1,-1,-1,-2,1
1529306157126865,-1,-1,-3,-1,-2,0,1,2
1529306157133839,0,-1,0,-3,0,-1,-1,-3
1529306157133839,-1,-3,-2,-2,-1,-2,-1,1
1529306157141599,-2,-3,-1,-1,-1,-1,-2,0
1529306157141599,-1,-3,-1,0,1,1,2,-2
1529306157148796,-2,0,-1,-1,-2,0,-2,-5
1529306157148796,2,0,0,-1,-2,-1,1,2
1529306157163758,1,-1,-1,-1,1,0,-2,-1
