timestamp,emg1,emg2,emg3,emg4,emg5,emg6,emg7,emg8
1529309088514069,-4,-5,6,8,4,-2,-6,-1
1529309088514069,4,26,16,-2,9,4,2,-15
1529309088529031,15,13,0,3,-2,6,8,19
1529309088529031,-1,-14,-8,1,-13,-3,-2,-18
1529309088543992,-10,-29,-26,-8,2,2,-8,11
1529309088543992,-10,-14,-4,-2,-10,-2,-4,-26
1529309088558988,-6,13,18,6,10,13,-2,6
1529309088558988,6,22,10,-2,10,14,5,18
1529309088566930,-8,-7,-20,-10,-3,-13,8,-24
1529309088566930,-20,-33,-23,-13,-18,-21,-5,-10
1529309088581695,-3,-12,7,15,11,36,22,-9
1529309088581695,3,36,38,13,3,26,13,-10
1529309088597406,-2,32,38,7,-2,-15,-21,-18
1529309088597406,21,21,19,10,10,1,3,11
1529309088611370,6,-3,-2,5,-9,8,-2,-8
1529309088611370,7,-11,-3,-3,-10,1,4,-1
1529309088619605,-14,-47,-53,-22,-13,-10,-12,-15
1529309088619605,-2,13,20,13,3,7,10,22
1529309088634574,-13,-7,-21,-8,-7,-4,-9,-3
1529309088634574,-8,-31,-12,4,17,1,1,-18
1529309088649532,9,12,12,-1,-6,-19,-7,8
1529309088649532,27,54,26,8,2,-4,1,11
1529309088656817,5,-12,18,7,3,-9,-4,12
1529309088656817,-21,-16,-30,-11,-2,-9,1,-21
1529309088671783,6,14,17,12,10,11,0,2
1529309088671783,-2,-4,16,11,-7,4,2,-9
1529309088679760,8,1,-4,2,18,2,7,26
1529309088679760,-10,-14,-20,-25,-21,-16,-22,-30
1529309088696755,-10,-18,-26,-12,-5,-1,-2,-4
1529309088696755,-7,15,20,9,3,2,5,9
1529309088709869,1,-3,-8,-11,-3,2,-3,4
1529309088709869,3,27,-7,15,-2,-7,-5,-13
1529309088717045,-3,-1,37,-8,-6,6,1,15
1529309088717045,23,16,8,22,19,33,30,15
1529309088731928,7,31,48,12,-4,-20,-22,-23
1529309088731928,-11,-17,-4,-4,-5,-3,5,10
1529309088746630,-3,-7,-14,-17,-22,-23,-10,-1
1529309088746630,-4,-11,-18,-20,-22,-14,-14,-17
1529309088761590,-3,19,6,15,14,1,4,7
1529309088761590,13,6,8,3,-2,-8,-11,12
1529309088776553,-13,-17,-21,-6,-3,5,1,0
1529309088776553,-20,-10,2,-1,-2,-3,-8,-3
1529309088784529,8,2,-16,-8,-1,1,3,3
1529309088784529,-15,25,16,1,1,-15,-23,-12
1529309088807124,28,1,-10,-7,-12,0,-10,-22
1529309088807124,-5,0,24,-8,-3,2,-7,14
1529309088821737,-3,-2,-12,-3,-8,-7,-11,-23
1529309088821737,-31,-24,-22,-13,-14,-16,-12,-30
1529309088837341,27,-8,-5,-4,8,23,0,40
1529309088837341,-3,2,-4,-3,9,8,21,-1
1529309088844114,-5,9,4,0,8,12,-28,2
1529309088844114,5,4,0,0,3,11,14,-1
1529309088859073,4,21,31,17,-4,5,12,15
1529309088859073,-3,-18,-22,-3,2,12,6,-2
1529309088874037,2,0,16,15,4,9,23,10
1529309088874037,1,-12,-11,-9,-8,-14,-11,1
1529309088889711,-16,-20,-10,-4,-8,12,7,-9
1529309088889711,5,-6,-26,-18,-10,-3,-10,-3
1529309088897478,-14,9,1,5,-2,6,7,-7
1529309088897478,12,-7,-6,5,10,-3,-5,15
1529309088911484,-16,-17,-16,-7,4,2,5,-7
1529309088911484,7,4,1,-1,-9,-9,-5,6
1529309088919895,-4,-4,-7,-3,-6,-7,-13,-7
1529309088919895,19,8,3,-2,-5,20,35,8
1529309088933744,-11,-11,-12,-6,-4,-19,0,-5
1529309088933744,2,9,9,7,5,-14,-13,-5
1529309088949112,7,7,10,4,4,-15,1,4
1529309088949112,-12,-2,1,4,11,-13,-4,-9
1529309088956970,-5,-10,-18,-13,1,4,1,-4
1529309088956970,14,11,15,12,11,7,-3,19
1529309088971898,7,-1,-6,-9,-9,-4,7,5
1529309088971898,0,3,3,-2,-2,-1,-3,-1
1529309088978880,12,11,10,-3,-5,0,9,2
1529309088978880,-3,2,-2,-1,-8,-2,-8,1
1529309088993840,12,10,6,9,15,-2,0,9
1529309088993840,-19,-5,-4,-3,-4,-5,2,-18
1529309089009914,16,-1,1,5,4,-2,-1,9
1529309089009914,-4,-4,-7,-6,-3,-6,-2,-2
1529309089017038,-6,-4,3,4,4,4,2,0
1529309089017038,12,5,1,-1,-5,-4,0,-1
1529309089032002,-8,-3,-3,0,2,8,-4,3
1529309089032002,2,-4,0,-6,-5,0,-4,-5
1529309089038982,2,2,5,-2,5,0,-2,-1
1529309089038982,7,3,3,2,3,-6,-6,3
1529309089054252,4,2,-1,-2,-5,-6,-11,14
1529309089054252,0,5,7,3,-2,3,4,9
1529309089069680,-12,-9,-5,-5,2,1,2,-5
1529309089069680,1,5,-3,-5,4,1,3,-7
1529309089076958,6,3,7,14,5,6,12,-11
1529309089076958,3,6,0,-2,-3,-1,1,-11
1529309089092301,3,1,-3,-3,-3,3,-1,17
1529309089092301,-1,-1,1,3,3,-1,-6,-2
1529309089107203,-11,-7,-4,-2,-6,-2,9,0
1529309089107203,-5,1,4,7,21,-18,-14,1
1529309089122164,1,1,-2,-3,-3,-1,-6,-6
1529309089122164,0,-4,-4,-2,-7,3,1,1
1529309089136810,-2,-5,-2,-6,-10,-4,4,0
1529309089136810,2,-3,3,2,5,-2,-3,5
1529309089143812,0,-4,-4,-8,-4,-6,-13,-12
1529309089143812,-14,-3,1,1,1,7,2,-9
1529309089158752,-5,0,-4,-1,1,-7,6,-23
1529309089158752,-12,-3,-6,-8,-3,-2,-20,22
1529309089173770,7,1,-1,-4,-11,1,-4,5
1529309089173770,-17,-16,-14,-16,-12,46,18,-6
1529309089188674,-16,-6,-3,-3,-6,-5,5,-4
1529309089188674,10,12,3,0,-6,17,-1,1
1529309089196653,-1,-1,-1,5,6,-28,-21,-6
1529309089196653,6,2,2,3,3,-43,32,18
1529309089211610,-1,-4,-3,-2,-2,30,2,0
1529309089211610,-3,-5,1,5,7,22,-3,-20
1529309089219641,-1,-3,-5,-1,4,28,12,15
1529309089219641,1,0,-2,-5,-2,9,0,7
1529309089233606,15,12,10,5,-3,-44,0,15
1529309089233606,5,0,1,0,-5,-15,-15,-11
1529309089256544,3,2,1,4,-2,9,9,6
1529309089256544,-1,-5,-3,-2,-7,-20,-13,-1
1529309089264524,-5,-5,-4,-2,16,-4,15,5
1529309089264524,-3,4,9,7,3,-2,-12,-12
1529309089279486,-7,-2,-3,-5,-4,14,-8,-7
1529309089279486,2,0,-4,-1,-3,-1,7,11
1529309089286466,-3,-3,-3,-4,-10,12,7,5
1529309089286466,0,-3,1,5,-5,-2,-2,-11
1529309089301424,-10,-6,-6,1,10,12,-4,-7
1529309089301424,-5,-1,-5,-5,-7,-15,-12,-8
1529309089316387,1,7,9,4,12,17,-3,-3
1529309089316387,-3,-6,-7,-5,-6,3,4,-3
1529309089331345,-1,-7,-4,6,12,12,9,9
1529309089331345,4,-2,-5,-7,-12,4,-3,2
1529309089341264,-2,1,-1,-10,-31,0,-3,-3
1529309089341264,2,5,0,3,1,3,-2,-1
1529309089354229,1,-1,-1,-4,-3,1,-1,1
1529309089354229,-5,-6,-7,-3,7,5,1,-2
1529309089369242,3,6,6,6,12,7,-2,-1
1529309089369242,-2,-5,-3,-1,6,1,-4,3
1529309089377167,-6,-6,-5,-8,-12,1,-2,-4
1529309089377167,0,-4,1,5,-1,2,3,-4
1529309089392127,1,-2,2,-10,-28,-11,0,-1
1529309089392127,7,13,15,11,9,4,1,2
1529309089399112,3,-1,-3,-6,-9,-3,-3,0
1529309089399112,5,-1,-1,1,3,-1,-6,-2
1529309089414069,0,0,1,4,-3,-10,-3,-2
1529309089414069,-1,0,0,-2,-6,-1,3,-3
1529309089429081,4,3,0,-1,-2,-2,-3,-1
1529309089429081,0,4,5,-1,-6,-1,-3,-4
1529309089437041,-3,1,-1,6,6,1,1,7
1529309089437041,-7,0,1,-2,3,-2,-2,2
1529309089452006,-2,-2,3,3,13,0,0,3
1529309089452006,-2,-1,-2,-4,-12,-8,-3,0
1529309089458993,2,-1,-3,-2,4,4,-1,-3
1529309089458993,3,-2,0,-4,1,1,-1,-2
1529309089473961,-2,2,-2,1,6,6,-1,-4
1529309089473961,2,2,1,-2,-5,-1,-1,2
1529309089481932,-2,-2,0,1,0,4,3,0
1529309089481932,5,4,6,6,8,0,-2,-1
1529309089497108,-2,0,1,2,0,-1,-2,1
1529309089497108,0,5,0,0,-1,-2,-1,-1
1529309089512068,0,1,-1,-2,1,-2,0,-1
1529309089512068,1,-2,-6,-4,-1,0,1,1
1529309089518793,-1,-4,-3,-1,5,1,-2,-1
1529309089518793,2,-1,2,-2,-3,-2,-2,2
1529309089533749,-3,-1,0,2,3,1,-4,1
1529309089533749,-3,-2,-1,1,0,2,-1,-1
1529309089541728,-2,1,-1,1,2,-1,-2,-1
1529309089541728,2,-1,1,-4,-1,1,0,0
1529309089556690,-2,-1,-3,-2,1,-3,2,-1
1529309089556690,1,4,-2,0,0,-2,0,-2
1529309089571648,2,2,2,0,3,3,-1,-1
1529309089571648,1,2,3,-4,-4,-2,-5,0
1529309089579690,0,-2,-3,-2,3,2,-1,-2
1529309089579690,-7,-7,-6,-3,0,4,2,0
1529309089594593,4,6,1,0,0,-4,-5,-2
1529309089594593,2,-3,-2,0,-3,-1,1,1
1529309089601807,-2,-1,1,0,0,0,-1,1
1529309089601807,1,-3,3,0,2,-1,-1,-2
1529309089616528,3,0,-4,0,-7,0,-1,-1
1529309089616528,-4,0,-2,2,-4,-3,1,1
1529309089631780,-1,-4,-2,2,4,-1,2,3
1529309089631780,0,0,0,0,4,-3,-2,-2
1529309089639733,0,-1,2,1,1,3,2,0
1529309089639733,2,3,0,-1,-1,2,-5,0
1529309089654430,3,0,-1,-4,-1,-2,-2,-3
1529309089654430,0,-1,-3,-2,-1,-1,0,-1
1529309089661408,-2,1,-1,-1,-2,-1,0,2
1529309089661408,-2,-3,-4,-5,-2,-2,1,4
1529309089676761,-1,-3,-1,2,3,-1,3,-3
1529309089676761,1,0,-1,3,3,-3,-1,-4
1529309089692480,-2,-2,-2,1,0,-2,-1,1
1529309089692480,0,2,-1,0,1,-1,-3,1
1529309089699368,-2,3,0,-6,-3,0,-1,-1
1529309089699368,-2,1,2,0,0,1,-1,-1
1529309089714591,0,-1,0,-1,5,0,-1,-1
1529309089714591,0,-4,-2,-1,4,-1,-1,3
1529309089721306,2,-2,-1,-2,2,-1,-1,2
1529309089721306,2,-1,-2,-3,-3,1,0,0
1529309089737334,-1,-4,1,0,-5,0,-1,0
1529309089737334,-1,-1,-3,-2,-3,-1,-1,-2
1529309089751643,0,2,-2,0,-1,0,0,0
1529309089751643,-2,-1,-4,-1,-3,1,-1,0
1529309089758621,-3,2,-2,1,1,-2,2,-3
1529309089758621,-4,-1,0,2,-1,0,1,-3
1529309089774591,2,-2,0,0,0,-1,2,-3
1529309089774591,3,0,1,0,-2,-3,1,-1
1529309089781559,0,-2,1,0,-2,-2,-2,1
1529309089781559,-1,-1,-2,-1,-2,-3,-2,0
1529309089796518,-4,-3,-3,-2,3,-1,2,3
1529309089796518,-4,2,0,1,1,-3,-1,0
1529309089811481,0,0,-1,-2,-1,0,0,0
1529309089811481,2,-2,2,-4,-1,-3,-2,-1
1529309089819457,0,-1,0,1,-1,-1,-4,-4
1529309089819457,2,0,-1,3,-1,2,-3,-2
1529309089834455,-1,1,-3,4,-1,0,1,0
1529309089834455,-1,2,-2,-2,-1,1,2,1
1529309089841426,1,-1,2,-4,-2,1,1,0
1529309089841426,-1,-1,0,-2,-1,-2,-2,-2
1529309089856358,-1,-3,-1,-2,0,-3,-2,-1
1529309089856358,0,-2,-1,1,-1,-1,3,1
1529309089871364,-7,-1,-2,-3,0,1,2,2
1529309089871364,-6,0,-3,0,3,-1,1,-1
1529309089879329,-2,1,-1,-1,0,0,-1,-1
1529309089879329,2,1,1,-1,0,1,-1,1
1529309089894257,3,-1,0,-2,-2,0,0,1
1529309089894257,1,-2,0,2,-1,-2,-2,-2
1529309089901239,1,-2,0,3,1,-3,-1,1
1529309089901239,-1,-2,1,1,2,-1,3,3
1529309089916200,5,2,-1,-2,-2,-2,-2,-4
1529309089916200,2,1,-1,-4,-1,-1,-4,-2
1529309089932162,0,-1,-1,-6,2,0,-3,1
1529309089932162,-3,-2,-3,0,2,-1,-1,2
1529309089939138,1,-1,-3,-1,1,0,1,1
1529309089939138,2,-1,-4,-2,-5,-1,1,0
1529309089954346,1,-1,2,3,-4,-1,0,-3
1529309089954346,-2,0,1,2,-5,2,0,-2
1529309089961390,-3,-4,2,1,-1,0,-2,1
1529309089961390,-2,0,1,0,-1,0,-2,-1
1529309089976349,-1,4,-1,-1,3,-1,0,-1
1529309089976349,-4,-1,-1,-1,0,0,-1,-1
1529309089992524,-4,-2,3,-1,-4,-1,0,1
1529309089992524,1,-1,1,-2,-4,-2,1,0
1529309089999320,1,-1,-1,-2,-4,-2,-1,2
1529309089999320,-3,-4,-3,-2,-1,-1,-2,-4
1529309090014491,0,-1,0,1,2,-1,-2,-3
1529309090014491,-4,-4,-2,2,0,0,-1,3
1529309090022348,2,2,-1,0,-3,-1,-1,0
1529309090022348,0,2,-1,-1,-4,-4,-1,1
1529309090036997,-1,1,2,0,1,0,0,-3
1529309090036997,2,-3,-1,-1,0,1,1,-3
1529309090051810,0,-2,-4,-1,-2,0,0,0
1529309090051810,2,1,-2,0,1,-1,-3,0
1529309090059872,-1,1,-3,2,4,-1,0,1
1529309090059872,-1,1,-1,-2,-3,-2,0,0
1529309090074015,-1,-1,-2,-4,-1,0,-1,1
1529309090074015,-5,-1,-1,-2,-5,-1,-2,5
1529309090081994,0,-3,-2,0,-1,0,-1,0
1529309090081994,2,-4,0,2,2,-1,-2,-1
1529309090096987,-3,1,1,-5,-3,-1,-1,0
1529309090096987,0,2,1,-2,-3,0,0,3
1529309090111961,2,1,1,-1,-3,-1,0,-1
1529309090111961,-1,-1,1,-4,0,0,0,-3
1529309090118931,-5,-4,0,-2,-1,-1,-1,-1
1529309090118931,-4,-2,-2,-2,-2,1,0,-1
1529309090134151,-1,-2,-3,1,-3,0,-3,2
1529309090134151,1,0,0,2,-4,1,-2,-1
1529309090141870,1,4,-2,0,-3,0,-1,-3
1529309090141870,3,1,1,-3,5,-3,0,0
1529309090157078,0,-3,0,2,-2,0,0,0
1529309090157078,-1,-3,-5,-1,-4,-1,-2,-5
1529309090178771,-7,0,-4,-4,-2,1,-1,-1
1529309090178771,-4,-1,-1,-3,1,-1,-1,-1
1529309090186980,-2,-1,0,-3,-2,0,1,1
1529309090186980,-4,-1,0,0,-3,-2,-1,1
1529309090202393,-1,0,0,-2,-3,-2,1,1
1529309090202393,-1,5,-4,1,-4,-1,0,0
1529309090209585,3,1,-4,-1,5,-1,-1,0
1529309090209585,3,-1,-2,-2,2,1,-1,2
