timestamp,emg1,emg2,emg3,emg4,emg5,emg6,emg7,emg8
1529307573424539,2,9,9,5,-22,-13,-5,-1
1529307573424539,0,-4,-1,2,8,2,1,-1
1529307573441521,5,-2,-3,12,7,1,-1,3
1529307573441521,-8,-3,-14,-21,11,13,4,-3
1529307573447478,0,3,14,6,3,2,1,-1
1529307573447478,-2,0,-7,-22,-23,0,-1,-2
1529307573456453,2,-3,-2,15,-3,-7,-3,0
1529307573456453,0,2,1,-9,-4,-3,-3,2
1529307573462479,1,0,-3,-17,-10,-1,1,-3
1529307573462479,1,3,6,5,-4,-8,-3,1
1529307573478395,0,-3,-9,6,7,10,3,0
1529307573478395,-1,2,3,-23,-22,-18,-7,0
1529307573484380,-6,1,-9,5,11,7,1,0
1529307573484380,-1,2,2,12,5,7,3,1
1529307573501334,-2,-2,-10,-31,-24,-5,-1,-1
1529307573501334,0,0,-6,9,12,4,-3,3
1529307573507317,-9,0,5,1,-5,-2,-3,-1
1529307573507317,-14,-2,2,3,-1,0,-2,-3
1529307573516300,19,5,-2,-4,14,5,0,2
1529307573516300,4,2,3,4,-8,-4,1,1
1529307573522278,3,2,2,-6,7,5,1,-1
1529307573522278,-3,-2,1,3,2,-11,-6,-3
1529307573538246,-12,-6,1,5,15,-7,-1,-2
1529307573538246,-5,-1,6,34,12,22,-5,1
1529307573544218,-3,-6,-2,-25,-28,-11,1,1
1529307573544218,7,5,-3,-12,-1,23,-4,-2
1529307573561174,-1,0,2,-13,-17,3,-4,3
1529307573561174,-5,-4,-4,42,26,-13,14,-1
1529307573567157,-9,1,7,-7,27,3,-5,0
1529307573567157,8,-7,-4,8,-23,-8,-8,-1
1529307573576138,-1,-4,4,10,24,23,13,-3
1529307573576138,4,2,-3,-25,-25,2,-4,7
1529307573582117,30,8,-25,5,3,-9,-5,-3
1529307573582117,-19,-11,8,8,5,-7,9,10
1529307573599071,-14,-2,20,17,21,9,19,11
1529307573599071,1,-2,-2,-34,-35,-15,-43,-18
1529307573605056,16,4,3,-11,-27,-39,14,53
1529307573605056,24,-3,-8,14,7,15,15,-22
1529307573621013,-25,-5,-7,4,4,-6,7,-11
1529307573621013,-54,-13,4,6,44,52,24,58
1529307573626998,6,2,0,-1,-23,-15,56,-77
1529307573626998,14,-3,-9,-23,-4,1,-83,-1
1529307573635973,52,4,-1,-3,-13,-49,2,62
1529307573635973,-5,-12,-8,-6,-1,-18,-6,-53
1529307573641958,-21,-14,3,7,8,23,11,36
1529307573641958,-47,4,8,9,43,0,-7,-37
1529307573658912,43,10,-5,-55,-76,3,23,-8
1529307573658912,28,6,1,9,24,34,-39,3
1529307573664897,12,1,3,-2,-20,-7,7,11
1529307573664897,-2,-4,0,0,18,9,10,4
1529307573680853,-6,-2,-8,-11,-3,0,-21,-10
1529307573680853,24,7,-6,-1,15,8,100,6
1529307573686837,-23,-9,0,-23,-11,-22,-128,-29
1529307573686837,9,4,14,30,5,8,-8,3
1529307573695815,-5,-3,3,26,38,-8,-13,-7
1529307573695815,-2,-1,-9,-15,-25,-25,20,-2
1529307573702686,-2,1,-2,2,28,38,24,-1
1529307573702686,6,2,-3,-4,-10,-22,20,12
1529307573718647,-11,-6,-5,1,-2,24,-3,-9
1529307573718647,1,9,9,30,9,-6,-17,-3
1529307573724642,1,0,-15,-74,-23,0,5,2
1529307573724642,8,2,-4,-14,-26,-9,13,9
1529307573740588,-19,0,12,54,53,13,-6,-10
1529307573740588,-5,0,-4,-22,-47,-30,-8,3
1529307573746597,17,5,4,9,33,12,-14,10
1529307573746597,-13,3,-1,10,-5,6,19,-23
1529307573756546,18,-1,-3,-19,0,-10,-10,10
1529307573756546,-17,0,1,39,6,-26,2,3
1529307573769564,-13,-1,11,-2,-6,30,13,11
1529307573769564,4,-4,-5,7,4,-22,-4,8
1529307573778487,-21,-5,-6,-4,-4,2,-10,-17
1529307573778487,1,-4,2,-24,-7,-9,-17,-4
1529307573784481,1,3,3,34,-2,-35,-5,-12
1529307573784481,28,8,5,-5,25,57,35,20
1529307573801480,-15,-7,-10,-5,-9,27,22,-8
1529307573801480,6,0,-3,-16,-28,-3,-14,-15
1529307573807408,-15,-7,-6,3,6,-7,4,4
1529307573807408,-8,-2,-3,-5,2,-18,-8,2
1529307573816419,-4,-2,3,19,10,7,-4,6
1529307573816419,0,-9,-5,-67,-24,-5,1,-1
1529307573829350,32,4,8,54,12,-1,-2,-8
1529307573829350,-12,18,-8,-14,-18,-7,18,2
1529307573838326,14,-5,23,33,28,-2,-28,-5
1529307573838326,-1,23,-2,-41,-32,10,-2,4
1529307573844310,-31,-16,-5,17,-10,0,-17,-4
1529307573844310,-6,-2,-8,-6,19,5,14,7
1529307573861265,-1,-10,-10,-13,-24,-16,6,-14
1529307573861265,34,3,3,36,23,13,-5,5
1529307573867270,3,-2,-14,-21,-3,15,1,0
1529307573867270,15,5,11,6,-13,-1,-16,1
1529307573876224,-18,8,-7,-30,-13,-14,-6,-10
1529307573876224,-14,-25,-3,8,10,4,8,-3
1529307573889192,22,-21,-20,9,4,-7,8,6
1529307573889192,-9,6,-14,-2,13,16,-3,-6
1529307573898199,7,33,45,36,9,-8,0,2
1529307573898199,4,25,19,2,4,-5,-20,3
1529307573904151,-12,-21,-49,0,19,15,31,-11
1529307573904151,-14,-50,48,-9,-21,-28,-7,-1
1529307573921107,9,-10,-37,-40,1,10,7,7
1529307573921107,3,10,2,33,-13,3,9,2
1529307573927143,-2,33,-5,31,34,-10,-18,-3
1529307573927143,18,43,39,-21,-20,-14,1,6
1529307573936072,-7,-13,1,-17,-13,2,60,3
1529307573936072,-13,-28,-9,44,22,14,-64,-4
1529307573950068,5,17,-17,-50,-28,-16,-5,-2
1529307573950068,-12,-30,-26,5,15,8,8,2
1529307573959076,-8,-35,-22,3,-18,-30,3,-1
1529307573959076,-9,-22,-52,22,51,12,17,-3
1529307573965001,12,47,112,25,-14,4,-4,-2
1529307573965001,6,49,-26,15,11,-17,2,11
1529307573980945,-22,-11,41,-5,6,32,-12,-5
1529307573980945,29,-28,-90,-5,-8,-34,12,1
1529307573986930,-28,3,37,-34,-12,22,-11,-2
1529307573986930,13,60,58,3,-36,-9,-7,-9
1529307573995905,-15,-92,-35,-4,20,-8,-19,-1
1529307573995905,-11,35,-86,-42,-20,-1,1,1
1529307574009868,11,72,48,66,28,-1,12,4
1529307574009868,22,80,5,47,22,13,2,6
1529307574018844,6,10,-38,-56,-29,-18,-14,1
1529307574018844,-2,-35,64,25,19,6,2,-4
1529307574024827,-25,-56,-109,-31,0,-7,1,-5
1529307574024827,-18,-128,-30,37,-14,22,12,1
1529307574040785,12,127,-23,-37,-15,-7,-20,-2
1529307574040785,4,-20,9,26,25,-16,9,0
1529307574046817,3,-42,-47,8,15,2,0,9
1529307574046817,-2,-3,27,-44,-14,17,-6,-2
1529307574062868,-4,40,78,56,0,-9,0,-4
1529307574062868,-6,3,24,-40,-11,4,10,-2
1529307574069719,8,22,-29,15,19,6,-1,3
1529307574069719,-5,-55,-36,-28,-10,-25,-32,-5
1529307574085711,13,39,-15,47,-8,10,23,3
1529307574085711,-14,33,26,-85,6,-4,-1,-3
1529307574085711,-19,-106,17,-27,-44,-9,-8,-13
1529307574085711,-28,-123,-128,-27,-13,-4,-5,-11
1529307574101820,46,102,-48,2,18,15,-2,14
1529307574101820,35,62,120,58,14,-3,15,13
1529307574107606,4,-26,-64,22,9,14,8,-11
1529307574107606,22,37,-7,-32,-15,-14,12,14
1529307574122567,-41,-128,-54,7,-4,11,-24,-16
1529307574122567,-25,-48,-52,-6,-4,-4,6,-6
1529307574129548,2,34,42,-6,-12,-2,-18,2
1529307574129548,1,27,-6,-8,-8,-17,3,-11
1529307574145537,-16,-58,18,16,24,2,-1,-3
1529307574145537,-43,-104,-80,-50,-40,13,-4,-10
1529307574146772,7,106,-48,-23,-2,3,8,6
1529307574146772,72,91,112,71,54,1,8,21
1529307574161462,19,39,-43,6,-19,2,6,12
1529307574161462,24,25,38,-24,-1,2,-5,0
1529307574166758,-42,-97,2,21,4,-14,3,-10
1529307574166758,-44,-79,-86,-30,-10,5,-11,-7
1529307574182831,16,-13,-19,-24,-33,-9,-5,0
1529307574182831,-14,6,1,8,35,-1,1,-3
1529307574189947,7,2,6,16,0,0,0,6
1529307574189947,15,25,-17,1,-3,5,4,-2
1529307574204957,-27,-19,41,-8,5,-14,-10,-8
1529307574204957,-3,16,-19,6,-36,-1,-8,-12
1529307574205948,2,-4,-11,-27,11,-2,5,11
1529307574205948,-3,-1,41,42,-16,-6,-7,3
1529307574221340,-5,1,5,51,43,-18,8,6
1529307574221340,3,9,-4,-39,-16,16,-5,4
1529307574227325,10,12,11,15,-3,24,21,-1
1529307574227325,-16,-8,-2,-22,3,-16,-9,-15
1529307574242338,-2,-36,-17,-42,-17,5,-5,4
1529307574242338,14,29,-31,67,-14,-23,-15,6
1529307574250472,-12,6,62,-28,-24,6,0,-2
1529307574250472,-3,14,-15,-14,11,16,7,9
1529307574273539,23,-5,19,-4,0,-10,6,-1
1529307574273539,18,11,-15,-14,-10,12,-1,1
1529307574273539,-7,-14,19,3,-2,-16,2,2
1529307574273539,-11,-16,-17,-10,-10,0,-1,-13
1529307574281491,-14,3,0,30,0,1,-22,-8
1529307574281491,3,-12,4,-17,4,-7,8,0
1529307574287483,16,-5,-15,-20,-14,2,-3,0
1529307574287483,-14,-44,2,1,-3,5,1,7
1529307574302735,2,-7,-27,-16,5,-3,2,2
1529307574302735,0,53,34,37,19,6,-2,-1
1529307574309718,4,-13,-7,-1,19,3,4,2
1529307574309718,-2,1,3,-4,-14,7,4,-4
1529307574325676,-8,-9,27,-19,-27,5,3,-3
1529307574325676,-7,-25,-18,25,21,-15,-1,-8
1529307574325676,10,27,-12,-21,-14,-10,-7,0
1529307574325676,0,5,22,5,17,8,0,3
1529307574341071,3,-5,-35,-2,11,2,1,2
1529307574341071,-11,8,35,-9,-10,-5,-3,2
1529307574347848,5,-25,-2,56,4,-12,-10,-15
1529307574347848,-6,17,-10,-33,-8,-2,-1,0
1529307574362847,2,17,22,36,10,10,25,10
1529307574362847,14,-3,-1,0,-17,-2,-22,-5
1529307574370010,7,-12,-1,-26,-19,-5,-10,3
1529307574370010,-2,-9,-18,9,21,-12,-7,-3
1529307574385516,-1,5,-21,-17,-8,17,6,-3
1529307574385516,-2,23,28,-11,-5,-4,11,1
1529307574386703,2,-50,2,27,-7,-9,-9,3
1529307574386703,-11,55,-16,-1,-14,10,5,-5
1529307574401174,10,-2,30,-14,11,12,-1,-14
1529307574401174,0,-22,-32,53,2,-11,2,15
1529307574407546,-2,28,-17,-56,-14,0,0,-4
1529307574407546,0,-12,62,19,-5,-14,-5,-1
1529307574422208,-6,-18,-4,-17,0,4,-1,-5
1529307574422208,-6,-7,-8,-7,13,13,-3,-1
1529307574430193,-3,-3,-12,10,16,2,10,1
1529307574430193,-3,-17,-17,6,16,0,0,-2
1529307574445601,-7,26,-13,-5,5,-6,-5,-2
1529307574445601,-8,-16,6,22,12,-8,-3,-2
1529307574446177,2,16,-3,-32,0,5,2,4
1529307574446177,-2,1,16,23,22,6,-2,-7
1529307574461188,7,-7,-6,-26,-20,-6,-6,6
1529307574461188,-8,-13,1,19,1,0,7,-3
1529307574467534,-5,6,0,7,12,1,-2,-1
1529307574467534,5,-1,-18,1,-10,0,-2,0
1529307574482760,-1,6,10,17,19,-8,1,0
1529307574482760,8,1,3,-14,-12,7,5,1
1529307574489740,-4,7,8,8,-1,4,0,-1
1529307574489740,0,-7,-7,4,-3,-1,1,-1
1529307574505435,-4,-3,-18,-9,-1,-6,-4,0
1529307574505435,2,-2,16,7,-22,6,3,1
1529307574506432,0,3,7,9,31,2,2,1
1529307574506432,-1,-3,-11,-20,-6,-9,-5,-3
1529307574521394,1,3,-1,-3,-8,-7,4,-1
1529307574521394,0,-6,-11,-16,-1,2,-1,-3
1529307574527637,-3,5,3,10,-2,-1,1,0
1529307574527637,0,-1,-2,3,5,-1,3,3
1529307574542125,0,0,5,3,5,-1,-4,-1
1529307574542125,1,-4,-8,-15,-3,2,-1,-1
1529307574549905,-2,2,2,5,-1,-3,8,3
1529307574549905,2,1,-6,-12,5,0,-3,2
1529307574565863,-2,-2,4,8,-9,-1,-4,0
1529307574565863,-2,-1,-6,-10,1,-2,32,-2
1529307574566799,-2,2,-5,0,-3,0,-2,11
1529307574566799,-2,-3,-7,-6,-8,-7,-15,6
1529307574581779,-4,1,5,5,-4,-9,-28,-20
1529307574581779,3,0,-5,-7,2,1,-4,7
1529307574587551,0,2,2,1,5,18,51,-15
1529307574587551,0,0,1,-2,-9,4,9,5
1529307574602073,0,0,2,5,5,-1,-13,5
1529307574602073,1,2,-7,-11,6,2,-6,5
1529307574609789,3,2,-3,-1,-7,-8,24,-10
1529307574609789,-7,-3,-1,5,8,-11,-22,-2
1529307574626009,-3,-3,-7,-14,-10,5,38,-1
1529307574626009,1,3,5,0,-3,-2,-50,-10
1529307574626009,4,3,4,2,0,-1,-26,22
1529307574626009,-7,0,-7,7,-5,5,-2,-28
1529307574641543,1,2,-4,-22,-14,1,3,-6
1529307574641543,-9,0,-4,4,0,4,15,5
1529307574647844,-4,0,-5,-2,-11,-14,-25,-5
1529307574647844,5,6,8,-6,-3,13,11,13
1529307574662306,-8,-4,-7,10,1,-5,23,-1
1529307574662306,0,5,12,-1,1,1,12,0
1529307574670140,-6,-5,-7,0,-1,0,-12,-10
1529307574670140,8,2,4,3,2,2,78,26
1529307574685101,-2,-1,2,5,-2,-11,-74,-36
1529307574685101,-5,-4,-5,-7,-2,-7,8,-1
1529307574692846,1,-2,1,3,-1,-1,-6,-3
1529307574692846,2,-4,-4,-6,-1,1,14,-3
1529307574700795,4,-18,0,4,2,2,9,14
1529307574700795,3,-13,-10,16,12,-2,-15,-1
1529307574707784,4,3,19,-11,5,4,11,6
1529307574707784,-4,1,-1,-6,-1,-2,-14,-5
1529307574721988,0,6,2,3,2,-4,-3,13
1529307574721988,-3,-2,1,-4,-1,2,5,-5
1529307574730204,-2,-7,-9,7,2,2,-1,2
1529307574730204,-2,-2,1,1,4,-4,-26,-3
1529307574744371,-1,-2,-2,-2,-2,-1,16,7
1529307574744371,1,4,2,-2,-1,0,13,1
1529307574752762,-1,4,1,0,0,-1,-7,0
1529307574752762,0,2,2,-1,0,-5,-10,-2
1529307574767966,-2,2,-1,4,2,0,5,2
1529307574767966,-3,-3,-3,-12,-4,-1,-2,-2
1529307574768722,-1,0,-3,-1,-5,-5,-13,-4
1529307574768722,3,-5,-2,1,-3,-4,-8,-3
1529307574782745,3,-2,2,6,5,3,8,8
1529307574782745,3,1,2,-10,2,1,-1,0
1529307574789930,3,-5,0,7,-2,1,-5,1
1529307574789930,2,-1,1,-18,-5,-5,-1,-2
1529307574804655,1,-1,0,-1,0,-2,-14,-2
1529307574804655,3,-2,-1,31,3,6,3,-1
1529307574812843,0,-2,1,-43,2,4,-3,-1
1529307574812843,-2,-2,-2,15,-6,3,-4,0
1529307574827567,0,2,-1,-18,9,-5,-1,-1
1529307574827567,3,-3,-3,-10,-11,-2,-1,2
1529307574828562,1,0,-1,9,4,3,0,-2
1529307574828562,-2,-1,-2,3,-1,-1,13,0
1529307574842529,-2,-1,0,0,-8,1,-2,1
1529307574842529,-4,1,-2,1,6,3,-5,1
1529307574849830,-3,0,0,7,-5,-4,21,0
1529307574849830,-6,-4,-3,-11,-13,-3,-45,-6
1529307574872759,0,-1,2,16,21,-1,-8,0
