timestamp,emg1,emg2,emg3,emg4,emg5,emg6,emg7,emg8
1528180289779305,0,-3,-3,-2,-3,-1,0,-2
1528180289779305,-2,-1,0,-1,-3,-1,-1,0
1528180289780303,-1,-2,-3,0,-2,0,-1,-1
1528180289780303,-1,-3,-1,0,0,-1,-3,-1
1528180289801247,-2,-1,0,0,-3,-3,-2,-1
1528180289801247,1,1,0,1,-1,-1,-2,0
1528180289802244,-2,-1,0,1,-3,-1,-1,-1
1528180289802244,-2,-1,1,-1,-2,-2,0,-1
1528180289816219,-1,-1,0,-1,-1,1,-2,-1
1528180289816219,-1,2,-2,-1,1,2,-1,-2
1528180289817217,1,0,-1,0,1,1,-3,-2
1528180289817217,0,0,-3,0,0,0,1,0
1528180289839187,0,1,-1,0,3,1,-1,0
1528180289839187,-1,0,-1,-1,3,-2,2,-2
1528180289840180,2,-1,-1,-2,0,-4,-1,-2
1528180289840180,1,1,0,0,-1,-2,-1,0
1528180289861087,-1,0,0,1,-1,-4,2,1
1528180289861087,-2,-1,-2,-2,-1,-1,1,1
1528180289862084,-2,-1,-1,-3,0,-2,-2,-1
1528180289862084,-3,-1,3,-1,-3,-1,0,0
1528180289876047,-1,-2,-1,1,-2,1,-1,0
1528180289876047,1,1,-1,1,-1,0,0,-2
1528180289877044,-1,1,0,-2,-1,3,0,2
1528180289877044,1,-1,1,-3,-1,2,-2,-1
1528180289898986,0,-3,0,-3,2,0,-1,-1
1528180289898986,-2,-1,0,-1,1,1,-1,-1
1528180289899984,-2,0,-1,0,0,0,-1,-2
1528180289899984,0,-1,-4,0,-1,-1,-4,-1
1528180289921944,3,-2,-1,-1,-1,-2,-4,0
1528180289921944,2,-2,0,-2,-1,-2,0,-1
1528180289921944,-2,-2,-1,0,-3,0,1,-2
1528180289921944,0,0,-1,-1,-2,0,1,-1
1528180289936885,-1,0,0,0,0,0,0,-1
1528180289936885,-1,0,-2,0,0,-3,-2,0
1528180289936885,-1,1,0,1,1,0,-2,-1
1528180289936885,0,0,-1,2,2,-1,0,1
1528180289958867,-1,-2,-2,0,1,-1,-1,1
1528180289958867,0,-1,1,0,-1,0,0,-1
1528180289959829,0,-2,0,0,1,-1,3,-1
1528180289959829,-1,-1,-2,-2,0,-2,3,0
1528180289981765,1,0,0,-3,-3,-1,4,0
1528180289981765,1,-1,-1,-2,-2,-1,0,-1
1528180289982766,1,-1,-1,-1,-1,-2,-1,1
1528180289982766,-1,0,-1,0,-1,2,-4,-2
1528180289996753,-2,-2,-2,-1,-1,2,0,-3
1528180289996753,-2,0,-1,0,-1,0,-1,-4
1528180289997765,0,-1,0,-1,0,0,-1,-3
1528180289997765,-1,-1,0,0,-1,-1,-2,0
1528180290018666,-1,0,-1,0,0,0,-4,0
1528180290018666,0,-1,-1,-1,-3,0,-3,1
1528180290019662,-1,1,-1,-1,-2,-1,-1,2
1528180290019662,0,1,0,-1,1,-2,1,0
1528180290041630,-2,-1,-3,2,-1,-2,-1,-2
1528180290041630,0,0,-2,0,0,0,-2,-1
1528180290042603,0,-2,0,-1,0,-2,-2,0
1528180290042603,0,-2,1,-1,0,0,-2,-2
1528180290056564,0,-2,3,1,0,-1,0,1
1528180290056564,-2,-1,-2,1,-2,2,-2,0
1528180290063546,-2,1,0,0,-1,3,-1,2
1528180290063546,-1,2,-2,0,1,1,-2,-2
1528180290079504,-1,-1,-3,-2,-2,-1,-3,-1
1528180290079504,-1,-1,-2,0,-3,-4,-5,-2
1528180290079504,-2,-3,-2,-1,-1,-2,-2,-3
1528180290079504,-1,0,0,-1,-1,-3,-1,0
1528180290101472,0,1,0,0,1,-2,1,-1
1528180290101472,0,-2,-2,1,2,-3,1,1
1528180290102444,1,-1,-3,0,-2,-2,0,-1
1528180290102444,-2,-2,-1,1,4,-1,-1,-1
1528180290116443,2,-1,-1,-1,0,-3,-1,1
1528180290116443,0,1,1,-2,-2,1,0,-1
1528180290117448,1,0,0,0,0,0,-1,0
1528180290117448,1,-5,0,0,-5,-3,-1,-1
1528180290139345,-3,-1,-1,-1,-1,-2,1,-1
1528180290139345,-1,-2,-1,0,-1,-1,-2,-1
1528180290139345,0,0,-2,-2,-2,-1,1,-2
1528180290139345,0,0,-2,-3,-2,0,-1,-1
1528180290161318,1,1,0,0,2,0,-1,2
1528180290161318,0,0,0,0,0,-1,0,0
1528180290162284,-2,0,1,-2,-2,-2,-1,0
1528180290162284,-2,0,1,-1,-1,0,-1,-1
1528180290176247,-2,0,-3,0,-2,-1,-1,-2
1528180290176247,-2,-1,-2,-1,1,1,-1,-1
1528180290177247,-1,-2,0,-1,0,-2,0,1
1528180290177247,-1,-1,0,0,-1,-1,0,0
1528180290199183,1,-1,1,-1,-2,1,-1,-1
1528180290199183,-1,0,2,1,-1,0,-1,0
1528180290200181,-1,2,1,1,-1,0,-2,-2
1528180290200181,1,0,0,2,-1,-2,-1,-3
1528180290221139,1,-1,-3,-1,-1,0,2,-2
1528180290221139,1,-3,-3,0,0,1,0,0
1528180290222123,1,-2,0,2,1,1,-3,0
1528180290222123,-2,0,-4,-1,-1,1,-1,0
1528180290236096,-1,0,0,0,0,0,0,0
1528180290236096,-2,0,-1,-3,0,-2,2,0
1528180290237083,-1,0,-2,-4,1,-2,0,0
1528180290237083,0,1,2,-1,1,-2,-1,0
1528180290259062,0,1,0,-1,0,-1,-1,-3
1528180290259062,-1,0,1,0,-2,-2,-2,-2
1528180290260023,-2,-3,-1,0,0,1,-2,-2
1528180290260023,-2,-1,-2,-2,-1,0,0,-1
1528180290281962,1,-2,-3,-2,0,-1,-1,-1
1528180290281962,0,1,-1,-1,0,-1,0,-1
1528180290281962,0,-1,0,2,-3,-1,1,0
1528180290281962,0,-1,-1,0,-1,0,1,1
1528180290296922,-1,-2,1,-1,-2,0,0,0
1528180290296922,1,0,-1,-2,-1,0,-1,0
1528180290296922,0,-2,-2,-2,1,0,-1,0
1528180290296922,1,-2,0,0,1,1,0,-2
1528180290318864,-2,-1,-1,0,1,0,0,-2
1528180290318864,1,-2,1,3,3,0,0,-1
1528180290319862,-1,-1,0,-2,2,-1,-1,0
1528180290319862,0,-2,-1,-1,-2,-2,-2,0
1528180290341804,-1,0,1,-3,-4,-1,-3,0
1528180290341804,0,-1,0,-1,-1,-1,-2,-2
1528180290342801,-1,1,-1,-3,-1,-3,-1,-1
1528180290342801,1,-1,-2,-2,0,-3,0,-1
1528180290355765,-1,1,0,-1,-2,2,-2,1
1528180290355765,-2,0,-1,0,-4,0,1,0
1528180290363970,0,0,-1,-1,-2,-1,0,0
1528180290363970,0,0,0,-1,-2,0,-1,0
1528180290379260,0,-2,0,0,0,-3,-3,-2
1528180290379260,1,0,-2,1,0,-2,0,1
1528180290380003,-1,1,-2,-1,0,0,1,-2
1528180290380003,-2,1,0,-1,0,0,1,0
1528180290402273,1,-2,0,-2,-1,0,-2,-1
1528180290402273,-1,-2,-1,-2,1,0,-1,0
1528180290402273,0,0,0,0,-2,0,1,0
1528180290402273,1,-1,0,0,0,-1,-1,-1
1528180290415944,-2,0,-1,0,1,-1,-1,-4
1528180290415944,-2,0,-1,0,0,4,-2,-3
1528180290422887,-1,-2,-2,0,1,3,-2,0
1528180290422887,0,0,-3,0,0,4,-2,0
1528180290440837,-1,1,0,-1,-1,-3,-1,-1
1528180290440837,-1,-2,0,-2,-1,-4,0,0
1528180290441855,-2,-1,-2,-1,-2,-5,1,0
1528180290441855,-4,0,0,-1,-2,-3,0,-1
1528180290469802,-2,-1,-2,-1,-2,1,3,-2
1528180290469802,-1,-1,-2,-1,-1,-1,-1,-1
1528180290470763,1,1,-1,0,-2,1,-1,-1
1528180290470763,0,-2,-1,-1,-1,0,0,1
1528180290475744,0,-2,-2,-1,-2,0,-1,2
1528180290475744,-1,1,1,-1,-1,-1,-1,0
1528180290483723,2,0,1,0,0,0,-2,0
1528180290483723,0,0,-1,-2,-3,-6,-3,-2
1528180290499688,0,1,-1,0,1,-1,-2,1
1528180290499688,0,-1,1,-1,0,-1,0,0
1528180290499688,-1,-2,2,1,-1,0,0,-2
1528180290499688,-1,0,1,1,0,1,1,-3
1528180290529852,-2,-1,-1,0,-2,2,0,-2
1528180290529852,0,-2,-2,-1,-2,2,-3,0
1528180290530602,-1,2,-2,0,0,0,0,0
1528180290530602,0,-1,-2,-1,-1,0,-1,-1
1528180290552872,0,-1,-1,-1,0,0,0,0
1528180290552872,0,-1,-1,1,1,0,2,-2
1528180290552872,-2,-2,0,-1,0,-2,1,2
1528180290552872,0,-2,0,1,2,0,0,2
1528180290567761,0,0,0,0,0,-3,-3,-1
1528180290567761,1,-1,-2,-1,-1,-3,-2,1
1528180290568702,-2,0,-3,-1,-1,-1,-2,0
1528180290568702,-2,0,-2,0,0,-1,3,-2
1528180290590467,-1,-1,0,-1,-2,-4,-2,-1
1528180290590467,-2,0,1,-1,-1,-2,1,-2
1528180290590467,0,0,0,0,-2,-3,0,-3
1528180290590467,-1,0,-2,-2,2,-1,-3,-1
1528180290605399,-1,-1,-3,-2,1,-2,0,0
1528180290605399,0,-4,-3,-1,1,-3,-1,0
1528180290619694,-1,-2,-2,-1,0,0,-2,-2
1528180290619694,1,1,-1,0,-3,0,-1,-2
1528180290627792,0,-1,1,1,1,-1,0,-1
1528180290627792,-1,-1,2,0,0,-4,-1,0
1528180290628341,1,0,-1,-1,0,0,0,-2
1528180290628341,0,-1,1,-1,-1,-1,-2,0
1528180290650496,-1,3,-1,-1,0,-1,-1,-1
1528180290650496,-1,3,-3,0,-2,-1,-2,1
1528180290650496,-1,-1,-2,0,-1,2,-1,0
1528180290650496,-1,-1,-1,-1,1,0,2,-1
1528180290671564,1,-2,1,0,-2,0,1,1
1528180290671564,-2,0,0,0,-1,2,-1,-1
1528180290679548,-3,-1,2,0,-1,-1,1,-2
1528180290679548,-1,-1,0,-3,-2,1,-3,0
1528180290687562,1,-4,-2,-1,0,-2,-1,-2
1528180290687562,2,-1,1,-2,1,-2,-1,2
1528180290687562,1,-1,1,0,-2,-5,-1,3
1528180290687562,0,1,0,0,1,-4,-2,2
1528180290701872,-2,2,0,0,1,2,1,2
1528180290701872,0,-1,-2,-3,-2,-1,-2,-1
1528180290702520,-2,-1,-1,0,-1,1,-1,-3
1528180290702520,-1,-2,-3,-2,-1,-2,-2,-1
1528180290724892,1,0,-2,1,-2,2,0,-2
1528180290724892,-1,0,1,0,-1,0,-2,-5
1528180290724892,0,0,-1,-2,-1,-1,0,-1
1528180290724892,-1,2,-1,0,1,1,1,-1
1528180290747519,1,0,-2,-1,-1,1,-1,0
1528180290747519,0,1,-2,0,0,2,1,0
1528180290748209,0,0,-1,-2,1,-1,-3,-2
1528180290748209,0,-1,0,0,-1,-3,-1,-2
1528180290762227,-2,0,0,-1,0,0,-2,-1
1528180290762227,-1,0,-2,0,2,1,-1,-2
1528180290762227,1,-1,-1,-1,0,-2,2,1
1528180290762227,1,0,-1,-2,-1,0,0,-1
1528180290784159,-1,0,0,-2,-3,-2,1,0
1528180290784159,-1,0,1,-1,-5,-3,1,0
1528180290785159,-2,0,0,1,-1,2,-2,0
1528180290785159,-1,2,2,0,-2,-1,-1,0
1528180290807051,-1,-2,0,2,-3,-1,-2,1
1528180290807051,-1,-2,-2,0,-1,0,0,0
1528180290808049,1,-3,-3,-1,-1,0,-2,0
1528180290808049,0,-4,-1,-1,0,2,-1,-1
1528180290822011,-1,-3,-1,-2,2,0,-1,0
1528180290822011,-3,-4,0,-2,0,-1,-1,-2
1528180290836977,-1,-1,-2,1,0,1,-4,-2
1528180290836977,0,-2,-1,1,0,0,-2,-3
1528180290843953,-2,2,-2,-1,-1,-2,1,1
1528180290843953,0,2,2,-1,-1,0,3,0
1528180290844950,-1,2,0,0,0,-1,0,-1
1528180290844950,0,-1,-1,-1,0,0,0,-1
1528180290866891,-1,1,1,-2,-1,-1,1,0
1528180290866891,1,-3,-1,1,-1,0,1,0
1528180290867889,-1,-2,-1,-2,-4,0,-1,1
1528180290867889,-3,1,-1,1,-2,1,-1,-1
1528180290896866,-1,-1,-1,-1,0,-1,-1,-1
1528180290896866,-1,0,-3,1,0,1,-1,-1
1528180290897809,1,-1,0,-2,-1,-2,1,-1
1528180290897809,-1,0,-1,1,0,-1,1,1
1528180290903792,0,-2,-2,0,-2,-3,-2,-1
1528180290903792,1,0,-1,-2,0,2,-1,-1
1528180290904796,1,0,-1,-2,-3,-1,0,-2
1528180290904796,0,-2,1,-2,0,-1,-1,-1
1528180290927734,-3,-1,0,-3,-1,-1,-1,-1
1528180290927734,-2,0,-1,0,1,-3,-2,0
1528180290927734,-3,-1,-1,-1,1,-2,-1,1
1528180290927734,-1,0,-3,-1,-2,0,-1,2
1528180290949723,2,-2,-1,0,-1,0,1,0
1528180290949723,-2,-1,-1,0,-1,2,2,0
1528180290950714,0,0,-2,0,-1,2,1,1
1528180290950714,1,-2,1,1,0,1,1,0
1528180290963687,0,-2,-1,0,0,-2,2,-2
1528180290963687,0,-1,0,-1,1,-3,1,-1
1528180290964630,-1,-2,-1,-1,0,-3,-2,-2
1528180290964630,1,0,-1,33,1,-2,-2,-1
1528180290987620,2,1,-1,24,-1,2,-3,-1
1528180290987620,1,0,0,9,-1,-1,-2,0
1528180290987620,-1,0,-1,-1,0,0,-2,1
1528180290987620,-3,0,-1,-20,-2,-2,-3,-1
1528180291000590,-1,1,-2,-19,0,0,-2,0
1528180291000590,-3,2,0,-13,-1,0,-1,0
1528180291009564,-1,-3,1,-10,-2,1,2,-1
1528180291009564,-1,-2,0,-9,0,-1,2,1
1528180291024478,0,0,0,-5,-3,-3,0,-2
1528180291024478,2,-1,-1,-5,-1,-1,-1,0
1528180291024478,0,0,0,0,2,0,0,0
1528180291024478,-2,-2,0,-3,-1,2,-2,-1
1528180291046466,-1,-1,1,-4,-1,0,0,-3
1528180291046466,-1,-2,-2,0,-1,-1,-1,-2
1528180291054449,-1,-1,1,0,-1,-1,0,2
1528180291054449,0,0,-3,-1,0,-2,1,0
1528180291060375,1,0,-3,-3,-2,1,-2,2
1528180291060375,-1,0,0,0,0,0,0,1
1528180291069350,-1,-2,0,5,-2,-1,0,0
1528180291069350,0,0,0,-3,-2,1,2,-1
1528180291084311,-1,-2,0,-1,0,0,-1,0
1528180291084311,-1,0,-2,1,1,-1,0,-1
1528180291085306,-2,0,-2,-1,3,0,-1,-3
1528180291085306,-2,-3,-1,-4,1,-2,-3,1
1528180291107267,-1,-1,0,1,-1,-3,-3,-3
1528180291107267,0,-2,-2,0,-3,-1,-3,-2
1528180291109243,0,1,-2,0,-3,2,1,-1
1528180291109243,-2,0,-2,-1,-1,-1,2,-1
1528180291121212,0,0,-2,0,2,1,3,0
1528180291121212,-1,0,0,0,1,-3,0,0
1528180291145396,-1,1,-3,2,-1,-1,-3,0
1528180291145396,-2,1,0,-1,-3,4,-4,-1
1528180291146394,-2,-2,0,-2,-1,2,-3,1
1528180291146394,0,-1,0,-3,-3,2,0,0
1528180291152389,1,-2,2,-1,-1,0,1,1
1528180291152389,2,0,-1,2,1,-3,1,0
1528180291174322,1,0,-1,-1,-1,-2,1,-1
1528180291174322,0,-2,0,0,-2,0,-1,-3
1528180291176315,-1,-2,1,2,0,1,-1,-1
1528180291176315,-1,-2,-1,0,0,0,0,1
1528180291181558,-2,-2,-2,2,-2,0,-1,0
1528180291181558,-1,0,-3,1,-2,0,1,1
1528180291190276,-2,1,0,-1,-2,-2,1,0
1528180291190276,0,0,0,0,2,-1,1,0
1528180291204240,1,-2,-1,0,1,-1,0,-1
1528180291204240,2,0,0,-1,-1,-3,-1,0
1528180291211445,0,0,-2,-1,0,-1,-2,-1
1528180291211445,1,1,0,1,-1,-1,-1,-1
1528180291227455,-1,-1,1,-1,-1,-3,-2,0
1528180291227455,-1,-2,3,-1,1,-2,1,0
1528180291229221,0,-3,0,1,0,-2,0,0
1528180291229221,0,-2,-2,0,0,1,2,-1
1528180291241189,-1,0,-3,0,-2,1,-1,0
1528180291241189,-1,0,-1,-1,1,-1,-1,-1
1528180291250166,-1,0,-1,-2,1,0,0,-1
1528180291250166,-1,-4,0,-1,-1,-1,0,-1
1528180291264128,-2,-1,-1,-3,-1,1,1,2
1528180291264128,-1,0,-2,-2,-2,0,0,1
1528180291271350,0,0,-1,1,-1,-3,-2,1
1528180291271350,-2,2,-2,-2,-3,0,-3,0
1528180291287066,-2,0,0,0,0,0,-2,-2
1528180291287066,-2,0,-1,-1,-2,-2,-1,0
1528180291289061,0,-2,-1,-3,0,2,0,1
1528180291289061,0,-2,1,-1,-1,0,-1,1
1528180291310234,0,0,-2,-1,0,0,-1,-2
1528180291310234,0,1,-1,-1,2,4,-1,1
1528180291312045,0,0,-1,1,-1,-2,-1,-3
1528180291312045,-1,-2,-1,0,1,-4,1,-5
1528180291324198,-2,0,-2,1,3,-4,1,-3
1528180291324198,1,0,-2,1,1,-2,3,-3
1528180291331199,1,1,-2,-2,-3,-1,1,0
1528180291331199,-1,0,0,-3,-3,3,2,0
1528180291346907,-2,-2,1,-1,-3,0,1,-3
1528180291346907,0,0,-1,-1,0,0,-2,-2
1528180291348901,-3,-1,-1,0,0,-1,-4,-2
1528180291348901,0,0,0,0,0,0,-4,0
1528180291369913,1,-1,0,0,0,1,-4,2
1528180291369913,0,-2,-1,3,-1,-2,-1,1
1528180291370843,1,-1,-1,-1,-1,-1,1,1
1528180291370843,0,0,0,0,0,0,0,0
1528180291391820,-1,-1,0,-2,0,0,-1,1
1528180291391820,-1,-3,1,2,0,-2,-1,-1
1528180291393781,-2,-1,0,-1,1,-1,-1,-1
1528180291393781,1,-1,-2,0,-2,-2,-1,-2
1528180291407764,1,1,-1,-3,-1,-2,1,-1
1528180291407764,1,1,0,-4,-2,0,0,0
1528180291408742,-1,0,1,-2,-4,-3,2,-1
1528180291408742,0,1,0,-1,-1,-3,0,1
1528180291430072,-1,-1,-2,0,0,-1,1,-1
1528180291430072,0,-3,-1,0,1,0,-1,0
1528180291431681,-3,-3,0,0,1,4,-2,-2
1528180291431681,-4,-2,-3,-3,0,-2,-2,-3
1528180291443652,-2,-1,0,-4,-2,0,-1,3
1528180291443652,-4,1,0,-3,-2,1,0,-2
1528180291452624,1,1,-1,1,-1,0,0,-1
1528180291452624,1,-1,1,3,-3,1,0,-1
1528180291466323,1,1,-3,4,3,-1,-3,-3
1528180291466323,1,-3,-2,0,1,-1,-2,0
1528180291475063,3,-1,2,-2,-2,0,-2,3
1528180291475063,-1,2,2,-2,2,-1,-2,1
1528180291489320,-1,-2,-1,-1,-3,-3,-4,-2
1528180291489320,-3,0,-2,0,1,0,1,-1
1528180291491316,-1,-1,-3,-2,-1,-2,0,-4
1528180291491316,1,-2,-1,-2,0,-1,0,0
1528180291503285,0,0,0,-2,-1,0,1,1
1528180291503285,0,1,-1,-1,-1,0,0,-1
1528180291513257,0,0,0,1,0,1,0,-1
1528180291513257,-2,0,-2,0,-1,-3,-1,-1
1528180291527485,-2,-1,2,0,-1,0,-2,0
1528180291527485,-1,-2,1,0,-4,-1,-2,-2
1528180291529215,-2,-4,-2,1,-3,-2,1,3
1528180291529215,1,-2,-2,-1,0,-1,1,1
1528180291550614,0,-3,-1,0,1,-1,2,0
1528180291550614,0,0,0,-4,0,-1,0,1
1528180291551615,0,1,0,-5,0,0,-3,-2
1528180291551615,-2,1,-1,-4,0,-3,-3,1
1528180291563905,-1,0,1,1,0,-1,1,-1
1528180291563905,-1,-3,3,3,0,0,1,0
1528180291572559,-4,-4,1,2,2,0,1,-3
1528180291572559,-2,-1,-1,1,2,2,1,0
1528180291587538,3,3,-1,0,-1,-1,0,-2
1528180291587538,2,1,-3,1,-2,-3,0,-4
1528180291588516,0,2,-2,1,-1,-4,-1,-2
1528180291588516,-1,-2,-1,2,-2,-1,0,-2
1528180291609855,-3,-3,0,3,0,0,-2,1
1528180291609855,0,0,1,2,0,0,-3,2
1528180291611465,-1,-1,0,0,1,2,-5,1
1528180291611465,-1,0,-1,-4,1,2,-1,-1
1528180291623688,-1,-1,-3,-2,-1,1,-1,0
1528180291623688,-1,-1,-3,-1,-1,-3,2,0
1528180291640377,-1,1,-2,2,1,-2,4,1
1528180291640377,-2,0,-2,-1,1,-1,1,0
1528180291647680,-1,-1,0,-2,1,-1,-1,-1
1528180291647680,0,-2,-3,-6,1,1,-2,-2
1528180291648387,0,-1,0,-5,1,1,0,1
1528180291648387,-2,0,-2,-1,0,1,-1,-3
1528180291669585,0,-1,1,-1,1,1,2,-1
1528180291669585,-1,1,0,0,0,-1,1,1
1528180291671318,1,0,-1,-1,-4,-4,1,1
1528180291671318,-2,0,0,3,-1,-1,2,1
1528180291683912,0,1,0,-1,0,-3,-2,-1
1528180291683912,-1,-1,0,2,-1,1,0,-1
1528180291692955,-1,0,0,-2,-1,1,0,-1
1528180291692955,-3,-4,1,-1,-5,0,1,0
1528180291706854,-1,-4,1,1,-5,1,-1,1
1528180291706854,1,-4,-2,-2,-3,0,-1,2
1528180291708847,2,-2,-2,-4,1,-2,-2,1
1528180291708847,21,2,-1,-3,-1,-2,-2,0
1528180291729791,2,-2,-1,0,-3,-1,-1,-1
1528180291729791,-4,1,1,3,-1,-2,-3,-2
1528180291731785,-13,1,0,3,-1,0,-2,-3
1528180291731785,-7,-1,1,-1,-1,1,-1,-2
1528180291743784,-4,1,1,-2,2,-1,2,-3
1528180291743784,-5,-2,2,-2,2,-3,0,-1
1528180291752737,0,-3,1,-2,1,0,0,0
