timestamp,emg1,emg2,emg3,emg4,emg5,emg6,emg7,emg8
1528447799614529,0,-1,-2,-1,-2,0,0,-2
1528447799614529,-1,0,0,-1,0,-1,-2,0
1528447799622508,1,1,0,1,0,-1,-1,0
1528447799622508,0,-2,-2,0,-2,0,0,-1
1528447799629489,-1,0,-1,0,1,0,0,0
1528447799629489,-2,0,0,0,-2,-1,-2,-1
1528447799638465,-1,-2,-1,-3,-2,-1,1,-2
1528447799638465,-1,0,-2,-1,0,-1,-1,0
1528447799651430,0,0,0,0,1,0,-1,0
1528447799651430,1,-2,-3,-3,-1,0,0,0
1528447799659409,-1,-2,-1,2,0,1,0,-1
1528447799659409,-2,0,-1,-2,-1,0,-2,-1
1528447799674369,-1,1,1,-1,-1,-1,0,-2
1528447799674369,0,-1,0,1,0,2,0,1
1528447799681350,0,-2,-2,0,-1,0,0,0
1528447799681350,0,-1,1,0,-1,-2,-1,0
1528447799697308,-1,0,0,-1,-2,-2,-1,0
1528447799697308,0,1,-2,-1,1,-2,0,-1
1528447799711270,-1,-1,0,-2,-2,-1,-1,0
1528447799711270,0,-1,-1,-2,0,-2,0,-2
1528447799719248,-2,0,-1,0,1,-1,-2,-1
1528447799719248,0,-1,-1,-1,0,-1,-1,-2
1528447799734209,-1,1,0,-1,0,-2,-2,-1
1528447799734209,-3,1,-1,-1,0,-1,-1,-2
1528447799752161,-1,0,-1,-2,0,0,0,-1
1528447799752161,-1,-2,-1,0,1,-2,0,0
1528447799772107,1,-1,0,-1,-3,-1,-1,0
1528447799772107,0,0,0,-1,-4,1,-1,1
1528447799794049,1,-1,-1,-1,0,0,1,-1
1528447799794049,-1,-1,-3,-2,-1,-1,-1,0
1528447799802027,-2,-1,0,-3,0,1,0,-1
1528447799802027,-1,0,-1,-1,-1,0,0,-1
1528447799809008,-1,-1,-2,-2,-1,0,-1,0
1528447799809008,1,-1,-1,0,-1,1,-2,0
1528447799818010,1,-1,0,0,0,-1,-3,0
1528447799818010,-2,0,0,0,-1,0,1,-2
1528447799831990,0,0,-1,-2,0,-1,-2,-1
1528447799831990,-3,0,-2,-1,1,0,0,0
1528447799838983,-1,-1,-1,1,-2,0,-2,0
1528447799838983,0,0,0,-2,-2,-2,0,-1
1528447799853889,-2,1,-1,0,0,-1,-2,0
1528447799853889,-1,0,0,-2,0,-1,-2,0
1528447799861870,-2,-1,-1,0,0,-1,0,0
1528447799861870,0,-1,-1,-1,0,-1,-3,0
1528447799876827,1,-2,-1,-1,0,0,0,-1
1528447799876827,-1,0,1,0,-1,0,1,0
1528447799891813,-1,-2,-1,-1,-2,0,0,0
1528447799891813,-1,1,-2,1,1,-1,-2,-1
1528447799898801,-2,0,-1,-1,0,-1,-1,-1
1528447799898801,0,-2,0,0,0,-1,0,-3
1528447799914726,-1,-1,-1,0,-1,1,-1,-2
1528447799914726,-1,-2,0,-1,-1,1,0,1
1528447799936668,-1,-3,0,-1,0,0,0,-2
1528447799936668,-1,1,-1,-1,0,0,-1,-1
1528447799944646,0,-1,-3,-3,-1,-1,-2,-1
1528447799944646,0,-2,-3,-1,1,-1,1,0
1528447799959607,-2,-1,0,0,-1,0,-1,-1
1528447799959607,-1,0,0,1,1,-1,-1,0
1528447799966589,1,-1,-1,-2,0,-1,0,-1
1528447799966589,-2,0,-1,-2,-3,0,-1,1
1528447800004487,1,0,-2,-1,-1,-1,-1,1
1528447800004487,0,-1,0,0,-1,0,0,-1
1528447800011495,-2,-1,-1,1,2,-1,1,1
1528447800011495,0,1,1,-1,-1,-3,-2,-2
1528447800026484,-1,-2,2,0,-1,0,-1,-2
1528447800026484,-1,-1,0,-2,0,0,0,1
1528447800056349,-1,0,-2,0,0,0,0,-2
1528447800056349,-1,-1,0,1,-1,-2,-1,0
1528447800071309,0,0,-1,-1,-1,-1,0,-1
1528447800071309,0,0,0,-1,-2,-1,0,-1
1528447800079286,-1,-1,-1,0,0,0,-1,0
1528447800079286,0,-1,-1,-1,-1,0,-1,-1
1528447800094246,1,1,-1,-1,-1,0,0,-1
1528447800094246,0,0,-2,-1,1,0,1,-1
1528447800101241,0,-1,0,0,-1,-1,-3,0
1528447800101241,0,-1,1,0,-2,0,1,-2
1528447800117185,-1,0,0,-2,-1,-3,-1,-1
1528447800117185,0,-2,-2,-1,0,-2,-2,-3
1528447800131175,-1,-2,0,0,-1,0,-1,-1
1528447800131175,-1,0,1,0,0,0,0,1
1528447800139154,0,0,-1,-2,1,0,1,-1
1528447800139154,0,-1,0,-1,-2,-2,-2,0
1528447800154087,2,-1,0,-1,1,-1,-1,0
1528447800154087,1,-1,-2,-1,1,-1,-2,-2
1528447800162066,0,-1,0,-1,0,-1,0,-1
1528447800162066,-2,0,0,-1,-1,-1,-2,-2
1528447800177061,-2,-1,-1,0,-1,-2,0,0
1528447800177061,-1,0,-1,-2,2,-2,0,0
1528447800192014,-1,-2,-1,1,0,-1,-1,0
1528447800192014,0,-1,1,-1,-2,1,-2,0
1528447800199006,1,-1,0,-1,-3,0,-1,-1
1528447800199006,-1,-1,0,0,1,-1,1,-1
1528447800221906,-1,-1,-2,-2,0,2,-1,-1
1528447800221906,1,-1,-1,1,-1,-2,1,0
1528447800228888,0,-1,-1,1,-2,0,-1,-1
1528447800228888,1,0,0,1,-1,0,-1,1
1528447800243847,-2,0,0,0,0,-1,-1,-2
1528447800243847,0,-1,-1,-1,0,-1,1,0
1528447800258845,0,-2,-1,-1,-1,-1,-1,-1
1528447800258845,-1,-1,-1,-1,-1,0,-1,-1
1528447800273766,-1,1,0,-1,0,1,0,0
1528447800273766,0,-1,0,-1,0,1,-2,-1
1528447800281793,-1,0,-1,1,0,0,0,0
1528447800281793,0,-1,-1,0,0,0,0,0
1528447800296745,-3,-2,1,-1,1,1,0,-1
1528447800296745,-2,0,-2,-1,-2,1,-1,1
1528447800311694,-1,0,-1,-1,-2,-1,-1,0
1528447800311694,-1,2,0,0,-1,0,0,-1
1528447800319920,1,0,-2,-1,0,-2,-1,0
1528447800319920,-1,0,-1,0,0,-1,0,-2
1528447800334634,0,0,1,0,1,0,0,0
1528447800334634,1,0,0,-2,-1,0,-1,-1
1528447800341585,0,-1,-1,0,-1,-1,-1,0
1528447800341585,0,0,0,-1,-1,-1,0,0
1528447800356546,0,1,-2,-1,-2,0,1,0
1528447800356546,-1,0,-1,0,-1,-2,-2,-1
1528447800371506,-1,0,0,-1,-2,-1,0,1
1528447800371506,1,-1,0,0,2,-1,0,0
1528447800379495,1,-2,0,-2,1,-1,-2,-1
1528447800379495,-1,-1,-2,-2,-6,0,-1,-2
1528447800394446,0,0,-1,0,-2,-2,-1,-1
1528447800394446,0,0,0,-1,0,-2,0,-1
1528447800401457,0,0,-1,0,-1,-1,0,1
1528447800401457,0,0,0,-1,2,0,0,-2
1528447800416612,-1,-1,0,0,-2,0,-1,0
1528447800416612,0,-2,-2,-1,1,-1,-1,0
1528447800431631,0,-2,-2,-1,-1,0,-2,0
1528447800431631,-1,0,-2,0,1,-2,0,0
1528447800439606,-2,-1,-2,-4,-1,0,1,-1
1528447800439606,0,0,0,-2,-1,-1,0,0
1528447800454578,0,0,-2,0,0,-1,-1,-2
1528447800454578,1,0,-2,-3,0,-1,1,-2
1528447800461547,-1,0,-1,1,0,-1,-1,-1
1528447800461547,0,0,1,-1,0,0,0,0
1528447800476511,0,-1,1,0,0,-2,-1,-1
1528447800476511,0,-1,-3,-1,0,-1,1,-1
1528447800491500,-1,-1,1,-1,2,-1,1,0
1528447800491500,0,0,-1,-1,-2,-3,-1,0
1528447800499449,0,-1,0,-1,-1,0,-2,-2
1528447800499449,-1,0,0,0,-1,-2,-1,0
1528447800514637,0,0,-2,0,0,-1,0,0
1528447800514637,-1,-1,-1,0,2,1,-1,-1
1528447800521626,0,1,-1,1,0,0,1,0
1528447800521626,0,-1,-2,-3,-5,-1,-3,-2
1528447800536800,-2,-1,0,0,0,-1,0,0
1528447800536800,-2,-3,-1,-1,-2,-1,-3,-2
1528447800551569,-1,-1,0,-1,1,-1,-1,-1
1528447800551569,-3,-2,-3,-1,-2,1,0,0
1528447800559560,0,-1,0,-1,1,-1,1,-1
1528447800559560,-1,0,0,0,1,-1,0,1
1528447800581458,0,-1,0,-2,-2,-1,-1,0
1528447800581458,1,-1,-2,0,-1,-1,-2,0
1528447800589437,-2,1,-2,-1,0,-1,-1,0
1528447800589437,0,0,0,1,1,0,-2,1
1528447800604397,-1,-1,-3,-1,-1,-1,0,-1
1528447800604397,-1,0,0,1,1,-2,-1,0
1528447800619390,-1,2,0,0,2,-2,0,-4
1528447800619390,0,-1,1,1,0,-2,-1,-1
1528447800626339,1,0,0,-1,-2,2,0,0
1528447800626339,0,1,0,-3,-1,0,1,0
1528447800634324,-1,-1,1,0,-1,1,-3,1
1528447800634324,0,-2,0,-1,2,0,0,0
1528447800641332,1,-2,-1,-3,-8,-1,-2,-1
1528447800641332,-1,-1,-1,2,2,0,0,-1
1528447800656314,0,1,-1,0,0,-1,-2,-2
1528447800656314,-1,-1,-1,0,-1,0,1,-1
1528447800671219,0,0,-2,0,0,-1,1,0
1528447800671219,0,-2,-2,-4,0,0,0,1
1528447800679236,-1,1,0,0,0,-1,-2,-1
1528447800679236,0,0,-1,0,-2,0,0,-1
1528447800694159,0,-3,-1,-1,0,0,-1,1
1528447800694159,1,-1,-1,1,-1,-1,0,-1
1528447800702199,-1,0,1,-2,0,-1,-1,-2
1528447800702199,-2,-1,1,0,-1,-1,-1,-1
1528447800717148,-1,-1,-1,1,3,0,0,-1
1528447800717148,0,-1,-2,-5,-5,-2,-2,0
1528447800732110,0,-1,-1,-1,-2,-3,0,0
1528447800732110,-1,-1,-1,-1,-2,0,-1,0
1528447800739095,-1,-1,-1,2,1,1,-2,-1
1528447800739095,0,-2,-2,1,1,1,0,-1
1528447800753997,-1,-2,0,0,-1,2,-2,1
1528447800753997,0,-1,-2,-1,-2,-1,0,0
1528447800762020,1,-1,2,-1,-1,0,1,0
1528447800762020,0,0,0,1,0,0,-1,-2
1528447800776949,0,0,-2,-2,-1,-1,-1,-1
1528447800776949,0,0,0,0,0,0,-1,-1
1528447800791951,-1,0,1,3,1,0,1,-3
1528447800791951,-1,-1,-2,-5,-3,-2,-1,-1
1528447800798878,-2,-1,-2,-1,-1,-1,-1,0
1528447800798878,-1,0,-1,-2,-1,0,-2,1
1528447800813886,0,0,1,-1,0,-1,-1,-1
1528447800813886,-1,-2,0,2,0,0,0,-1
1528447800821816,0,-3,0,-1,-2,0,1,0
1528447800821816,0,0,-2,-1,0,0,1,0
1528447800843802,1,-1,0,-1,-1,0,-1,-1
1528447800843802,1,1,-2,1,-2,0,0,0
1528447800851736,1,-1,-1,0,-1,-2,-1,-1
1528447800851736,-2,0,-2,-2,0,0,0,0
1528447800866723,1,0,-2,0,-1,0,-1,-1
1528447800866723,-1,-1,0,-1,-1,-1,0,0
1528447800889634,0,0,-3,-1,-2,0,0,-1
1528447800889634,-1,0,-1,0,0,-1,-2,-1
1528447800904608,-1,0,0,-2,0,1,-1,1
1528447800904608,0,-2,-1,-1,1,-1,-3,-1
1528447800911577,0,1,0,-2,1,-1,0,-1
1528447800911577,0,0,0,-1,-1,0,-1,-1
1528447800926536,0,-1,0,-2,-1,-1,-2,-1
1528447800926536,1,-1,-1,2,1,0,-2,-1
1528447800934516,-1,-1,-1,-2,-2,1,-1,0
1528447800934516,-2,2,0,-2,-3,0,0,-2
1528447800941539,0,-1,-1,0,0,-2,1,1
1528447800941539,-1,-1,-1,-1,0,0,-1,-1
1528447800956491,-1,0,-2,-1,0,-3,-1,1
1528447800956491,-1,-2,-3,0,-2,-1,-1,1
1528447800964796,-1,-2,-1,-1,0,0,-1,0
1528447800964796,0,-1,0,-3,-2,-2,0,-1
1528447800979793,-2,-1,0,1,-1,0,-2,0
1528447800979793,0,0,0,-1,-1,-1,-2,1
1528447800993831,-2,-3,-2,1,0,0,-1,1
1528447800993831,0,-1,-1,-1,-2,-1,0,-1
1528447801002191,-2,-1,-1,-1,1,0,0,-1
1528447801002191,-1,-1,-1,0,-2,1,1,-1
1528447801017134,0,0,-2,-2,-2,-2,0,-1
1528447801017134,0,-2,0,-1,1,0,1,0
1528447801024754,-1,-1,-3,-2,0,0,0,0
1528447801024754,1,-2,-1,-1,1,0,0,-2
1528447801039001,1,1,0,0,-1,-2,-1,-1
1528447801039001,1,-1,0,0,-2,-1,-1,2
1528447801054260,-1,0,-2,-2,0,0,-2,0
1528447801054260,-3,0,0,-1,0,-1,0,0
1528447801062486,-1,-2,1,-1,-2,-1,-1,-2
1528447801062486,-1,-1,0,0,0,-1,-2,0
1528447801076760,1,-1,1,1,0,0,-1,-2
1528447801076760,-1,1,-3,-2,0,-1,0,0
1528447801083780,-1,0,-1,0,0,-1,0,0
1528447801083780,-1,-1,0,-1,0,-2,-2,-1
1528447801099698,-1,1,-2,-2,-1,0,-1,-1
1528447801099698,-1,-1,-1,0,-1,0,1,-1
1528447801114956,-1,-2,0,0,-2,-1,-1,0
1528447801114956,0,0,0,-1,-1,-2,-1,-1
1528447801122340,1,-1,0,0,0,1,1,0
1528447801122340,-1,-1,-2,-1,0,-1,0,-1
1528447801137200,-1,1,-1,0,1,-1,-1,-2
1528447801137200,-1,-1,-2,0,-1,0,-1,0
1528447801144650,-1,-1,0,0,-1,-2,-1,-1
1528447801144650,0,0,0,-1,0,-1,-1,0
1528447801159689,1,0,-1,-1,-1,0,-1,-2
1528447801159689,0,0,-1,0,0,0,-2,-1
1528447801174670,-2,-2,-2,1,0,0,0,0
1528447801174670,-2,0,1,-2,-2,-1,-1,-2
1528447801182461,0,0,-1,-1,1,-2,0,0
1528447801182461,-2,0,-1,0,-1,-1,0,-2
1528447801196348,-1,0,-1,-1,-1,-1,-2,-1
1528447801196348,1,0,0,0,1,0,-1,-2
1528447801204328,-1,-1,-1,1,-2,0,-1,0
1528447801204328,0,1,0,2,0,0,0,0
1528447801218884,-1,1,0,-1,-1,-1,-1,-1
1528447801218884,-1,-2,0,-4,-1,-3,-1,0
1528447801234402,-1,1,-1,2,0,-1,0,-1
1528447801234402,-1,-1,-1,0,0,0,-1,1
1528447801242414,-1,-1,-2,0,-2,1,-1,-1
1528447801242414,-1,-1,-4,0,0,0,0,-2
1528447801256821,0,-1,1,0,-2,-1,-2,0
1528447801256821,-1,-1,-1,-1,0,-3,-1,-2
1528447801264742,1,-1,-1,-1,0,-1,0,0
1528447801264742,-1,-2,-3,-1,-1,-2,-1,0
1528447801279580,0,0,1,1,0,-3,0,0
1528447801279580,-1,1,0,-1,-2,-1,-1,0
1528447801294904,-1,1,-2,-2,0,0,-1,-1
1528447801294904,0,-1,0,0,0,1,-1,-1
1528447801302589,-1,-2,-1,-1,0,1,1,0
1528447801302589,-2,0,-1,0,-1,0,0,-1
1528447801317560,0,-2,0,0,0,1,-1,-2
1528447801317560,-2,0,-1,0,0,2,-1,-1
1528447801324846,-1,0,-2,-1,-2,-2,0,-1
1528447801324846,0,-2,0,-1,-2,-2,1,-1
1528447801339888,-1,-1,-1,-1,-2,0,-1,0
1528447801339888,0,1,-1,-1,0,-2,-1,1
1528447801353799,0,0,-1,-2,-1,-3,-1,-1
1528447801353799,1,-1,0,-1,-1,-1,-1,1
1528447801361774,-1,0,-2,-1,-1,0,1,-1
1528447801361774,0,0,-1,-1,0,0,0,0
1528447801376918,-1,0,0,1,-1,1,0,-1
1528447801376918,0,-2,-2,-1,-1,0,0,0
1528447801384527,-1,-2,-1,-1,-2,0,-2,0
1528447801384527,1,-3,1,0,-1,-1,0,-1
1528447801399139,0,1,0,1,0,-1,-1,-1
1528447801399139,-1,-1,-1,0,0,0,-2,-1
1528447801421383,-2,0,-1,0,0,-1,-2,-1
1528447801421383,1,-2,0,-2,0,0,0,-1
1528447801436593,-1,-2,0,0,0,-2,-2,1
1528447801436593,-1,-1,0,0,-1,1,-1,-1
1528447801451935,-1,0,0,-1,-1,-1,0,0
1528447801451935,-1,-1,-2,-1,-2,0,-1,-1
1528447801459916,0,0,-1,-2,0,-2,0,0
1528447801459916,-1,-1,0,-1,-2,-1,0,-2
1528447801466898,-2,-2,0,-1,0,-2,-1,-1
1528447801466898,0,-1,-2,-1,0,-1,-1,-1
1528447801482063,0,-1,0,0,0,-2,-1,-1
1528447801482063,0,-2,0,-1,-1,-1,0,1
1528447801497039,0,-1,0,0,1,0,-2,-1
1528447801497039,1,-1,-1,-1,-2,-1,0,0
1528447801504680,0,-1,0,-2,0,1,1,-1
1528447801504680,0,0,0,0,2,0,-1,0
1528447801520063,1,0,0,-1,0,-1,1,-1
1528447801520063,-1,0,-2,-2,-1,0,-2,0
1528447801534251,0,-1,0,1,0,0,-1,1
1528447801534251,-3,1,-2,-2,-1,-1,-2,0
1528447801542226,-2,-1,0,-1,-1,0,-1,0
1528447801542226,-1,2,0,-1,-2,0,0,-2
1528447801557189,1,-3,-2,1,-1,-2,1,-1
1528447801557189,-1,0,-1,1,-1,-1,0,0
1528447801564935,0,2,1,-1,-2,0,-1,0
1528447801564935,-1,1,-1,0,-1,-1,-1,-1
1528447801579910,1,-1,-1,1,1,-1,-1,-1
1528447801579910,0,-3,0,-1,0,-1,0,1
1528447801594623,0,0,-1,0,-1,-1,1,-1
1528447801594623,-1,-1,-1,-2,0,0,-1,1
1528447801602434,-1,-1,0,0,0,1,-1,-2
1528447801602434,-2,0,0,0,0,-1,0,-2
1528447801617309,-1,0,0,-3,-1,-2,0,-1
1528447801617309,1,0,0,0,-1,0,-1,-1
1528447801624540,-1,0,-1,0,-4,-2,1,1
1528447801624540,0,0,-1,0,-1,-1,-1,2
1528447801647254,0,-1,-1,-2,0,-1,0,0
1528447801647254,-1,0,-1,0,0,-1,0,-1
1528447801662021,0,-1,0,-1,0,0,0,0
1528447801662021,0,-1,0,0,-1,-1,0,1
1528447801669933,0,-2,-2,1,0,0,-1,-2
1528447801669933,0,-1,0,0,-1,-2,0,-2
1528447801684566,0,0,0,-1,-1,-1,-3,-1
1528447801684566,-1,1,-1,0,0,-2,-1,0
1528447801692469,0,0,0,-1,-1,0,-3,-1
1528447801692469,0,-1,-2,-1,0,-1,-1,2
1528447801699728,0,-2,-2,-1,-1,0,0,-2
1528447801699728,0,-2,0,-2,-1,0,-1,0
1528447801721802,-2,-1,-1,1,-1,1,-1,-1
1528447801721802,-1,-2,-1,-2,0,-1,1,1
1528447801730115,0,1,1,0,0,1,-2,0
1528447801730115,0,0,-2,-3,-1,0,0,-1
1528447801744972,0,-1,-1,-2,-1,-2,1,-1
1528447801744972,0,-1,0,0,-1,0,0,1
1528447801751981,-1,-1,1,0,1,0,1,-1
1528447801751981,0,-1,1,0,-2,-1,-2,0
1528447801759912,0,0,-1,-2,1,-1,-1,0
1528447801759912,-2,0,-3,-1,-2,0,0,-2
1528447801766683,0,1,0,-1,-1,-1,-2,-2
1528447801766683,0,1,-1,0,1,1,-1,1
1528447801782310,-1,-1,-2,-1,-2,-1,1,0
1528447801782310,-1,-1,-1,-1,0,0,-2,0
1528447801797243,-1,-1,0,-1,-2,0,-1,0
1528447801797243,-1,-1,-1,0,-2,-2,-2,0
1528447801803867,-2,-3,-3,-1,-2,1,-1,0
1528447801803867,-1,0,-1,-1,-1,-1,-2,-2
1528447801819934,0,-1,-2,0,1,-1,0,1
1528447801819934,0,-1,-1,0,0,0,-1,-1
1528447801826776,0,-2,-1,-2,-1,0,0,0
1528447801826776,0,0,-2,-2,0,0,0,-1
1528447801841739,-1,-1,1,-2,0,-2,-2,0
1528447801841739,1,1,0,-1,0,-1,-2,-2
1528447801857123,0,2,-1,0,0,0,-1,-1
1528447801857123,-1,0,-1,-1,0,1,0,0
1528447801865021,-1,-1,-1,-1,1,0,1,-1
1528447801865021,-1,-2,1,0,-1,-2,-1,0
1528447801879105,-2,0,-1,-2,1,-1,-1,-1
1528447801879105,-1,-1,-2,0,-2,-1,-1,0
