timestamp,emg1,emg2,emg3,emg4,emg5,emg6,emg7,emg8
1528449456508135,-1,1,-9,-67,-23,4,8,-11
1528449456508135,-5,0,1,1,-1,-7,-13,9
1528449456509132,-1,2,5,14,15,22,4,-4
1528449456509132,1,0,10,45,12,6,1,-7
1528449456510130,0,-4,2,-1,-7,-25,7,-2
1528449456510130,2,3,4,-15,43,33,0,-7
1528449456514119,3,-3,-32,-64,-32,-17,0,22
1528449456514119,-3,-3,-8,-13,-4,-2,-4,0
1528449456518109,1,4,35,79,22,15,9,-4
1528449456518109,0,-4,-10,-20,-33,-18,-6,-27
1528449456533068,-9,-13,1,6,-3,-23,-9,23
1528449456533068,11,16,6,16,14,17,13,24
1528449456536059,-10,-12,-18,-25,-24,-14,-16,-5
1528449456536059,1,-1,3,53,1,-7,-3,-3
1528449456547033,-4,3,-9,-51,-12,5,2,-26
1528449456547033,-1,11,13,-28,-43,-34,2,3
1528449456552019,-1,0,9,10,17,6,-12,-4
1528449456552019,-1,-4,-49,-30,4,12,6,-4
1528449456573961,-3,-11,-4,17,-8,-3,-3,-2
1528449456573961,-15,-1,83,58,27,-2,-10,-17
1528449456613853,-6,-13,-48,-37,55,26,7,-3
1528449456613853,2,3,40,47,41,13,7,6
1528449456615847,1,5,14,24,4,11,13,3
1528449456615847,-1,13,-9,-15,-3,0,-10,-8
1528449456618839,-7,-23,-11,-10,-46,-16,5,0
1528449456618839,3,1,-16,-14,15,7,0,-2
1528449456619836,-5,4,2,-1,31,32,17,-3
1528449456619836,12,16,22,-6,-2,12,3,12
1528449456626817,34,-5,-5,1,-1,-9,16,-2
1528449456626817,-16,6,-33,-30,-37,-13,14,12
1528449456632801,-36,-9,-23,12,11,16,16,-1
1528449456632801,0,0,-4,6,19,-9,-6,4
1528449456649756,-23,-3,49,7,-8,-7,6,-20
1528449456649756,40,13,-6,5,-1,35,37,40
1528449456656737,-20,-31,1,-16,-24,-37,-19,-8
1528449456656737,-16,-14,-19,3,-17,-1,21,-5
1528449456664717,8,-3,11,4,50,11,-43,-17
1528449456664717,-1,8,-10,-14,21,0,-13,-15
1528449456686678,42,35,-15,-11,-8,2,-12,6
1528449456686678,-31,3,18,9,-19,-43,-26,-8
1528449456688679,-3,15,-3,-3,-36,14,13,9
1528449456688679,-15,-22,13,-3,21,9,32,-7
1528449456700621,-9,-29,-22,-16,-1,-4,-23,-33
1528449456700621,25,-1,-11,-13,-18,-28,-66,-5
1528449456710594,8,15,9,9,-1,-7,-1,21
1528449456710594,-12,-15,-3,-7,0,36,24,6
1528449456724557,3,-8,2,3,-9,-30,-13,-2
1528449456724557,10,1,1,2,6,10,28,2
1528449456730576,-18,-3,-3,-4,-10,-9,-12,-3
1528449456730576,-7,-10,-5,-15,-17,-33,-42,-26
1528449456746539,10,7,0,2,-8,-2,23,10
1528449456746539,-7,-7,-14,-2,16,22,7,0
1528449456748494,10,25,5,26,6,-3,3,7
1528449456748494,-12,3,17,6,-5,-14,-22,-9
1528449456761483,6,16,17,4,-15,0,-1,7
1528449456761483,1,-14,-14,-6,3,3,19,1
1528449456770434,-2,-10,-3,26,14,1,-8,-7
1528449456770434,7,6,0,19,-4,-6,-4,-1
1528449456783412,-7,-2,-17,-38,-9,2,12,1
1528449456783412,0,-14,3,-3,-4,0,-2,-3
1528449456790380,-6,-16,-15,-2,-6,4,15,7
1528449456790380,0,5,0,19,-8,-14,-16,-6
1528449456806376,-4,-12,5,-5,7,0,-7,-6
1528449456806376,-2,7,-2,3,-3,-2,9,10
1528449456808333,6,2,2,-4,-2,-4,2,-33
1528449456808333,10,7,-3,3,5,6,14,32
1528449456820338,-18,-62,-8,-23,-20,-5,-7,-14
1528449456820338,8,0,11,6,7,8,12,0
1528449456829276,-6,-7,-5,-4,-6,-12,-13,10
1528449456829276,-7,13,4,5,-8,-16,-29,-24
1528449456844237,4,19,14,4,-4,1,-9,-4
1528449456844237,-12,-29,-22,-3,17,15,6,4
1528449456852216,1,-12,4,0,21,17,8,12
1528449456852216,-5,15,-17,-16,-13,-17,-6,-7
1528449456867206,-7,-7,10,23,1,-1,-2,5
1528449456867206,-10,-12,10,-31,-63,-24,-13,-19
1528449456868207,31,26,-20,14,73,21,3,24
1528449456868207,-15,-31,0,-2,-6,1,-10,-13
1528449456889116,21,24,-19,1,11,12,40,23
1528449456889116,-17,-25,14,2,-2,-6,4,-6
1528449456891110,-9,36,41,9,-23,-16,-15,-15
1528449456891110,-2,-31,-22,-38,-25,-14,-11,-14
1528449456904076,18,51,-11,9,14,4,1,15
1528449456904076,-4,-12,-18,-12,13,16,21,2
1528449456910060,1,-8,-19,-27,-30,-15,-19,4
1528449456910060,18,46,29,34,14,0,0,9
1528449456927015,-20,-16,20,11,4,1,-8,-13
1528449456927015,30,39,-11,-3,8,8,1,0
1528449456928012,-16,-8,5,2,-14,-4,3,-8
1528449456928012,5,10,14,-10,0,1,3,1
1528449456948958,-9,-24,0,5,3,-9,-45,-11
1528449456948958,13,37,14,25,25,16,30,-6
1528449456950970,11,8,-12,-21,-20,-6,7,27
1528449456950970,3,1,-13,-21,-19,-12,-17,1
1528449456962918,-39,-60,-7,6,12,9,8,2
1528449456962918,14,21,13,2,6,-3,-15,5
1528449456971895,-1,-3,0,-8,-19,-5,-3,-15
1528449456971895,-1,3,-22,11,-23,-10,6,2
1528449456986857,1,21,-2,-8,36,5,0,3
1528449456986857,8,-16,-7,6,10,3,-7,-1
1528449456988851,-58,-50,-8,-3,1,15,8,-5
1528449456988851,17,-24,-9,0,1,10,2,8
1528449457009796,-1,31,9,-5,-25,-19,-4,-12
1528449457009796,-11,-10,-8,-9,-10,-20,-26,-5
1528449457010792,33,22,5,5,10,8,8,0
1528449457010792,-12,-51,-9,0,10,9,6,2
1528449457022798,7,8,20,-9,-47,-15,-5,-1
1528449457022798,-26,-25,-18,6,56,2,-6,-4
1528449457031735,9,5,-24,-27,-15,-2,5,3
1528449457031735,-32,-23,2,11,5,-4,1,-43
1528449457046696,16,-21,-2,-5,0,5,5,26
1528449457046696,-10,-46,30,8,-28,-7,-9,4
1528449457048691,-4,-67,-44,1,-1,-5,0,-2
1528449457048691,1,-114,16,-3,1,-5,-7,-6
1528449457069635,7,-127,-6,1,-1,-2,1,1
1528449457069635,5,-97,11,1,-10,-2,-1,15
1528449457070641,-2,-3,-4,0,3,-7,-15,-15
1528449457070641,3,79,-3,-13,-8,-2,-3,10
1528449457082638,-3,111,11,2,-4,-5,-7,-5
1528449457082638,-3,112,-17,16,13,4,-2,6
1528449457091578,-1,77,12,-18,-12,-8,-2,2
1528449457091578,-1,82,2,10,17,10,4,5
1528449457106535,20,77,9,6,4,2,-4,2
1528449457106535,-15,60,-19,-17,-14,-5,-12,-11
1528449457108529,-20,35,13,12,-4,-5,-3,-5
1528449457108529,-2,41,-2,-15,-10,-4,-2,-1
1528449457129474,8,55,-8,9,22,3,0,-3
1528449457129474,6,48,7,-1,-8,5,6,0
1528449457130510,14,47,3,4,-2,-4,-13,-7
1528449457130510,-24,51,5,-10,-6,1,-4,-1
1528449457142494,13,55,-21,-1,7,12,26,27
1528449457142494,-20,51,6,5,5,13,-5,-41
1528449457151469,7,28,4,3,-2,-7,-15,6
1528449457151469,-24,55,3,3,8,-1,-3,-1
1528449457167430,4,50,-6,-7,-13,-3,-6,-9
1528449457167430,9,19,1,8,-9,-9,5,6
1528449457168423,-9,-2,8,9,16,4,7,0
1528449457168423,10,-5,-2,2,7,23,9,-5
1528449457189368,-3,-42,-3,-3,-10,1,-6,-25
1528449457189368,13,-10,-7,-24,-10,-3,8,34
1528449457190365,-4,-28,18,16,-1,1,-1,-7
1528449457190365,4,-34,-50,-11,14,-6,7,-1
1528449457203329,-2,0,-10,21,14,-53,-70,-6
1528449457203329,29,-55,-9,-23,-12,75,38,1
1528449457212306,-32,-109,41,16,0,3,35,20
1528449457212306,15,52,-7,-20,-21,-8,-15,-10
1528449457227292,9,72,31,-4,3,-7,-5,67
1528449457227292,10,-16,17,38,28,-22,-12,-20
1528449457228263,3,-17,-84,-46,-33,-18,3,-26
1528449457228263,-5,-2,59,9,0,23,45,48
1528449457249207,39,0,-19,-21,-25,-37,-52,49
1528449457249207,-21,99,-45,-3,39,48,77,5
1528449457251203,49,127,78,49,-6,-16,-30,45
1528449457251203,-18,98,1,-27,-18,-28,-11,24
1528449457264174,-17,127,-44,-17,-19,-3,-7,-54
1528449457264174,4,119,-7,-19,-5,-41,-15,43
1528449457272160,26,52,-86,-4,6,8,6,24
1528449457272160,-28,-37,66,17,2,7,5,15
1528449457287106,-39,-128,12,4,7,7,5,-63
1528449457287106,24,-128,87,21,-13,-20,-46,-23
1528449457288358,24,-108,-47,-54,17,29,49,51
1528449457288358,31,-99,-1,9,3,-7,-25,36
1528449457309313,7,-128,39,5,5,25,36,-20
1528449457309313,45,-49,50,27,-6,-23,-30,68
1528449457311043,-89,-87,15,-38,-28,-23,-54,-109
1528449457311043,112,-38,-7,3,25,17,17,75
1528449457323767,-9,-64,59,5,-1,9,9,-52
1528449457323767,-16,-34,0,7,-16,-5,-9,-28
1528449457331940,-71,-42,68,77,13,-7,0,65
1528449457331940,-100,-56,-93,-81,-19,-7,-29,-115
1528449457346551,-97,16,-30,24,0,3,-2,-42
1528449457346551,-1,15,22,-4,-9,-8,-11,18
1528449457348495,19,-3,-11,-3,13,14,7,15
1528449457348495,-13,-43,5,19,7,-7,-16,-75
1528449457370083,67,-2,4,9,8,13,35,116
1528449457370083,-81,-46,-90,-43,-34,-20,-23,-79
1528449457370922,16,-1,18,-8,18,-6,-11,-36
1528449457370922,-19,-28,60,33,5,12,12,10
1528449457383438,-10,-20,-52,-5,26,13,8,-14
1528449457383438,8,-6,13,-4,9,16,35,24
1528449457392457,25,-20,-17,-25,-14,8,25,-40
1528449457392457,-24,56,42,67,-3,-17,12,39
1528449457406419,-32,-35,-2,-3,-1,-6,-1,17
1528449457406419,21,29,20,6,10,8,14,-6
1528449457408413,66,29,-19,-1,-2,2,20,10
1528449457408413,23,-18,-23,-24,-6,-6,-11,-6
1528449457429736,13,-5,5,17,-8,1,20,3
1528449457429736,9,20,-39,-49,-36,-16,-10,8
1528449457431353,-12,27,68,17,25,-3,-28,-10
1528449457431353,19,-16,-27,81,-14,2,-4,4
1528449457443321,13,25,-5,-84,29,6,-2,12
1528449457443321,21,-35,-66,-28,-22,12,35,40
1528449457452297,-67,39,67,6,-12,-5,-7,-30
1528449457452297,45,2,-36,-16,-12,-9,-7,-2
1528449457467257,13,31,46,47,10,6,8,4
1528449457467257,-7,-10,-12,24,14,-4,-19,-22
1528449457468254,8,24,-20,-14,-15,-6,-12,-8
1528449457468254,-12,-13,-2,-4,5,-4,7,-1
1528449457489198,1,-12,2,-10,1,5,-10,-6
1528449457489198,26,6,13,3,6,-8,-46,-4
1528449457491192,-73,-9,-13,6,0,5,-13,-17
1528449457491192,8,-9,-3,-2,0,-2,-12,-11
1528449457503160,2,21,0,-25,-33,-15,-5,-3
1528449457503160,-22,-22,-17,-9,17,10,11,-2
1528449457512137,44,-30,-32,-18,5,9,9,3
1528449457512137,-14,18,-21,-16,-6,-9,-2,-2
1528449457526155,-11,-17,-8,-12,-25,-13,-9,-7
1528449457526155,-21,0,48,65,16,0,-1,-13
1528449457533125,21,2,-14,-28,8,2,-13,4
1528449457533125,12,2,15,-3,10,10,20,-14
1528449457549038,-7,-2,-16,13,-3,-3,-6,7
1528449457549038,10,-6,-1,-21,-17,-20,-36,-14
1528449457551033,7,5,15,30,5,2,6,14
1528449457551033,-9,4,14,-11,-9,-15,-11,-4
1528449457563028,1,6,-2,-5,2,1,4,-7
1528449457563028,-19,-11,-14,-3,21,18,4,-3
1528449457571977,0,-2,-4,5,-6,2,11,10
1528449457571977,1,4,-6,-3,9,4,0,8
1528449457593961,15,0,6,13,-10,-1,-5,-1
1528449457593961,2,0,3,4,-3,-12,1,1
1528449457595912,-7,-24,-1,-11,0,0,6,7
1528449457595912,1,4,4,-1,-4,1,-1,-3
1528449457616910,0,-10,-13,-7,4,4,3,-9
1528449457616910,-12,1,12,1,-3,-1,-2,-20
1528449457618877,4,11,-10,7,-12,-7,2,7
1528449457618877,-4,1,2,-18,1,-2,-7,-4
1528449457631816,24,0,3,4,6,6,1,-9
1528449457631816,-4,15,5,-1,-1,1,21,13
1528449457633823,-11,-6,-6,-3,-14,-9,-6,15
1528449457633823,3,-5,-9,1,13,9,3,-2
1528449457654767,0,5,-6,-3,-3,-1,1,-3
1528449457654767,-13,-4,6,1,-6,-5,-5,-3
1528449457655752,28,11,-4,-2,-3,-9,-11,0
1528449457655752,5,7,6,-9,6,10,25,17
1528449457667770,-22,-24,-9,2,-4,-1,-4,-4
1528449457667770,11,-1,-7,-10,-5,-7,-4,0
1528449457676697,-14,18,8,7,2,-2,-8,-15
1528449457676697,4,9,2,9,-4,-6,-11,-2
1528449457691657,-21,-53,-2,-19,10,10,0,-3
1528449457691657,-11,-10,-1,-5,-7,-5,-4,-3
1528449457693651,9,2,-3,1,4,1,-10,-3
1528449457693651,-16,3,4,3,-2,-1,-4,-11
1528449457714596,12,27,-3,1,-8,-4,10,23
1528449457714596,31,22,5,-1,-1,-4,-2,11
1528449457715593,-12,-7,-9,0,-5,-5,-1,-4
1528449457715593,1,-13,4,-6,0,-4,-2,-8
1528449457727561,58,12,-2,6,2,3,-2,2
1528449457727561,-43,-6,-1,-4,-3,-5,-7,3
1528449457736537,36,15,-1,3,-1,4,17,8
1528449457736537,-38,-18,-2,-10,-4,-5,-5,2
1528449457751497,1,-6,-9,-6,-6,-5,-3,-7
1528449457751497,0,6,8,6,-1,0,-7,-6
1528449457753492,8,1,4,9,11,11,12,4
1528449457753492,-10,6,-12,-1,4,-2,-8,6
1528449457774436,-7,18,7,-4,-7,-3,-2,-19
1528449457774436,5,11,-3,0,-2,-2,-1,-13
1528449457775434,-55,-41,5,11,-4,0,-5,-11
1528449457775434,5,-5,2,-6,2,2,-2,-4
1528449457788416,20,26,-12,-5,-1,2,1,12
1528449457788416,-10,-14,6,1,6,5,4,5
1528449457797392,7,15,-6,-11,-7,-8,-10,-11
1528449457797392,18,18,24,21,17,17,21,7
1528449457812348,-3,-24,-17,10,-4,-9,-3,6
1528449457812348,-1,15,9,-12,-1,-2,-6,-4
1528449457813332,21,-18,-3,-8,-11,0,6,13
1528449457813332,-32,-20,-11,1,-1,-6,-10,-10
1528449457834593,3,14,10,-7,0,-1,3,0
1528449457834593,15,33,4,7,-1,1,3,-2
1528449457835961,-32,-27,-23,-5,2,0,-1,0
1528449457835961,37,9,-7,-16,-10,-6,-7,1
1528449457847589,-8,0,21,15,-1,-2,-2,-9
1528449457847589,-35,-14,-1,14,9,2,-7,-11
1528449457856565,16,-6,4,-17,-7,0,0,2
1528449457856565,2,4,2,-3,-3,-2,1,-1
1528449457871494,-23,-12,-52,-22,-5,0,-3,-5
1528449457871494,36,5,5,-4,-18,-5,3,6
1528449457878484,-14,14,-2,16,20,-4,-2,-2
1528449457878484,13,3,-22,-5,-6,1,-4,-1
1528449457894437,-11,10,12,-11,-3,-2,-6,-6
1528449457894437,-1,-43,-32,-15,-16,-7,9,7
1528449457895430,10,8,-17,-7,-5,-4,-4,-1
1528449457895430,-27,-15,4,16,5,-1,-4,-6
1528449457908400,3,1,-13,-19,-5,-5,-2,-2
1528449457908400,2,-5,-4,-1,0,-2,8,10
1528449457917372,1,5,8,-2,-8,-4,-7,-7
1528449457917372,23,-7,18,15,-2,5,3,3
1528449457932337,-8,9,18,6,6,-2,-4,0
1528449457932337,-2,-22,3,-11,2,-1,-1,-1
1528449457933334,1,32,21,15,6,4,2,-2
1528449457933334,-16,-23,-3,1,-1,3,4,4
1528449457954272,26,5,6,13,-9,-8,-3,4
1528449457954272,11,20,-11,-12,-2,3,-2,-2
1528449457956275,12,12,-11,-2,3,0,-5,-2
1528449457956275,-2,-14,0,-13,-7,-6,-4,-7
1528449457968238,-23,-16,-12,4,-1,-6,-1,4
1528449457968238,5,23,26,13,4,-2,-10,-24
1528449457976506,-17,-24,23,3,-5,4,2,6
1528449457976506,11,30,26,-11,0,-3,-1,-4
1528449457991487,-35,-39,-43,5,4,-1,-9,-9
1528449457991487,23,-4,13,14,4,0,1,4
1528449457993483,16,21,-16,-21,-14,-8,-3,9
1528449457993483,1,-5,14,-5,-10,-5,-6,-2
1528449458014970,-23,-12,34,20,6,0,2,0
1528449458014970,-5,0,-18,-10,13,11,4,-2
1528449458016795,1,-21,3,2,-1,-2,-3,-7
1528449458016795,-5,18,-11,-9,-15,-9,-5,1
1528449458028034,21,14,-11,5,-4,-1,0,-2
1528449458028034,-38,-41,-4,-19,17,11,3,-4
1528449458036936,16,5,6,-6,-7,-4,1,0
1528449458036936,-9,-3,-27,-10,2,2,1,-2
1528449458051882,17,12,23,-1,-12,0,0,3
1528449458051882,-25,-3,-15,20,8,-8,1,-4
1528449458057750,-13,-19,-8,-14,7,7,1,-1
1528449458057750,18,4,-18,1,-2,-5,-7,-3
1528449458074643,7,-7,21,4,3,6,4,5
1528449458074643,17,8,-7,-5,-9,-6,-4,3
1528449458075640,-40,-4,-3,2,1,-1,1,3
1528449458075640,-12,2,1,-4,-8,-3,0,-13
1528449458088650,-22,3,-3,-10,2,1,-7,-6
1528449458088650,28,19,4,4,-12,-6,30,6
1528449458096835,5,-2,-30,-4,-1,0,-3,6
1528449458096835,26,2,-6,-4,5,4,-2,7
1528449458111548,-15,10,8,2,1,1,1,-4
1528449458111548,-9,1,-23,-11,-7,-1,-8,-2
1528449458118528,-2,-1,1,-9,-2,-8,-9,-13
1528449458118528,-20,11,31,26,0,2,-10,-4
1528449458134487,28,-28,-81,-61,-14,-3,23,22
1528449458134487,-19,-23,43,34,31,14,-1,-2
1528449458135485,13,-1,23,34,9,5,5,-4
1528449458135485,0,5,-32,-19,-4,-7,-12,-8
1528449458148459,-25,-11,31,12,-11,1,-2,-9
1528449458148459,11,-4,-3,-12,-7,-8,-5,8
1528449458157453,-2,-9,-25,-16,-10,-2,0,-2
1528449458157453,5,14,4,18,-1,-4,-2,-3
1528449458171650,-45,6,2,-5,-2,-4,-9,-34
1528449458171650,-10,-6,-24,-8,0,1,-20,-23
1528449458177936,38,4,18,11,2,-5,5,26
1528449458177936,-14,-8,-15,-8,0,1,4,14
1528449458194626,4,4,-13,-15,5,0,5,3
1528449458194626,13,12,5,-8,-10,-7,-20,-4
1528449458195756,-8,10,-11,13,-3,1,1,-14
1528449458195756,-4,-8,0,4,4,-2,-14,-15
1528449458208244,-13,-17,17,9,11,5,2,6
1528449458208244,-27,-17,7,2,-8,1,-2,-6
1528449458217119,25,5,4,-7,-4,1,-1,9
1528449458217119,-16,-10,-8,7,5,1,6,-10
1528449458231347,25,13,14,15,7,2,-6,4
1528449458231347,6,19,-24,-33,-21,-12,-4,3
1528449458238635,1,3,6,-6,-6,-3,4,-1
