timestamp,emg1,emg2,emg3,emg4,emg5,emg6,emg7,emg8
1528442987538586,-1,-2,-2,-3,0,-2,0,-1
1528442987538586,-2,-3,-5,-3,1,1,-1,0
1528442987539582,3,1,4,1,-1,1,0,0
1528442987539582,0,1,0,0,-3,-2,1,-1
1528442987540580,-2,-2,0,-1,0,-1,0,-2
1528442987540580,0,-2,0,-1,-2,0,-2,-2
1528442987541578,-3,-5,-6,-2,-1,-1,0,0
1528442987541578,0,3,2,-1,-1,2,-2,3
1528442987551578,0,3,7,0,-2,1,-3,0
1528442987551578,0,-1,-2,1,1,0,1,1
1528442987560527,-1,-1,-3,-1,0,-3,-1,-3
1528442987560527,-2,-3,-6,-2,-1,-2,-1,0
1528442987565516,0,-2,-2,0,1,0,0,0
1528442987565516,1,5,4,-1,-1,-2,1,0
1528442987582482,-3,-4,-2,-2,-3,-1,-3,-5
1528442987582482,-1,-5,-2,0,-1,0,0,-2
1528442987590448,0,0,-5,0,-1,-1,-1,0
1528442987590448,1,0,2,0,0,-1,0,-1
1528442987604409,-2,-1,-4,-1,1,-2,0,0
1528442987604409,-2,-9,-2,1,0,-1,-1,-4
1528442987611391,1,11,2,-1,0,-1,0,0
1528442987611391,0,-3,-4,-2,0,0,-1,2
1528442987619370,1,2,7,3,0,1,1,0
1528442987619370,-1,1,-5,-2,-3,-2,1,-2
1528442987659264,-4,-9,-6,-1,-1,0,-2,-1
1528442987659264,-1,3,2,-1,0,-1,0,-2
1528442987660262,0,-1,-2,1,-1,-1,0,0
1528442987660262,-3,-2,0,0,0,0,-1,0
1528442987661258,1,5,4,0,0,0,0,2
1528442987661258,1,-2,0,2,0,-1,-1,-2
1528442987663253,-4,-1,-1,-3,-1,-1,-1,-3
1528442987663253,-2,0,0,-3,-1,-1,-1,0
1528442987671231,-2,-6,-6,1,0,-1,1,-2
1528442987671231,1,-1,-4,0,-3,-1,0,3
1528442987678212,-1,5,5,-1,0,-1,-1,-1
1528442987678212,1,3,0,1,-1,-1,2,5
1528442987687227,-1,2,0,-2,0,-1,-1,-6
1528442987687227,-2,-5,-1,-2,0,-2,-3,-1
1528442987710127,-1,-3,-1,-1,-1,0,0,0
1528442987710127,1,3,4,0,-2,0,-1,-2
1528442987710127,-1,0,-2,1,-3,-2,-1,2
1528442987710127,-4,-1,-5,-3,-1,0,0,-4
1528442987716113,0,-5,-3,-2,-3,-1,0,-1
1528442987716113,1,2,2,0,-1,-1,1,1
1528442987748026,2,3,2,0,0,0,-3,2
1528442987748026,1,-1,-1,-2,1,0,-2,1
1528442987749023,-1,-1,-3,0,-2,-2,-2,-4
1528442987749023,-3,-3,-1,0,-1,0,-1,-3
1528442987751018,0,1,1,-2,0,0,0,0
1528442987751018,1,2,1,1,0,-1,2,-1
1528442987760991,0,3,3,0,-1,2,-1,1
1528442987760991,-1,-2,-5,-2,-2,-2,-1,-4
1528442987768969,-1,-5,-3,0,-1,-2,0,-3
1528442987768969,0,2,-2,0,-2,1,0,4
1528442987775951,0,-3,1,0,-2,0,-1,0
1528442987775951,1,1,-5,-2,-1,0,-1,-1
1528442987799886,-1,-1,2,1,0,1,0,-1
1528442987799886,-1,4,5,0,-1,1,0,0
1528442987800884,2,0,-1,-1,-1,-1,0,0
1528442987800884,0,-4,-5,-1,-1,0,-1,-3
1528442987805909,-1,-2,-3,-1,-3,0,-1,-2
1528442987805909,-1,-1,-2,-2,0,-2,0,0
1528442987820831,0,0,1,1,1,-1,-2,0
1528442987820831,-1,-2,1,-2,0,-1,-2,-2
1528442987828811,-4,-3,-4,-2,1,-2,-4,-5
1528442987828811,1,-2,4,-1,0,-3,-2,1
1528442987835792,0,3,-4,0,0,0,-1,-3
1528442987835792,-3,0,-1,0,1,-2,-1,-3
1528442987851749,-1,-4,0,-1,-2,-1,1,4
1528442987851749,1,4,2,-3,-1,-1,2,3
1528442987858747,-1,-2,0,1,0,-1,0,0
1528442987858747,1,1,1,0,0,0,-1,-1
1528442987865711,-1,1,0,-2,0,1,-1,-2
1528442987865711,-2,-4,-4,-2,-1,0,-1,-2
1528442987880673,-2,-1,-1,0,-1,-2,0,0
1528442987880673,-1,-4,-5,0,-1,0,-1,0
1528442987889648,1,3,-2,1,2,0,1,0
1528442987889648,1,-2,2,1,0,-1,-1,0
1528442987895631,0,3,-3,-2,-1,0,1,1
1528442987895631,1,3,4,1,-1,0,-1,-1
1528442987912617,0,1,1,0,1,-2,-1,2
1528442987912617,-1,-8,-10,1,-1,-1,-4,-3
1528442987918570,-2,-3,1,-1,0,-2,-2,-2
1528442987918570,-1,4,0,0,-2,-1,0,-1
1528442987934527,1,-1,2,-2,-1,0,1,3
1528442987934527,0,3,0,0,1,0,0,-1
1528442987940511,-1,-6,-1,-1,2,0,-1,1
1528442987940511,0,-3,-2,-2,0,-1,1,0
1528442987949489,-1,2,3,0,-2,-1,0,-3
1528442987949489,-4,2,2,1,-1,0,-1,-2
1528442987972428,-1,2,-4,-1,-1,-3,-2,0
1528442987972428,-2,-5,0,0,-1,1,-1,1
1528442987973426,0,0,-2,0,-1,-1,-2,0
1528442987973426,0,0,1,-1,0,-2,0,0
1528442987978411,-1,1,-2,-1,-1,-1,-1,0
1528442987978411,0,-1,-5,-1,1,0,0,2
1528442987994368,0,-2,-1,-1,-2,0,0,2
1528442987994368,-3,-1,0,0,0,0,0,-1
1528442988000390,-2,1,0,-1,-1,1,0,-1
1528442988000390,0,1,-1,-1,-1,-1,0,0
1528442988009327,-1,1,4,-2,0,1,-1,1
1528442988009327,-2,-1,-1,-2,-1,0,-1,-1
1528442988023322,-1,-5,-5,-2,-1,-2,0,-1
1528442988023322,0,-2,-2,0,0,-2,-1,2
1528442988032267,0,2,-4,-1,1,0,0,-2
1528442988032267,1,0,1,-1,-2,0,1,-1
1528442988045265,-3,-2,2,1,0,1,0,-2
1528442988045265,0,2,1,1,-1,-1,-1,-1
1528442988055247,-2,-3,-3,0,-1,-3,-2,-1
1528442988055247,0,4,0,0,0,0,-1,-2
1528442988069167,0,-1,0,-1,0,-1,-1,-1
1528442988069167,0,-4,0,-3,0,0,-1,-2
1528442988071171,-1,-2,-3,-1,-2,0,1,-1
1528442988071171,0,-5,-3,-1,-2,-2,-2,-1
1528442988083130,1,2,0,2,-1,1,1,2
1528442988083130,0,1,2,0,1,-1,-2,-5
1528442988099090,-1,0,1,0,1,0,-1,-2
1528442988099090,-2,-4,2,0,1,-1,-2,-1
1528442988100086,2,4,-1,-2,0,-1,0,3
1528442988100086,-1,-1,-2,-2,0,-3,0,0
1528442988115045,-2,-5,-4,-1,-1,0,1,0
1528442988115045,1,-1,-4,-2,-1,-1,2,3
1528442988130005,-1,-3,4,-1,0,1,-1,-1
1528442988130005,-2,2,1,1,0,0,0,1
1528442988131002,-2,0,-1,-1,-1,0,-2,-4
1528442988131002,-2,-6,-3,-1,-1,0,0,1
1528442988142971,1,3,3,1,-1,-1,2,3
1528442988142971,-2,-5,-3,-3,-1,0,0,-1
1528442988151946,0,6,2,0,0,-2,-2,1
1528442988151946,-2,-5,-7,0,-1,0,-1,-1
1528442988157932,-1,-1,2,0,-1,-1,-2,-3
1528442988157932,0,-2,-1,0,0,0,-1,0
1528442988174885,1,-1,0,-1,-1,-1,0,0
1528442988174885,-1,1,4,-1,-2,-3,-2,-2
1528442988190100,-2,-6,-6,-3,-2,-1,0,0
1528442988190100,-1,0,0,-1,-2,-2,0,1
1528442988191134,0,-1,1,0,-2,-1,0,0
1528442988191134,-1,3,0,2,1,0,1,-2
1528442988203820,0,-1,-1,-3,1,0,-1,-1
1528442988203820,-1,-7,-4,-1,-1,0,1,1
1528442988220761,-1,3,0,-2,0,-1,0,-2
1528442988220761,1,6,4,1,-1,0,-2,0
1528442988221759,-1,-5,-3,1,0,0,-2,-3
1528442988221759,-1,0,-2,0,-1,-2,-2,2
1528442988234726,-1,-1,-1,-1,-2,0,-1,-2
1528442988234726,-1,-1,0,-2,-1,0,0,-2
1528442988249685,-1,-1,-2,0,1,-2,1,-2
1528442988249685,4,8,4,3,-2,0,1,1
1528442988251679,-1,-5,2,1,-1,0,0,1
1528442988251679,-2,7,0,-2,-1,-1,-1,1
1528442988263700,-3,-4,-4,-1,-2,1,-3,0
1528442988263700,-2,-7,-2,-1,0,1,2,-1
1528442988272676,2,0,-2,-1,-1,0,-1,0
1528442988272676,-1,-2,-3,-3,0,0,-2,-4
1528442988278662,-2,2,1,-1,-2,-2,0,-2
1528442988278662,-1,0,2,-1,-1,-1,-1,0
1528442988294566,-1,-1,-2,0,0,1,-1,1
1528442988294566,0,-5,-2,-1,0,1,-1,0
1528442988300569,1,-1,-4,-1,-1,0,1,0
1528442988300569,-1,5,1,-2,-1,0,-1,-2
1528442988309541,-2,3,3,1,0,0,-1,0
1528442988309541,3,-3,-2,0,-1,-2,1,0
1528442988323542,-1,-2,-1,0,-3,-1,-1,1
1528442988323542,-1,-5,-3,-2,1,0,0,-1
1528442988332466,-1,-1,-4,-3,-1,0,0,-2
1528442988332466,-1,3,2,0,-2,-1,0,-1
1528442988338458,0,0,1,1,-1,-2,1,1
1528442988338458,1,4,5,-1,0,-2,0,1
1528442988355402,-1,3,2,0,0,0,1,-2
1528442988355402,-3,-2,-2,-2,-4,1,-1,-1
1528442988360391,-1,-1,-1,-3,-1,-1,-3,-2
1528442988360391,-1,-2,-2,0,-2,-1,-2,-2
1528442988369401,-1,-4,-2,-1,0,-1,1,1
1528442988369401,-1,-2,1,1,1,0,-1,1
1528442988383328,2,4,0,-1,-1,0,0,2
1528442988383328,-1,-2,-3,0,-1,-3,-2,-2
1528442988392305,0,1,3,0,-2,-1,-1,-2
1528442988392305,-3,-2,-3,0,-1,-2,-2,-3
1528442988398288,0,-1,0,0,0,0,0,2
1528442988398288,-1,0,-2,0,0,0,0,1
1528442988413301,1,-1,0,-1,0,-1,-2,3
1528442988413301,-1,-2,-2,0,-2,-2,1,-1
1528442988421256,-2,-5,-2,-1,0,-1,0,-1
1528442988421256,0,6,2,-1,-2,0,-1,-2
1528442988430257,-2,-4,-4,-1,1,-3,2,-1
1528442988430257,-1,-2,2,1,1,0,-1,3
1528442988443220,1,3,0,0,1,0,0,-1
1528442988443220,-3,-8,-5,-2,-1,1,-1,-2
1528442988452143,1,1,1,0,-1,0,-1,-2
1528442988452143,0,0,-5,-3,-1,0,1,1
1528442988458181,-3,-2,1,-1,-2,-2,-2,-2
1528442988458181,-1,-1,-1,-1,-2,-1,-3,1
1528442988473140,-3,-1,-2,0,-1,-2,-2,-2
1528442988473140,-2,-3,-4,-2,-1,0,-2,0
1528442988481134,1,-2,1,0,-1,0,0,0
1528442988481134,0,6,3,0,1,0,1,-1
1528442988490096,1,3,1,2,-1,-1,-1,0
1528442988490096,1,-1,0,0,0,0,0,2
1528442988503060,-2,1,0,-1,-1,1,-2,-5
1528442988503060,-4,-3,-3,1,-1,0,-3,-2
1528442988512024,-2,-4,-1,-2,-3,-1,0,1
1528442988512024,0,0,-2,-3,0,0,0,1
1528442988518028,3,3,0,-2,0,-1,1,0
1528442988518028,0,-1,0,0,0,0,-1,-2
1528442988532929,-1,2,3,0,0,1,-1,-1
1528442988532929,0,1,-1,-1,0,-1,-2,-2
1528442988540907,-2,-2,-3,1,-1,-1,-3,-1
1528442988540907,-1,0,-2,0,-2,-2,-1,-1
1528442988549883,-2,-3,-3,-1,-1,-2,0,-1
1528442988549883,0,-1,0,-1,-2,0,-2,0
1528442988563847,-2,1,1,0,-2,-1,-1,1
1528442988563847,1,-2,-5,0,1,-1,-1,1
1528442988573045,1,0,0,-1,1,-1,0,-1
1528442988573045,0,4,3,1,0,-1,1,0
1528442988578054,-2,-1,-4,-1,-1,-1,0,0
1528442988578054,1,1,7,1,-1,-1,-1,1
1528442988594767,-2,-2,-6,-2,-2,0,1,1
1528442988594767,-3,-3,-2,-2,-1,0,-1,-1
1528442988601009,-1,-1,0,-1,0,1,0,0
1528442988601009,1,2,1,1,-1,0,-1,0
1528442988609731,0,-1,-1,3,1,-1,0,0
1528442988609731,1,-1,1,-2,0,0,-4,0
1528442988623926,-1,-1,-5,-1,0,-3,-3,-2
1528442988623926,1,-2,-1,-1,-1,-2,0,0
1528442988632934,1,0,3,1,1,1,0,1
1528442988632934,1,3,3,2,0,-1,1,0
1528442988645936,-2,-3,2,0,0,0,-1,-1
1528442988645936,-1,-4,-5,-3,-1,0,-1,-1
1528442988652920,0,1,-2,-3,-2,0,-1,-2
1528442988652920,-1,-2,-1,0,-1,-2,-2,-1
1528442988670294,-1,1,-3,-3,0,-2,-2,0
1528442988670294,0,2,1,1,0,-1,0,-1
1528442988671144,-2,-2,-2,-1,-1,-1,0,-2
1528442988671144,0,0,-2,0,0,-1,0,-1
1528442988684518,0,1,2,0,-2,0,0,-1
1528442988684518,-2,-2,-4,-1,0,-1,-1,0
1528442988692371,-1,-2,-4,-2,-1,-2,-1,0
1528442988692371,-2,-1,-2,0,1,-1,0,-3
1528442988715027,1,2,0,1,-1,-1,-1,1
1528442988715027,1,0,-1,-1,2,0,1,2
1528442988717078,0,-1,-2,-2,-2,0,-4,-2
1528442988717078,-3,-8,-2,-1,-1,0,0,-2
1528442988730312,-1,1,2,0,-1,0,2,-1
1528442988730312,-1,-1,1,0,-3,-1,-1,0
1528442988731260,0,-2,-2,0,0,-1,1,-2
1528442988731260,-1,3,5,1,-1,0,0,1
1528442988743249,0,-2,-4,1,1,0,0,0
1528442988743249,-1,-3,-2,-4,-2,0,0,0
1528442988759967,-2,1,0,-2,-1,0,1,-1
1528442988759967,0,-2,-3,-3,-1,-1,0,-2
1528442988767306,-1,-2,0,-1,-1,-2,0,0
1528442988767306,0,2,1,0,-1,-1,-2,-2
1528442988773919,0,-3,-1,0,-1,-1,-1,1
1528442988773919,0,-1,-3,-2,1,0,-1,2
1528442988790124,-1,-1,-2,-1,-1,1,1,-1
1528442988790124,0,1,-1,0,0,-1,0,-1
1528442988792077,-1,-1,0,0,0,-1,0,0
1528442988792077,0,0,0,-1,0,0,-1,1
1528442988802846,-3,-2,1,-2,0,-1,0,-1
1528442988802846,-1,-2,0,-1,0,-2,-1,-1
1528442988812047,0,1,0,0,-1,0,0,0
1528442988812047,0,-1,-2,1,-3,-1,0,0
1528442988827185,0,-4,-3,0,0,-2,-1,0
1528442988827185,-1,2,2,0,-2,-1,1,-2
1528442988833270,1,3,1,0,-1,1,-1,0
1528442988833270,1,0,-3,-3,-1,-2,0,-3
1528442988848868,-2,-2,-2,-3,-2,-1,-1,0
1528442988848868,-3,-5,-2,-1,-1,-1,-1,0
1528442988858041,-1,-1,0,-2,-2,-1,0,0
1528442988858041,0,1,-1,0,-1,-1,0,1
1528442988872143,0,1,-1,-1,0,-1,0,1
1528442988872143,0,-1,-1,1,-1,0,-1,1
1528442988874140,-1,-5,-4,-2,-1,0,-2,-2
1528442988874140,-2,-1,-3,1,-1,1,-3,-2
1528442988886140,1,1,2,0,-1,0,1,-2
1528442988886140,0,-2,-3,0,-1,0,0,-2
1528442988895594,1,-1,-1,0,0,-1,-1,-1
1528442988895594,-1,-1,1,-3,0,-1,1,-1
1528442988909983,-1,0,-1,-1,-1,0,-3,-2
1528442988909983,-1,-1,0,-2,0,0,1,-1
1528442988910982,-1,0,-2,1,-2,0,0,0
1528442988910982,0,1,-1,0,0,-1,0,-2
1528442988923682,0,1,-1,1,0,-2,-2,-1
1528442988923682,-2,-2,0,-1,-3,-1,0,1
1528442988932659,-4,0,-2,0,-1,-2,-2,-2
1528442988932659,-1,0,1,-1,-1,0,0,-1
1528442988945947,-1,-2,-2,-1,0,0,1,-1
1528442988945947,-1,-1,-1,-1,1,-2,-1,0
1528442988961054,1,-2,1,0,0,-1,0,0
1528442988961054,-2,0,-1,-1,-1,-1,-2,-1
1528442988970030,1,-1,0,-4,-1,-1,0,0
1528442988970030,-1,-1,-2,-1,-2,0,0,-2
1528442988971028,-3,-2,-3,-1,-2,-1,0,1
1528442988971028,0,1,0,-1,0,-1,-1,0
1528442988992741,-1,-1,0,1,-1,-2,0,-1
1528442988992741,1,0,-1,-1,0,0,-1,1
1528442988993494,0,-1,-1,0,-1,-1,-1,-1
1528442988993494,-2,-1,0,0,-2,0,0,0
1528442989006705,-2,-1,0,1,1,1,-1,-1
1528442989006705,0,0,-1,-1,-1,-1,0,0
1528442989013702,-1,0,0,-1,0,-1,-1,0
1528442989013702,0,-1,1,-1,-1,-2,0,-1
1528442989030412,-2,0,0,-1,-1,-1,-2,0
1528442989030412,0,0,-2,0,0,0,0,-1
1528442989031388,0,-2,-1,0,-2,-1,0,-2
1528442989031388,0,-1,-2,0,-1,1,0,1
1528442989043611,-2,-2,1,-2,0,0,0,0
1528442989043611,-2,-1,-1,0,0,-2,-3,-1
1528442989052335,0,0,0,0,-1,0,0,-1
1528442989052335,-1,-2,0,-1,0,-2,-1,0
1528442989066810,1,-1,-2,0,-2,0,-1,-1
1528442989066810,1,1,2,0,-1,0,1,-1
1528442989073385,0,-1,0,-1,1,-1,1,-1
1528442989073385,0,-1,-1,-1,0,-1,1,-1
1528442989097586,-1,-1,-2,-2,-1,0,1,0
1528442989097586,-2,-2,-1,1,-1,0,-2,-1
1528442989099519,-1,-1,-1,-2,-1,-1,-2,0
1528442989099519,-1,-1,-1,1,-1,0,0,1
1528442989103311,1,2,-1,-1,-2,-1,-1,-1
1528442989103311,-1,0,-2,-1,-1,-1,-1,0
1528442989118536,0,-2,1,-1,-1,0,0,-2
1528442989118536,-1,0,-1,0,0,-2,2,-1
1528442989134759,-1,-2,0,-1,-1,0,-2,-1
1528442989134759,-1,-1,-1,0,1,0,0,-3
1528442989136490,0,1,-1,0,0,-1,0,0
1528442989136490,2,-1,-1,-2,-1,0,-1,-2
1528442989149457,0,0,-1,0,-1,0,0,-1
1528442989149457,-2,-1,1,1,-1,-1,1,2
1528442989151451,-2,-2,0,0,-1,-1,-2,0
1528442989151451,-2,-1,-2,0,-1,-1,-2,0
1528442989163667,2,-1,1,0,-1,0,-1,-1
1528442989163667,2,-2,0,-1,0,-1,-1,-2
1528442989179379,0,-1,-4,0,0,-1,-1,2
1528442989179379,-1,-1,0,-2,0,1,-2,-1
1528442989186357,-4,-1,-1,-2,-1,-2,0,0
1528442989186357,-1,-1,0,-1,-1,-1,-1,0
1528442989193594,0,-1,0,0,0,0,0,-1
1528442989193594,-1,1,-1,-1,-2,0,-1,-2
1528442989209912,0,0,-1,-1,0,-2,-1,-1
1528442989209912,-3,0,-2,-2,0,0,-1,0
1528442989215538,-1,1,0,-2,-1,-1,0,1
1528442989215538,-1,0,-1,-1,-1,0,0,0
1528442989232560,-1,0,0,-1,0,-2,0,-1
1528442989232560,1,-1,0,-1,-1,0,-2,-2
1528442989233650,0,-1,-1,1,0,0,-2,-1
1528442989233650,-1,-2,-1,0,0,-1,0,-1
1528442989246455,-1,-1,1,0,-1,0,-1,-1
1528442989246455,0,-1,-2,-1,0,-2,0,1
1528442989253555,-1,-2,-1,-1,0,-2,0,-1
1528442989253555,0,-3,-2,-1,-1,-1,-1,1
1528442989269643,0,-2,-2,1,0,-3,-1,-1
1528442989269643,-1,-2,1,-1,0,-1,-1,-1
1528442989276437,-1,-2,0,-1,-1,-1,-1,0
1528442989276437,-1,0,-2,-1,0,-2,1,-2
1528442989283598,-1,0,-1,1,0,0,0,0
1528442989283598,-1,-1,2,-3,-1,-1,0,0
1528442989292331,0,-2,-4,-1,-2,0,-1,-1
1528442989292331,-2,0,1,2,-2,0,0,-1
1528442989306825,-1,-1,-1,0,-1,1,-1,-1
1528442989306825,-1,0,-1,0,0,-2,-1,-1
1528442989314568,-2,-2,-1,-1,0,0,-1,0
1528442989314568,2,3,2,1,0,0,-1,-1
1528442989329209,0,-2,1,0,-1,-1,0,0
1528442989329209,-2,-1,0,-1,0,0,1,-1
1528442989336094,-2,-1,1,-1,0,1,2,-2
1528442989336094,-1,0,-2,-1,-1,0,0,0
1528442989344042,0,1,-1,-2,-1,0,-1,1
1528442989344042,-1,-1,-1,0,-2,-1,-1,-2
1528442989352049,-1,-1,-1,-1,0,1,0,0
1528442989352049,0,-1,-1,0,0,-1,-1,1
1528442989374990,-2,-1,0,-2,-1,0,1,-2
1528442989374990,-2,0,-1,2,-1,-2,-1,0
1528442989376722,-2,-1,2,-2,0,-1,-1,-3
1528442989376722,0,-1,-3,-1,-1,-3,-2,2
1528442989388690,0,-1,-1,0,0,0,0,-1
1528442989388690,-1,-3,-1,-2,-1,0,-2,-2
1528442989396217,-1,1,-1,2,-1,1,-1,-2
1528442989396217,0,-1,0,-3,0,-2,1,-1
1528442989411973,1,0,-1,0,0,-2,-1,0
1528442989411973,0,1,-3,1,2,0,0,-1
1528442989413917,0,-1,-1,-1,-2,-1,-1,0
1528442989413917,-1,0,2,-1,-1,0,0,-2
1528442989426882,-1,-1,-2,0,-1,1,0,0
1528442989426882,-1,1,1,1,-1,0,0,0
1528442989432871,1,0,-2,0,-1,-2,-1,0
1528442989432871,-1,-1,-1,-1,-1,0,-1,0
1528442989448831,0,0,-1,-2,1,-1,-3,-1
1528442989448831,-1,-2,0,-1,-2,-1,1,0
1528442989456028,0,0,-1,-3,1,-1,0,0
1528442989456028,-1,-1,-2,-1,-3,0,-1,-1
1528442989472608,0,1,1,0,0,-1,-2,1
1528442989472608,1,-1,0,-1,0,0,-1,0
1528442989473258,0,-1,-2,0,0,-2,-1,-2
1528442989473258,0,-1,-1,1,0,-2,-1,0
1528442989486900,-1,-1,-2,-1,0,0,1,0
1528442989486900,-1,-1,-3,-2,-1,-2,-1,0
1528442989493895,-1,0,-2,-1,-2,-2,-1,-1
1528442989493895,-1,0,-1,-2,0,0,-2,0
1528442989509801,0,-1,-2,-3,0,-1,0,0
1528442989509801,1,-1,-3,0,-2,0,0,1
1528442989515572,-1,0,1,2,0,0,1,-1
1528442989515572,0,-2,-2,1,0,-1,1,-1
1528442989532801,-1,0,0,-1,0,0,-1,0
1528442989532801,-1,-1,0,-2,0,-1,-2,-1
1528442989533523,0,-1,-1,-1,-2,0,-3,0
1528442989533523,1,-1,0,1,-2,-1,-1,0
1528442989546517,1,0,-1,-3,-1,0,-1,-1
1528442989546517,-1,1,-1,-2,0,0,0,0
1528442989553504,0,-1,1,-1,-1,-1,-1,-2
1528442989553504,-3,-1,-1,-1,-1,-1,-1,-3
1528442989569463,-2,-1,1,1,0,0,-1,0
1528442989569463,-1,-2,-3,0,-2,-2,0,0
1528442989575410,0,1,0,-2,-3,0,-1,2
1528442989575410,-1,-1,0,-2,-1,0,1,0
1528442989592365,0,-1,-1,1,0,-1,0,-1
1528442989592365,-2,0,-1,-2,1,-1,-1,-1
1528442989593362,-2,0,0,-1,0,-1,0,1
1528442989593362,1,-1,0,0,-1,0,-1,-2
