timestamp,emg1,emg2,emg3,emg4,emg5,emg6,emg7,emg8
1528190711967226,0,0,-1,-1,-3,-2,-4,-2
1528190711967226,-2,0,-1,0,-1,-1,0,0
1528190711987172,-1,-2,0,-1,-1,-1,0,-1
1528190711987172,-1,-3,0,-2,-2,-1,-1,-2
1528190711988170,5,5,1,0,0,-2,-1,1
1528190711988170,-1,-1,-2,-2,-1,1,0,-3
1528190712002133,-1,0,-3,-2,0,0,0,-1
1528190712002133,-1,-2,-2,1,-1,-1,-1,1
1528190712003130,-1,-1,-1,-1,-1,0,0,-3
1528190712003130,0,0,-1,-1,-1,0,0,-1
1528190712015098,-1,0,-1,0,-2,0,0,-1
1528190712015098,-1,-1,-1,0,-1,0,-2,-2
1528190712025071,0,-2,0,-1,-2,0,-2,-1
1528190712025071,0,-1,0,0,-1,0,0,-1
1528190712062971,-1,-1,-1,-1,-1,-2,0,-1
1528190712062971,-3,0,-1,-2,-1,-1,-2,0
1528190712068954,-1,-1,-1,-1,0,-1,-1,-2
1528190712068954,-2,-1,-2,-1,-1,-2,-2,-2
1528190712069952,-2,0,-2,-2,-1,-2,-2,-1
1528190712069952,-1,-1,0,0,-1,-1,0,-1
1528190712075935,-1,-5,-1,-1,0,0,-1,-2
1528190712075935,2,3,0,-1,-1,-2,-2,0
1528190712076933,1,-1,1,0,-1,0,-1,1
1528190712076933,0,-2,-2,-1,0,0,-2,-1
1528190712083915,-1,0,-1,-2,-2,-1,-1,-1
1528190712083915,-2,-2,-1,-1,-2,-1,-1,1
1528190712089898,-1,-2,-1,-1,-1,-1,-2,-2
1528190712089898,0,0,-1,-2,-2,-2,0,-1
1528190712104858,-1,0,-1,-1,-1,-1,-2,-1
1528190712104858,-2,-3,-2,-2,-1,0,0,-1
1528190712112837,-1,-1,-1,-1,-2,-1,-1,-1
1528190712112837,-2,-2,-2,0,-1,-1,-2,2
1528190712143755,-1,1,-1,0,-1,-1,-1,0
1528190712143755,-1,-2,0,0,-1,0,-3,0
1528190712144751,-1,-2,-1,-2,-2,-2,-1,-2
1528190712144751,0,0,0,1,0,-2,0,-3
1528190712150735,0,1,0,0,-1,1,0,0
1528190712150735,0,-1,-2,0,0,-1,-2,-3
1528190712151733,0,-3,-1,-1,-1,0,-1,1
1528190712151733,-1,-1,-2,0,0,0,-1,-1
1528190712173674,-2,0,0,-1,-2,-2,0,-2
1528190712173674,-4,-3,-2,-2,-1,-1,-1,-3
1528190712173674,3,5,0,0,-1,-1,-1,-1
1528190712173674,0,-2,0,-2,-1,-2,0,-1
1528190712210576,-1,-2,-1,-1,0,-1,-1,1
1528190712210576,-1,-1,-1,-2,0,-1,0,-1
1528190712220548,-2,-1,-2,-1,-1,-1,0,-2
1528190712220548,1,0,0,-1,-1,0,0,1
1528190712221546,0,1,-1,0,-3,-1,-1,-1
1528190712221546,-2,0,-2,-1,-3,-1,0,-1
1528190712222543,-1,0,-2,-1,-2,0,1,-2
1528190712222543,-1,0,-1,0,0,-2,-1,-2
1528190712257450,0,-2,-1,-1,-3,-1,-2,0
1528190712257450,-1,0,0,0,-1,-2,-1,0
1528190712258447,-3,-2,-2,-1,0,-2,-2,0
1528190712258447,0,-2,-1,-2,-3,-1,-2,-2
1528190712260442,0,-3,-2,0,0,1,1,0
1528190712260442,-1,-1,-1,-1,0,0,0,-1
1528190712263434,-2,-1,0,0,-1,-1,0,-1
1528190712263434,-1,-2,0,-1,-1,-1,-1,-2
1528190712270428,0,0,-1,0,-1,-2,-2,-1
1528190712270428,0,1,3,-1,-1,0,0,0
1528190712271412,-1,0,0,-1,-1,-1,-1,-1
1528190712271412,-1,-1,-1,-2,0,-1,-2,-1
1528190712309311,-2,-2,-2,-1,-1,-2,-2,-1
1528190712309311,0,-2,-3,-1,-1,-2,-1,0
1528190712310309,0,0,-3,0,0,0,0,-1
1528190712310309,-1,-1,-2,-2,-2,-2,-2,-1
1528190712316293,0,-1,-1,-1,-1,-2,-1,-2
1528190712316293,-2,-1,0,0,-1,-2,-2,-1
1528190712316293,0,-1,0,-1,-2,-1,0,-2
1528190712316293,-2,0,0,-1,0,0,-1,-2
1528190712355242,-1,1,-1,-1,-2,-1,1,-1
1528190712355242,-1,-1,-4,-2,-2,0,-1,-2
1528190712356187,-4,-1,0,0,-1,-1,-1,0
1528190712356187,-2,-3,-1,-1,0,1,-1,-2
1528190712358180,-1,-1,-1,-3,-2,-3,-2,-1
1528190712358180,1,-2,-1,-1,0,0,0,0
1528190712361200,-3,-5,0,-3,0,-2,0,0
1528190712361200,-2,0,-3,-2,-1,-1,-2,0
1528190712384112,-2,-1,-1,-1,-1,-1,-1,1
1528190712384112,-1,1,-1,0,0,0,-1,-2
1528190712384112,-1,-1,-1,-1,-2,0,-1,0
1528190712384112,1,-1,0,-1,-1,-2,-1,-1
1528190712393088,0,-1,-1,-1,0,-1,0,-2
1528190712393088,-1,-2,-1,0,-2,-2,-2,-2
1528190712394085,0,-1,-1,-1,-1,-1,-1,-2
1528190712394085,-2,-1,0,-1,-1,-2,0,-2
1528190712413080,-1,0,-2,-1,-1,-1,-2,-1
1528190712413080,-1,-1,0,-2,2,-2,0,0
1528190712414032,0,0,-1,0,-2,-2,0,-1
1528190712414032,1,0,-2,0,-3,-2,-1,-1
1528190712435998,-1,0,-1,-1,0,-1,0,-1
1528190712435998,-1,-3,-2,0,0,-2,-1,0
1528190712436996,0,-2,0,-2,-2,0,-2,0
1528190712436996,-2,-2,-2,0,0,1,0,-2
1528190712450079,-4,-4,1,-1,-1,1,-3,-2
1528190712450079,2,6,-1,-1,-3,0,-2,-1
1528190712457914,1,-1,0,-1,-1,0,-1,-3
1528190712457914,-2,-2,-1,-2,-2,-1,0,-1
1528190712473891,-2,-3,-2,-1,-2,-1,1,-1
1528190712473891,-2,-4,-1,-2,-3,0,-1,-1
1528190712473891,-1,-1,-1,-2,0,0,-2,-2
1528190712473891,1,0,0,0,-1,-1,-1,-1
1528190712495813,-1,1,-2,-2,-2,-1,-1,0
1528190712495813,-1,-2,-1,-1,-2,-1,-1,-3
1528190712496817,0,-2,-1,0,-1,0,-1,-2
1528190712496817,-1,-2,-1,-1,-1,-1,-1,-2
1528190712509778,-1,-1,-2,0,0,0,-2,-1
1528190712509778,-2,-3,-1,-1,-2,0,-3,-1
1528190712525780,-1,-2,-3,0,0,-2,-1,-2
1528190712525780,-1,1,-1,1,-1,-1,-2,0
1528190712533738,-1,-3,-1,-2,-2,-2,-1,-2
1528190712533738,3,7,0,-1,0,0,0,1
1528190712533738,-2,-1,0,0,-2,0,-2,0
1528190712533738,-2,-1,-3,-3,-1,-2,-3,1
1528190712555689,-1,-2,1,-1,-1,0,0,-4
1528190712555689,-3,-4,-1,0,2,-2,0,-2
1528190712556650,-1,0,-1,-2,-1,-2,-2,-2
1528190712556650,-2,-1,-1,1,-2,1,0,-1
1528190712586609,0,1,-1,1,1,-4,-1,0
1528190712586609,-3,-5,-1,-6,-4,0,-1,-2
1528190712587568,-1,-2,-2,-2,-3,-1,1,0
1528190712587568,2,-1,-1,-2,-1,0,-1,-1
1528190712593552,-1,0,-1,1,0,0,0,-1
1528190712593552,-2,-1,-1,0,-1,-3,-1,-1
1528190712594550,-1,0,-2,-1,1,-3,0,0
1528190712594550,-4,-2,-2,-2,-2,-4,0,-2
1528190712615532,-1,-3,-2,-1,-2,0,-1,0
1528190712615532,4,5,0,2,0,-1,-1,-1
1528190712616490,-2,-1,-1,-4,-4,-2,-2,-1
1528190712616490,0,-2,0,2,0,0,-1,-1
1528190712631451,0,-1,-1,-1,0,-1,0,0
1528190712631451,-1,-3,-2,0,-1,1,-2,-1
1528190712638468,-1,-1,-1,-2,-1,-1,-1,-1
1528190712638468,0,1,0,1,-1,-1,-1,0
1528190712661372,-2,-1,-3,-6,-3,0,-2,-2
1528190712661372,-2,-3,-1,-1,-1,-1,0,-1
1528190712662369,0,1,-1,-1,0,-1,-2,0
1528190712662369,0,-2,-3,0,0,-3,-2,-3
1528190712676330,1,0,0,0,-1,0,-2,1
1528190712676330,-1,-3,1,-2,-2,-2,-2,0
1528190712676330,-1,-1,-1,1,0,0,0,-2
1528190712676330,-1,-2,-1,-2,0,-2,-1,0
1528190712690293,-3,-2,0,0,-1,-5,1,0
1528190712690293,1,1,-2,-2,-2,-1,0,-1
1528190712698298,-1,0,-2,0,-2,-2,-1,1
1528190712698298,-1,-1,-1,-4,-3,0,1,1
1528190712713278,-2,-2,1,3,2,0,-2,-1
1528190712713278,2,4,-1,-2,-1,-1,-1,-1
1528190712714230,-1,-1,-1,0,-1,-2,-1,-1
1528190712714230,2,-1,-2,-1,-1,-1,1,-1
1528190712736222,-2,-2,-1,-2,-2,-2,-1,0
1528190712736222,-2,-4,0,0,0,-1,1,1
1528190712737238,-2,-2,0,-1,-2,1,-1,-2
1528190712737238,-1,-1,1,-3,-2,-1,-3,-1
1528190712750391,-2,0,-1,-1,1,-1,-1,-1
1528190712750391,-2,-2,-2,-1,-1,0,-1,-2
1528190712758112,-3,-5,-1,-1,0,-2,-1,0
1528190712758112,0,1,-1,0,0,-1,0,0
1528190712774252,1,0,-1,-2,-3,-2,-1,-2
1528190712774252,-3,-2,-1,-1,-1,-2,-1,0
1528190712774252,-1,0,-1,-1,-1,1,-1,-2
1528190712774252,-1,-2,-2,1,-2,-2,-1,-1
1528190712796077,-1,1,-2,-1,-1,0,0,1
1528190712796077,-3,-1,1,-2,-2,0,0,-1
1528190712797302,1,-3,-2,-1,-2,-1,-1,-1
1528190712797302,-2,-1,-2,0,0,-3,-1,0
1528190712810738,1,0,-1,-1,-3,0,-2,-2
1528190712810738,-3,-3,-1,-2,0,0,-1,-2
1528190712819044,-1,-1,-1,0,1,0,-2,-1
1528190712819044,-1,0,-2,-1,-2,-2,-3,0
1528190712833817,-1,-2,2,2,-1,-1,-2,1
1528190712833817,-2,-1,-2,-1,-1,-2,-1,-2
1528190712834887,0,0,-2,-4,-2,-1,-1,-1
1528190712834887,-1,-2,-1,-2,-1,-1,0,-1
1528190712856630,-3,-3,-2,-1,-3,-2,-1,-1
1528190712856630,2,0,-1,2,0,-2,-2,-1
1528190712856630,-2,0,1,1,0,-1,-1,-2
1528190712856630,0,-1,0,-3,-1,0,0,0
1528190712879771,-1,-1,-1,0,1,-1,0,1
1528190712879771,-1,-1,-4,-1,-1,-1,-3,-1
1528190712879771,-2,-2,-3,-2,-2,0,-2,0
1528190712879771,-2,0,-1,0,-1,0,-1,-2
1528190712893527,0,1,0,-1,-2,-2,-1,-2
1528190712893527,-1,-1,-1,-2,0,-1,2,-1
1528190712894505,1,-1,-1,-1,-2,-2,-2,-1
1528190712894505,-1,0,-1,1,-1,-1,-1,0
1528190712916459,-2,-1,-3,-3,0,1,-1,-2
1528190712916459,-3,-2,-2,-1,-3,-1,-1,-2
1528190712916459,-1,-3,0,2,0,-3,-1,-1
1528190712916459,-2,-1,0,-1,-2,0,0,-1
1528190712938391,0,0,-1,0,0,0,-1,-1
1528190712938391,2,4,0,-2,0,0,-2,-1
1528190712946681,0,0,-2,0,-1,0,0,0
1528190712946681,-1,-1,-1,0,-1,0,-3,0
1528190712954126,1,-2,-1,-2,-1,-1,-1,0
1528190712954126,-2,-2,-1,-1,0,-1,-1,-1
1528190712954126,-1,0,-1,-1,-3,-1,-1,-2
1528190712954126,-2,1,-1,-1,0,-2,-1,-2
1528190712977052,-1,-2,0,-1,-2,-1,0,-1
1528190712977052,-2,-2,-2,0,0,-2,-1,0
1528190712977052,-2,-2,-2,-3,0,-2,-2,-2
1528190712977052,0,-2,-2,-1,-1,0,-1,-2
1528190712998996,0,2,0,0,0,-2,-1,-1
1528190712998996,-1,-1,0,-2,0,0,-3,0
1528190712999990,-1,-1,-2,1,0,0,-1,-2
1528190712999990,-3,-2,-1,-2,-1,-1,-1,-1
1528190713014147,0,0,-1,-2,0,-1,-2,-1
1528190713014147,-1,-3,0,-1,-3,-1,0,-1
1528190713014147,0,-1,-1,-1,0,0,-2,0
1528190713014147,-2,-4,-2,0,0,-2,-1,-2
1528190713043873,-1,-1,-1,-2,-2,-2,-1,-1
1528190713043873,-2,-1,0,0,-1,-2,-2,-3
1528190713045886,-2,0,0,-1,-2,-1,1,-1
1528190713045886,-3,-1,-2,-1,-1,-2,-2,-1
1528190713059900,0,-2,-1,-2,0,-1,-1,-3
1528190713059900,-3,-1,-1,0,-2,-2,-1,-3
1528190713060829,-1,-2,1,-2,0,-2,-2,0
1528190713060829,0,0,-1,-1,0,1,0,-1
1528190713082107,-2,-3,-2,0,-1,0,-1,-1
1528190713082107,-1,-1,-1,-4,-2,1,-1,-1
1528190713084030,-1,-1,-1,-1,-1,0,1,-1
1528190713084030,-1,-1,-1,-2,-1,-1,-1,-1
1528190713095971,-1,-1,-1,-3,-1,-1,-4,-1
1528190713095971,0,-2,-1,-1,-2,-1,0,-1
1528190713121097,-1,0,-1,0,-1,-1,-1,-2
1528190713121097,1,-1,0,-3,-1,-3,-2,-2
1528190713122239,-3,-1,-1,1,-2,-1,1,-1
1528190713122239,-2,-2,-1,-1,1,-1,-1,-1
1528190713133321,0,-1,-3,-2,-1,-2,-2,-1
1528190713133321,0,0,0,0,-1,-1,-2,-1
1528190713141047,0,-1,-1,-2,-3,-3,-2,0
1528190713141047,-2,-2,-2,-1,0,-2,-1,-1
1528190713143042,-3,0,-1,0,-1,0,0,1
1528190713143042,-2,-1,-3,-2,-2,-1,-3,-1
1528190713155010,0,1,-1,0,-1,0,0,0
1528190713155010,0,1,-1,0,-2,0,0,0
1528190713163986,-1,-1,-1,0,-1,0,-2,-2
1528190713163986,1,-1,-1,0,-2,-2,-2,-1
1528190713186923,-1,0,-1,-2,0,-1,-1,-2
1528190713186923,1,-1,-1,-1,0,-2,-1,-3
1528190713187920,-2,0,-2,-1,-1,-1,-3,-3
1528190713187920,-1,0,-1,-1,-2,1,-1,-1
1528190713200888,-4,-3,-2,-1,1,0,-1,-1
1528190713200888,0,0,1,-2,-1,-1,1,0
1528190713217841,1,-1,-1,-1,0,0,1,-2
1528190713217841,-3,-1,0,-2,-1,-2,-3,-1
1528190713217841,-3,-2,-3,0,-2,0,-1,-1
1528190713217841,-5,-3,-2,-1,-1,-2,-2,-2
1528190713231803,0,0,-1,-2,-1,1,-1,-2
1528190713231803,0,0,-1,-2,0,0,-1,1
1528190713238811,2,0,0,0,-1,-2,-2,-1
1528190713238811,-1,-1,0,-1,-1,-1,-1,0
1528190713244769,-1,-1,-1,-3,-2,-3,-2,1
1528190713244769,-3,-2,-2,0,0,-1,-1,-1
1528190713261778,-1,-2,-2,-2,-2,-2,-2,0
1528190713261778,1,0,-2,0,-1,1,-1,0
1528190713263727,-2,-1,0,0,-1,-1,-1,-2
1528190713263727,0,-1,1,1,-1,-2,0,-2
1528190713274741,1,1,0,0,0,0,0,1
1528190713274741,-1,-4,-2,-2,-1,-1,-2,-1
1528190713290654,2,6,0,-1,0,-2,0,-1
1528190713290654,-2,-2,-1,-1,-2,-1,-1,-1
1528190713298630,0,-1,0,-2,-2,-1,-1,0
1528190713298630,0,-2,-1,-2,0,0,0,-1
1528190713305652,-3,-4,-1,-1,-1,-1,-1,0
1528190713305652,0,0,-1,0,1,0,1,-2
1528190713321564,0,-1,0,-1,-2,-1,-1,-3
1528190713321564,0,0,0,-2,0,0,-2,-1
1528190713323591,-1,-2,-4,0,-1,-2,-2,0
1528190713323591,-1,0,-1,-1,0,-1,0,1
1528190713343505,0,-1,0,-2,-1,-2,-2,-1
1528190713343505,-1,-1,-1,0,-1,-1,-1,-2
1528190713350542,0,-3,0,-2,0,-1,-2,0
1528190713350542,-2,-1,0,-2,-1,-1,-1,0
1528190713366500,-3,2,-3,-1,0,0,-1,-1
1528190713366500,-1,0,-1,0,-2,-2,0,-3
1528190713368494,-1,-2,1,-1,-1,0,-1,-2
1528190713368494,1,-1,-1,0,-3,-1,-1,-1
1528190713381458,0,0,-1,0,1,0,0,-2
1528190713381458,-3,-2,-1,0,-2,-1,-3,0
1528190713383399,4,3,0,0,-1,-1,1,-2
1528190713383399,-1,-1,1,-1,0,-2,-1,-2
1528190713412322,-1,-3,-1,-1,-1,0,-1,-1
1528190713412322,-1,-1,-1,-2,-2,-2,0,-2
1528190713414316,-2,-3,0,-1,-3,-1,-3,-2
1528190713414316,-1,-2,0,-2,-2,1,-1,-2
1528190713418306,0,0,-4,-2,1,-2,0,-3
1528190713418306,0,0,1,0,1,-1,-1,0
1528190713425287,-3,-4,-1,-2,-1,-1,-1,-2
1528190713425287,-1,0,0,0,-1,0,0,1
1528190713441245,-2,-2,-1,-1,-3,-1,-2,1
1528190713441245,0,-1,-1,-1,-2,0,-2,-1
1528190713443239,0,-2,0,-1,-1,-1,-1,2
1528190713443239,-2,-2,-2,0,-1,-2,-1,-2
1528190713464183,0,0,-1,-1,-1,-1,0,0
1528190713464183,-3,0,-2,0,0,-1,-1,-1
1528190713466183,-2,0,-2,0,-1,0,-1,-2
1528190713466183,-1,0,-2,1,-1,-1,-2,-1
1528190713478146,-1,-1,-2,0,-1,-1,-1,-1
1528190713478146,0,0,-1,0,0,-1,-1,1
1528190713487122,-2,-2,-1,-3,-2,-1,0,-1
1528190713487122,2,3,-2,-1,-1,-1,-1,0
1528190713510062,-1,-3,-2,-1,0,-3,0,-2
1528190713510062,0,-1,0,-1,-1,-1,-1,-1
1528190713511057,0,1,-1,-1,-1,-1,-1,-1
1528190713511057,-1,-2,-3,0,-2,-1,0,-3
1528190713524272,-2,0,1,-1,0,-1,-1,1
1528190713524272,-2,0,-1,-1,-1,-2,-2,-2
1528190713526018,1,-1,-2,-1,0,-2,0,-2
1528190713526018,-2,-3,0,-1,-1,1,0,-1
1528190713538237,-1,-3,-1,-1,-1,-2,0,-1
1528190713538237,-1,-1,-2,-2,0,0,-2,0
1528190713553454,-1,0,-1,0,1,1,-1,-1
1528190713553454,-2,-1,-1,-2,-1,-2,-2,-1
1528190713562317,0,-1,0,0,-3,-1,-1,-1
1528190713562317,0,-1,-1,-1,-1,-1,-1,-1
1528190713563216,-1,-2,-1,0,-2,-2,-1,-2
1528190713563216,0,-2,-1,-2,-1,0,0,0
1528190713600132,-3,0,0,-1,-2,-2,-2,-2
1528190713600132,0,0,0,-1,-1,1,0,0
1528190713602145,-1,1,-1,-1,-2,-1,0,0
1528190713602145,-1,1,-2,-1,-2,0,-1,-4
1528190713602145,-2,0,0,0,-1,-2,-3,-2
1528190713602145,-2,-1,0,-2,-1,-1,0,-2
1528190713607353,-2,0,0,-2,0,1,-1,-1
1528190713607353,-1,-1,0,0,0,-3,-2,-1
1528190713622325,0,-2,-2,-2,-1,0,-2,-1
1528190713622325,0,0,0,-1,-1,-1,-2,-1
1528190713623056,-1,-3,-1,1,-1,-2,-1,1
1528190713623056,0,-1,1,-1,-1,-1,-2,-3
1528190713644001,-1,0,0,-2,0,-1,0,-3
1528190713644001,0,0,-2,0,-1,-1,-1,-2
1528190713645994,-1,-1,-1,-1,-1,-1,-1,-1
1528190713645994,-2,-2,-2,0,0,-2,-1,1
1528190713658278,-1,-2,-1,0,-1,1,-3,-1
1528190713658278,-2,-1,-1,1,-3,-2,-1,1
1528190713666940,-1,-5,0,0,-1,-1,-1,1
1528190713666940,5,4,1,-1,-1,0,1,1
1528190713682155,-1,-2,-1,-1,-1,-3,0,0
1528190713682155,-2,-2,1,-1,-2,-1,-1,-2
1528190713683950,-1,0,-1,-1,-2,-2,0,-2
1528190713683950,-3,-2,0,-1,-1,0,-2,-2
1528190713704837,0,0,0,0,0,1,-1,-1
1528190713704837,0,0,-2,-1,-2,0,-1,-3
1528190713705835,-2,-1,-1,-1,-1,-1,0,-2
1528190713705835,-1,-2,-3,-2,-1,-1,0,0
1528190713718069,0,-1,-1,-1,-1,0,-1,-1
1528190713718069,-1,-2,-1,-1,0,-1,-2,2
1528190713743738,-1,1,0,-1,-2,-1,-2,0
