timestamp,emg1,emg2,emg3,emg4,emg5,emg6,emg7,emg8
1528282352380867,0,-4,0,-2,-3,-2,1,0
1528282352380867,-2,-4,-1,-1,1,-1,-3,0
1528282352381865,-4,-5,-4,-2,-5,-3,-3,-3
1528282352381865,-1,2,-2,-1,-1,-3,1,1
1528282352382862,-1,1,0,-1,-2,-2,-2,-2
1528282352382862,0,-1,-2,-1,-2,-3,-1,-2
1528282352385854,-3,-2,-1,-3,-4,-9,-3,-1
1528282352385854,-2,-3,-1,0,-2,1,-1,-1
1528282352392836,-2,-5,-1,2,7,7,2,0
1528282352392836,2,3,2,-1,-4,-2,-1,2
1528282352402809,3,-1,-2,-8,-7,-7,-2,-3
1528282352402809,-2,-1,-3,0,1,0,-2,0
1528282352408793,-1,3,0,10,28,15,5,3
1528282352408793,-6,0,-1,-4,-17,-9,-8,-13
1528282352422755,-4,-13,-6,-2,7,-3,-1,1
1528282352422755,-1,-4,0,-6,-18,-19,-5,-3
1528282352434724,-4,-2,-8,-7,-21,-5,-4,-2
1528282352434724,-2,2,5,9,14,9,8,8
1528282352453673,4,1,3,-13,-11,0,-3,-4
1528282352453673,4,11,2,5,3,2,0,-2
1528282352455669,-2,-2,8,0,-12,-26,-10,-5
1528282352455669,0,-12,-26,-5,-10,6,3,-2
1528282352468633,-6,2,9,11,4,8,0,-1
1528282352468633,-5,-8,-3,-17,4,0,-1,0
1528282352509524,-4,-8,-9,-7,-27,-11,-5,3
1528282352509524,1,4,2,1,-2,-8,-4,-2
1528282352513513,10,-5,4,5,8,9,3,-2
1528282352513513,1,7,5,4,-1,-1,0,3
1528282352514511,-3,-6,-3,-2,2,2,-2,-7
1528282352514511,-7,0,-6,-13,-10,-7,-2,0
1528282352515509,-5,-3,2,-1,-24,-22,-4,0
1528282352515509,1,5,1,-1,-14,-9,-3,1
1528282352521493,1,15,6,16,40,38,12,-3
1528282352521493,-2,-27,-2,-3,-27,-12,-7,-8
1528282352528484,-8,1,-7,1,35,14,2,-8
1528282352528484,1,3,-4,-12,-16,-6,0,4
1528282352534460,-1,-4,3,1,-16,-11,0,6
1528282352534460,-1,12,-1,-1,0,-15,-9,4
1528282352559392,5,-10,-3,-7,1,9,4,13
1528282352559392,-8,1,-1,11,8,17,-1,-29
1528282352560389,2,4,1,-15,-4,-11,-6,-6
1528282352560389,-1,-1,-2,9,19,15,5,-5
1528282352580335,-5,-4,-6,-13,-36,-38,-13,-2
1528282352580335,0,-10,-5,5,12,10,6,14
1528282352581332,-9,-13,-2,3,0,6,6,0
1528282352581332,15,23,5,-11,-12,-14,1,8
1528282352595340,-6,5,-5,14,38,31,4,-9
1528282352595340,5,-3,-1,-7,-4,-7,-3,-1
1528282352602297,-10,-4,-2,-9,-32,-26,-9,-11
1528282352602297,1,-1,-2,-5,-20,-7,4,42
1528282352618232,11,14,0,16,47,36,12,-7
1528282352618232,-33,-39,-8,-7,-2,-11,-18,-64
1528282352619230,11,3,-5,-21,-14,-6,-4,1
1528282352619230,-8,-2,-1,0,-4,-12,-8,-17
1528282352640174,-4,-1,-3,-12,-51,-25,-2,14
1528282352640174,3,0,3,15,33,15,16,10
1528282352641172,-3,-11,-4,10,-8,2,-3,0
1528282352641172,0,-2,-2,-9,11,-1,-2,-6
1528282352655161,-2,-5,-3,-7,-19,-10,-10,-5
1528282352655161,-1,4,3,6,2,-6,0,13
1528282352662117,9,10,9,10,6,5,2,4
1528282352662117,2,4,-9,0,4,12,2,-9
1528282352678074,-1,-1,4,5,27,8,-2,-3
1528282352678074,12,10,1,-7,0,17,9,29
1528282352679098,-1,16,1,15,25,-8,-3,3
1528282352679098,3,5,-5,-1,2,-2,2,2
1528282352701012,-7,-25,-10,-15,-20,3,-5,-17
1528282352701012,6,16,3,13,29,16,2,2
1528282352715972,-1,-11,3,8,16,0,-5,-3
1528282352715972,3,8,4,-2,5,22,5,-2
1528282352717966,-1,1,4,13,-2,-12,8,7
1528282352717966,-5,-12,-8,-29,-29,-10,-5,8
1528282352721955,1,7,1,-6,2,-6,0,0
1528282352721955,-3,-16,0,8,-10,-1,3,-3
1528282352737913,-1,0,-7,-17,-10,-17,-8,14
1528282352737913,1,0,2,3,12,-4,-3,-5
1528282352738910,-6,1,-5,0,-17,-11,-7,-18
1528282352738910,-6,-9,-3,-7,8,-5,-4,-6
1528282352760852,3,21,7,3,-2,10,0,-1
1528282352760852,6,-13,6,5,-15,-7,1,28
1528282352761888,3,-7,-4,-23,3,3,8,5
1528282352761888,-2,-7,-5,-1,-10,-12,-8,-29
1528282352774819,-5,-3,2,11,-10,2,-4,-10
1528282352774819,-5,-5,-4,-16,-31,-26,-5,-9
1528282352782793,1,1,5,14,16,26,5,10
1528282352782793,2,0,8,20,39,32,15,17
1528282352797754,4,-5,-2,-8,-9,-10,-3,-1
1528282352797754,-1,11,-3,5,-3,-2,-3,-3
1528282352798750,-5,-5,-5,-14,-20,-21,-9,-13
1528282352798750,0,-4,-4,-6,-7,-2,-1,4
1528282352820693,-4,-13,-5,4,11,3,6,4
1528282352820693,-2,4,3,4,-6,-9,-13,-18
1528282352821721,6,0,-3,-11,-4,-2,0,4
1528282352821721,-12,-2,-3,11,2,0,-4,-7
1528282352834682,-1,0,6,-5,0,1,-8,-13
1528282352834682,0,-8,-4,-7,-15,-3,2,7
1528282352842673,1,2,-1,-3,-4,-8,-4,-1
1528282352842673,-3,4,-3,-8,8,9,1,-2
1528282352857636,-6,-5,6,1,-6,-12,0,2
1528282352857636,9,18,-13,-7,1,6,-1,24
1528282352858598,1,-7,7,22,40,14,7,-12
1528282352858598,-2,-10,-5,4,6,3,-6,-13
1528282352880585,-4,5,-1,-2,-5,-4,1,9
1528282352880585,1,12,6,-3,7,-6,-4,-23
1528282352881530,2,2,4,-1,-7,3,3,20
1528282352881530,-6,-6,-9,-7,-9,-12,-3,-5
1528282352895572,-7,-2,2,8,18,16,0,-23
1528282352895572,0,-7,-8,0,2,4,2,5
1528282352902489,6,4,8,-2,-7,-1,-2,2
1528282352902489,3,4,6,-3,-11,-13,-11,1
1528282352918432,3,1,-3,-8,-14,-8,0,0
1528282352918432,-3,-2,2,0,0,3,6,3
1528282352918432,-3,7,-5,-4,-15,-4,2,8
1528282352918432,3,2,3,7,5,2,-4,-18
1528282352940372,2,2,-6,-1,3,-2,-3,7
1528282352940372,12,-2,0,0,-6,-8,-2,12
1528282352941369,-4,-1,-4,-6,4,5,4,9
1528282352941369,-2,-6,1,-4,-4,-1,-4,-15
1528282352955332,-13,3,4,-5,0,-11,-5,-17
1528282352955332,0,3,4,8,19,19,4,-19
1528282352962314,-3,-6,-10,-8,-9,-4,-2,3
1528282352962314,-2,0,0,1,-3,-2,2,12
1528282352978271,3,-5,0,-7,-9,-7,-5,3
1528282352978271,-2,3,3,7,-10,-11,-1,1
1528282352979289,-7,-11,-9,0,-1,1,-3,-11
1528282352979289,4,-8,-5,-4,0,6,0,-4
1528282353000212,6,3,-9,-3,-2,-2,-4,16
1528282353000212,-1,-5,9,2,1,-2,5,13
1528282353001210,4,10,4,5,3,2,-4,-14
1528282353001210,-11,-9,0,1,0,1,2,-1
1528282353023151,4,4,2,-9,-16,-1,3,-2
1528282353023151,-8,-11,-12,7,7,-3,-8,-7
1528282353024149,-40,-15,-14,-16,-12,-2,-1,-11
1528282353024149,23,10,18,5,9,-2,-5,11
1528282353038111,20,1,-4,-2,-3,-5,-2,23
1528282353038111,4,3,-7,-11,-6,-1,14,4
1528282353039137,4,-9,2,6,7,4,-12,-43
1528282353039137,-21,1,-6,-14,-12,-9,-2,-6
1528282353060084,-15,-8,-2,15,21,14,-2,-9
1528282353060084,2,0,2,-4,-1,-1,-3,4
1528282353061048,-1,-1,-4,-4,-8,-6,-2,17
1528282353061048,7,1,1,-11,-6,0,6,12
1528282353083028,5,2,0,4,-1,0,5,-5
1528282353083028,11,-2,-3,-12,-5,-7,-9,21
1528282353083988,-6,0,7,17,7,0,8,1
1528282353083988,-1,4,5,-2,-5,-1,-1,-5
1528282353097985,-7,-8,-18,-13,-12,-2,5,-5
1528282353097985,-16,5,15,6,19,0,-11,-27
1528282353098948,26,4,1,11,-17,-9,-5,16
1528282353098948,-54,-21,-19,5,-10,-2,-3,-10
1528282353120928,45,36,9,-10,8,6,-17,1
1528282353120928,-7,-40,-7,-12,-30,-20,-23,-28
1528282353121919,-2,-8,0,4,19,23,58,37
1528282353121919,17,8,2,15,1,-15,-46,-24
1528282353142868,32,10,2,1,-10,20,109,74
1528282353142868,-34,-4,-9,6,2,-13,-51,-17
1528282353143829,12,-13,3,-3,-6,-10,-22,-23
1528282353143829,-46,-6,-2,1,-9,15,59,33
1528282353157827,9,-8,-5,12,13,-8,-40,-35
1528282353157827,11,7,-1,-48,-42,-10,7,-10
1528282353165770,-16,19,5,-14,-9,-12,-29,-10
1528282353165770,3,-4,2,40,39,1,-30,-16
1528282353180730,-11,7,-20,-58,-65,-37,-58,-7
1528282353180730,22,17,-4,33,17,7,39,-6
1528282353181727,-9,11,5,7,18,9,-3,10
1528282353181727,-9,-20,-3,-33,-15,2,-15,-13
1528282353202672,-10,-22,5,33,10,-5,47,43
1528282353202672,0,-30,1,-2,13,10,-16,0
1528282353203668,-2,1,-1,-14,-4,7,30,-4
1528282353203668,19,-7,-6,30,34,0,18,17
1528282353217632,-8,5,8,-18,-13,3,-17,-6
1528282353217632,-21,4,0,8,19,6,13,-6
1528282353225611,8,-9,5,28,-10,-14,-13,9
1528282353225611,84,19,-13,-26,-4,-4,4,83
1528282353240570,-70,-6,18,8,-6,-2,-33,-108
1528282353240570,8,11,1,-23,11,30,33,-13
1528282353241568,-8,-2,-5,11,1,1,-9,-7
1528282353241568,-11,3,-11,-11,-18,-7,-5,3
1528282353263530,14,-9,-1,16,29,1,12,18
1528282353263530,9,7,-1,-12,-7,-4,-27,11
1528282353264507,-8,-12,-13,4,21,2,2,-28
1528282353264507,11,5,8,0,-32,-9,2,2
1528282353278470,-24,-9,0,-8,20,10,-6,7
1528282353278470,34,7,7,23,-10,-13,-21,40
1528282353278470,18,13,-5,7,14,-2,13,5
1528282353278470,-39,-16,2,31,0,3,14,-23
1528282353300410,-13,-3,-6,-42,-24,-11,-64,-33
1528282353300410,59,25,2,21,7,23,74,48
1528282353301412,1,1,-2,-9,-22,-14,-32,12
1528282353301412,-8,5,0,-18,8,10,14,-26
1528282353332363,-6,-1,-7,8,11,3,-3,43
1528282353332363,7,-3,2,-3,-13,-11,-7,4
1528282353333321,-3,-1,-7,-28,-34,-15,-12,-30
1528282353333321,-8,1,-1,2,29,25,9,-15
1528282353338476,15,-18,0,20,-4,-11,-3,17
1528282353338476,-15,11,0,10,7,-12,-13,6
1528282353339306,-15,-6,4,-9,8,15,12,-26
1528282353339306,-3,7,0,-17,-20,-15,-12,-11
1528282353360249,15,11,6,10,14,20,20,-16
1528282353360249,-27,-30,-17,12,13,3,-9,-14
1528282353361247,-6,-1,-6,-39,-23,-6,-8,12
1528282353361247,16,1,11,-16,-6,-8,-3,23
1528282353384223,-3,9,0,12,19,-5,7,-16
1528282353384223,-20,8,5,-8,-11,3,-1,-22
1528282353384223,-3,-3,4,-4,5,-3,-16,-8
1528282353384223,18,7,-2,5,4,-5,-3,14
1528282353398286,5,-4,-4,2,4,7,13,23
1528282353398286,-24,-1,4,-8,-6,-4,-12,-34
1528282353399146,12,-3,-4,16,14,1,1,24
1528282353399146,9,7,4,-21,-21,-7,-5,3
1528282353421165,11,9,4,12,16,4,4,-8
1528282353421165,-15,-12,-4,-12,-26,-8,-6,-4
1528282353421165,3,-3,-4,8,2,2,2,9
1528282353421165,-3,-7,-3,3,-4,4,2,-8
1528282353444070,-3,-4,-6,-23,-9,-10,-7,-7
1528282353444070,-3,-4,-6,2,-2,5,1,-4
1528282353445063,-4,-16,1,26,16,9,8,0
1528282353445063,5,10,1,-9,2,-1,-1,19
1528282353458013,-7,0,-3,8,-6,5,9,-12
1528282353458013,-9,-16,0,-5,5,-2,-4,-7
1528282353459010,4,15,-1,-7,-11,-6,-2,2
1528282353459010,-9,-19,-2,10,12,10,-2,-15
1528282353488964,0,-2,4,-1,-6,-7,-1,10
1528282353488964,2,0,0,-8,0,-4,4,6
1528282353490932,-6,5,0,-3,3,3,-6,-13
1528282353490932,-1,1,-1,-3,-1,-6,-7,-10
1528282353502893,-2,-3,-6,-11,-11,-2,9,9
1528282353502893,-2,3,-2,4,2,-1,-3,-8
1528282353509875,1,-4,1,-2,-10,-10,-3,3
1528282353509875,-6,-1,-3,-1,12,-2,-2,-5
1528282353526866,-2,-8,-5,0,-11,-7,-1,-8
1528282353526866,-4,5,6,1,7,0,3,-6
1528282353528859,1,-10,-10,-4,6,6,2,5
1528282353528859,1,-1,1,6,-12,-6,-2,0
1528282353548771,-14,7,2,4,5,3,-6,-22
1528282353548771,8,3,-3,-8,1,-6,-5,11
1528282353550766,-1,-1,3,-4,-9,-5,-1,-3
1528282353550766,-4,2,-4,-7,3,-1,-3,-7
1528282353562734,2,-9,4,6,4,8,1,4
1528282353562734,-5,-2,-2,-2,-11,-12,-4,1
1528282353569715,-2,-2,1,-1,12,10,6,-2
1528282353569715,-4,-1,3,4,-5,0,-1,-3
1528282353586723,5,6,0,2,5,1,2,1
1528282353586723,-7,-10,-6,-3,-3,1,-3,-3
1528282353587680,4,4,-1,-2,-10,-11,-4,2
1528282353587680,0,1,-4,-2,3,2,1,-5
1528282353608664,-8,-4,-2,-1,-4,0,0,-1
1528282353608664,-1,-2,-3,2,6,2,2,-2
1528282353610609,-2,-4,-4,-3,-4,-8,-7,-2
1528282353610609,-1,-3,0,0,-8,-3,0,-4
1528282353622628,2,5,0,-2,1,0,0,0
1528282353622628,-3,-21,-7,-3,-3,-2,-4,-2
1528282353631550,-4,4,-1,-3,2,2,-1,-1
1528282353631550,-4,0,-1,-1,4,-1,-3,-7
1528282353647507,1,-5,-5,-2,-10,-12,-5,-2
1528282353647507,-4,7,1,0,8,10,2,-1
1528282353649502,0,-8,-1,0,6,10,6,3
1528282353649502,5,3,-2,-1,-9,-10,-6,1
1528282353668505,0,1,-1,-5,-3,-5,-1,-1
1528282353668505,-1,5,1,-3,-9,4,1,-1
1528282353670444,1,3,3,3,3,5,1,7
1528282353670444,-6,-4,-1,0,-7,7,6,2
1528282353682413,-8,-7,-3,0,9,-9,-8,-20
1528282353682413,-6,2,2,0,-2,-5,-4,-6
1528282353691390,2,-3,-3,-4,-3,-6,-1,2
1528282353691390,9,11,2,3,9,3,0,4
1528282353706403,6,-4,-1,-2,-3,2,7,8
1528282353706403,-6,-5,-6,-5,-2,-12,-3,-4
1528282353708349,-6,2,2,-1,-5,-1,-4,-5
1528282353708349,-1,-7,-1,0,0,6,2,-1
1528282353728344,4,10,0,1,-2,7,0,3
1528282353728344,-2,-2,-1,1,3,1,-3,0
1528282353730286,6,13,3,1,0,0,7,6
1528282353730286,-8,-21,-4,-3,-2,-11,-6,-7
1528282353742290,-3,-7,-2,0,2,12,1,1
1528282353742290,-1,0,-1,-1,-3,-6,0,-1
1528282353751230,-8,-5,-1,-2,-1,-5,-5,-6
1528282353751230,9,4,-3,-1,-2,-6,-2,-1
1528282353766190,-4,-3,-4,0,0,4,-2,-1
1528282353766190,4,-1,-3,-1,-2,-4,-1,2
1528282353768188,3,3,-1,-1,0,-12,-4,-2
1528282353768188,-10,-7,-4,-6,-7,10,-3,-6
1528282353788183,-4,0,-2,-4,-5,-9,2,4
1528282353788183,6,1,-1,-3,3,12,4,5
1528282353795149,-4,-9,-1,3,4,-1,-3,-3
1528282353795149,7,12,2,1,1,-4,0,-3
1528282353802145,-4,-5,0,0,0,-8,-5,-4
1528282353802145,-2,8,3,-1,-5,6,0,-4
1528282353811125,-4,-15,-3,-3,-4,-15,-1,2
1528282353811125,-6,-14,-3,-4,-7,5,0,-2
1528282353826175,-1,6,0,-3,3,-3,1,-3
1528282353826175,1,2,-1,5,17,22,0,3
1528282353828024,4,-1,-3,-3,-9,-10,0,0
1528282353828024,0,4,-4,1,12,2,1,1
1528282353849294,0,-5,-6,-2,-10,-14,-4,-1
1528282353849294,-2,-5,-4,-2,-6,-15,-5,-1
1528282353850230,-1,0,-4,-4,1,8,-4,-3
1528282353850230,-4,1,0,-3,-5,-9,-3,-1
1528282353862573,-5,-5,0,-2,-1,4,0,-1
1528282353862573,9,6,1,-1,-4,-23,-5,3
1528282353871403,1,-1,-1,0,1,23,3,-1
1528282353871403,-2,4,1,0,-4,-1,1,-1
1528282353886714,0,0,1,3,8,0,-4,1
1528282353886714,-5,-3,0,-2,-11,-12,-4,-4
1528282353887691,2,5,-2,-2,-9,-9,1,-1
1528282353887691,1,4,4,1,3,20,7,3
1528282353908850,3,0,3,3,10,16,2,3
1528282353908850,-7,-10,-2,-3,-11,-10,5,-2
1528282353910683,-2,1,-4,1,15,19,-2,-3
1528282353910683,-4,-6,-4,-5,-6,-9,2,-6
1528282353922688,0,0,1,-3,-13,-14,-6,0
1528282353922688,0,-3,0,0,9,3,-3,-4
1528282353931670,-4,-2,-2,-3,-17,-16,-4,-2
1528282353931670,-2,-5,0,2,12,-3,-4,-1
1528282353946788,-2,-4,-2,2,5,9,-1,-2
1528282353946788,-1,-1,-2,-6,-10,-8,-4,-2
1528282353947695,-2,-4,-2,-4,-3,-4,-2,0
1528282353947695,-2,-1,-3,0,-4,-5,-2,1
1528282353968708,-1,-4,-2,-3,-11,-6,-1,0
1528282353968708,0,2,0,2,3,7,2,1
1528282353970572,7,12,3,1,4,2,5,2
1528282353970572,-1,5,0,1,-5,-13,-6,-2
1528282353982541,1,-8,-4,-3,-2,9,1,3
1528282353982541,-1,0,-1,1,1,5,8,1
1528282353991521,-2,-2,0,1,-4,6,2,1
1528282353991521,-2,-5,0,0,-2,-10,-6,-2
1528282354006594,1,8,-3,-2,0,10,1,-2
1528282354006594,-4,1,0,0,1,-10,-2,2
1528282354008495,1,0,-3,0,1,-2,-1,2
1528282354008495,-3,-2,-2,-5,-5,-5,-1,0
1528282354028744,-3,-3,-2,-2,1,-10,-2,0
1528282354028744,4,5,1,0,6,34,6,2
1528282354030577,-2,-2,-1,-5,-8,-18,-4,0
1528282354030577,-2,-1,-5,-2,-1,1,-3,-1
1528282354042749,-4,-5,-3,-3,-6,-9,-3,-6
1528282354042749,0,1,0,-1,0,-6,-2,0
1528282354051727,5,1,2,0,2,12,2,4
1528282354051727,0,-3,0,-1,0,5,-1,-2
1528282354066689,0,1,0,-1,-4,-5,-3,-3
1528282354066689,-3,-2,-1,-2,-3,-7,-4,-3
1528282354067685,-6,-8,1,-1,2,-2,-2,-2
1528282354067685,1,0,2,-2,2,1,1,0
1528282354089122,-1,1,0,2,0,-1,0,-3
1528282354089122,-2,-3,-3,0,2,1,-1,-3
1528282354090131,-3,-1,0,0,2,0,-3,-3
1528282354090131,0,3,-1,1,3,4,-1,-2
1528282354102456,-1,1,0,0,2,0,1,0
1528282354102456,-3,-4,-3,-1,-1,-1,0,-3
1528282354111268,-1,2,-1,-1,5,0,-1,-1
1528282354111268,-3,-2,-2,0,0,0,-1,-1
1528282354126371,3,2,-1,-5,-5,-1,0,2
1528282354126371,-1,-6,-4,2,5,0,-4,-5
1528282354128365,0,-3,-1,-1,0,-1,0,-2
1528282354128365,-1,-3,-2,0,1,-1,0,1
1528282354148536,2,-1,1,0,-1,0,-1,2
1528282354148536,-1,0,1,-1,-3,-2,0,1
1528282354150367,-5,-5,2,-1,0,-2,-1,-3
1528282354150367,2,4,0,0,-1,-1,1,2
1528282354162335,1,2,-1,-2,-2,-2,-2,0
1528282354162335,-3,-6,-3,-3,-4,-3,-3,0
1528282354171312,-2,0,0,-1,-4,-1,-1,-3
