timestamp,emg1,emg2,emg3,emg4,emg5,emg6,emg7,emg8
1528442594435813,-6,0,-2,3,0,-21,-17,-4
1528442594435813,-7,-10,-7,-4,-2,4,7,-2
1528442594442795,-1,14,-3,-4,-20,-16,-4,-4
1528442594442795,1,-27,2,4,36,59,23,6
1528442594450777,4,13,2,-5,-27,-15,-4,-3
1528442594450777,0,3,1,-1,7,-25,-20,-6
1528442594457755,-4,-12,-2,-3,-19,-13,-5,-5
1528442594457755,-1,8,0,7,25,28,14,3
1528442594474710,4,4,4,6,16,-4,-2,2
1528442594474710,4,0,5,5,3,19,11,7
1528442594480693,2,0,-3,-9,-27,-20,-11,-4
1528442594480693,0,-3,2,0,7,-19,-16,1
1528442594496652,6,5,5,6,1,43,24,2
1528442594496652,1,7,-2,-2,-25,-33,-4,-2
1528442594503631,-7,-6,-1,-7,4,5,-10,-5
1528442594503631,-8,-2,-15,-14,-35,-26,-10,-9
1528442594525574,0,4,7,0,18,10,7,0
1528442594525574,-1,2,-3,-8,-34,-49,-22,-6
1528442594540544,-10,-18,-27,-5,-16,6,4,-8
1528442594540544,2,13,-8,-5,6,13,13,8
1528442594549510,4,7,5,20,58,53,16,9
1528442594549510,-1,8,6,-6,-17,-16,-1,0
1528442594563472,7,3,12,1,24,7,-1,4
1528442594563472,-10,-24,-21,-15,-31,-18,-9,-6
1528442594570467,-1,7,2,5,-3,-13,-1,-2
1528442594570467,-1,-5,-3,-8,-13,-18,-12,-7
1528442594581423,-4,-7,-9,-6,-17,-22,-11,-5
1528442594581423,3,8,-4,17,41,35,13,4
1528442594585413,14,-5,-10,12,15,10,20,15
1528442594585413,-5,8,18,5,-1,-3,-11,-10
1528442594608351,-4,-2,-20,-12,-28,-14,-4,-7
1528442594608351,7,12,3,15,31,21,15,7
1528442594630300,-4,-4,-13,-5,-15,-22,-22,-11
1528442594630300,-3,7,-8,-5,-14,-26,-13,-6
1528442594640293,2,-6,5,-2,5,11,1,2
1528442594640293,-14,-26,-18,-10,-7,14,2,-7
1528442594668218,0,-7,7,3,29,2,7,2
1528442594668218,-2,11,2,-13,-35,-24,-14,-10
1528442594683189,-2,12,12,-1,-42,2,17,1
1528442594683189,8,4,-2,3,47,32,8,8
1528442594713125,-2,-6,-7,-7,-7,-9,-13,-3
1528442594713125,10,14,5,26,17,7,16,9
1528442594743046,-4,-8,7,-9,10,16,7,2
1528442594743046,4,14,16,18,14,5,4,3
1528442594751027,12,1,16,7,33,34,17,8
1528442594751027,-4,-2,1,-2,-1,-3,-4,-2
1528442594758003,5,26,13,10,10,8,5,0
1528442594758003,-7,-34,-13,-7,-12,-13,-8,-4
1528442594765931,1,-10,-10,0,-26,-16,-5,2
1528442594765931,8,20,-2,3,2,-1,1,3
1528442594780931,-10,-17,-20,-3,0,-9,-8,-11
1528442594780931,0,9,2,1,-19,-22,-6,-3
1528442594787911,3,6,-9,-1,35,30,10,4
1528442594787911,-3,2,-2,-1,-24,-4,2,0
1528442594802833,-5,6,11,2,5,1,1,-3
1528442594802833,3,-14,1,-3,-18,-12,-5,2
1528442594810811,-5,6,5,-4,-3,6,5,-2
1528442594810811,-1,-8,6,-8,-15,-9,-8,-2
1528442594825772,-9,-12,-9,1,-5,-14,-10,-10
1528442594825772,4,-3,1,-16,4,12,7,4
1528442594832754,1,5,1,-4,-21,-20,-5,-1
1528442594832754,-2,-16,-13,-5,21,7,-2,-1
1528442594840732,-3,-5,6,-9,-4,0,-2,-2
1528442594840732,8,34,23,5,14,12,2,3
1528442594855692,-4,-29,-8,2,-4,-6,-1,0
1528442594855692,1,11,3,5,-7,-8,0,-1
1528442594862674,-1,-19,-12,-9,2,-2,0,-1
1528442594862674,-3,-12,-7,-8,-19,-5,-5,-3
1528442594878630,6,-9,2,9,31,12,11,6
1528442594878630,1,-15,7,-1,-18,-10,-4,1
1528442594885611,-2,-29,1,9,18,15,3,-2
1528442594885611,-2,-22,-1,-8,-14,-5,0,-3
1528442594893589,1,-3,2,-1,0,-8,-4,-1
1528442594893589,-5,0,3,-6,-10,-1,-4,-6
1528442594900598,-3,2,1,5,13,0,-3,-4
1528442594900598,-2,-3,-2,-8,2,3,4,1
1528442594923552,0,15,6,0,-4,-4,-8,-3
1528442594923552,0,17,8,-2,-11,-10,4,-1
1528442594930492,-1,16,-6,0,-2,10,1,0
1528442594930492,0,5,-8,-5,7,5,5,2
1528442594945451,4,24,-3,2,11,10,1,1
1528442594945451,-4,-5,-6,2,-5,0,-3,-4
1528442594953430,-8,-4,-21,-17,-8,-27,-13,-7
1528442594953430,1,8,-11,4,5,3,-2,-1
1528442594968392,1,6,4,-1,-11,4,5,1
1528442594968392,0,9,-5,-6,2,-1,-2,1
1528442594975370,-4,-5,6,7,-8,-11,-13,-11
1528442594975370,1,4,2,7,10,7,14,1
1528442594983349,1,7,11,4,9,7,8,6
1528442594983349,-4,2,2,-6,-15,-7,-1,0
1528442594990331,-2,-3,0,1,2,-6,-9,1
1528442594990331,1,3,-7,-10,-13,-8,-7,-4
1528442595013309,-4,-5,-14,3,-3,-8,-7,-8
1528442595013309,-3,-1,-26,-4,15,6,2,5
1528442595020290,-1,-3,-6,-15,-9,-3,-5,-2
1528442595020290,0,4,14,10,-7,-16,-13,-5
1528442595028255,-1,-3,-20,-15,15,17,10,3
1528442595028255,-2,-5,7,6,-12,-4,-2,-4
1528442595043190,-5,-6,-8,-16,16,4,-7,-8
1528442595043190,3,4,-2,4,-12,-10,-8,5
1528442595050172,8,8,11,-15,-12,-5,26,15
1528442595050172,1,2,16,-9,-12,-4,-10,-2
1528442595066130,-9,-4,1,34,17,-3,-33,-20
1528442595066130,14,7,8,-20,0,20,71,54
1528442595073111,0,0,-2,-32,-23,-7,-4,-7
1528442595073111,-6,-3,-1,-14,-10,-7,-22,-19
1528442595081096,-17,6,3,15,0,-6,-11,-12
1528442595081096,24,7,1,3,14,2,0,2
1528442595096048,-14,-20,-6,18,2,-6,-10,-5
1528442595096048,5,15,5,16,21,21,10,-7
1528442595103030,6,0,-1,-10,-16,4,24,17
1528442595103030,-21,-9,-19,-10,-1,-15,-52,-66
1528442595118026,2,13,2,-2,-8,-2,16,21
1528442595118026,7,-12,-18,-14,-11,7,32,38
1528442595125970,-7,3,29,15,7,-12,-26,-25
1528442595125970,2,-4,0,7,4,6,34,19
1528442595132977,9,1,16,0,4,9,-1,-5
1528442595132977,-16,-2,-3,-15,-4,-2,-16,-27
1528442595140928,5,3,-23,-6,-10,-11,-18,1
1528442595140928,0,3,4,-21,-8,10,59,42
1528442595155888,2,-2,9,39,12,-1,4,-2
1528442595155888,-15,-8,13,30,13,-16,-72,-61
1528442595162869,10,0,-5,-34,-26,1,44,58
1528442595162869,-6,-1,6,29,34,13,6,-12
1528442595177829,-5,1,-9,-39,-7,-5,-27,-23
1528442595177829,21,16,9,-12,-26,-21,-25,-18
1528442595185808,-20,-19,-13,44,39,13,17,-2
1528442595185808,-20,-18,-1,-11,-39,-19,-21,-3
1528442595192789,-6,-5,9,0,9,11,30,22
1528442595192789,-5,-11,-16,-23,-13,-19,-52,-52
1528442595200768,-21,-11,32,-35,-29,-26,-63,-40
1528442595200768,24,24,47,6,-5,-11,10,14
1528442595215728,-4,-11,-11,-4,7,-1,-38,-14
1528442595215728,-27,-16,-18,44,27,22,48,16
1528442595230688,67,46,-3,0,11,15,58,54
1528442595230688,-9,-46,-31,-35,-33,0,14,25
1528442595245648,2,18,-37,-31,-15,0,-4,-20
1528442595245648,-18,-8,-27,40,25,7,4,9
1528442595253640,-19,-8,-6,7,-26,-23,-29,-21
1528442595253640,39,25,-4,6,5,-8,-29,-2
1528442595260608,-48,-5,-6,-27,-17,-13,-10,-58
1528442595260608,1,-11,45,5,-6,10,2,8
1528442595268587,-3,6,-4,-3,-3,-16,-35,-44
1528442595268587,22,58,-19,-4,21,24,18,31
1528442595283546,-11,12,12,13,-6,-10,-18,-19
1528442595283546,5,37,-39,-19,6,0,-10,-19
1528442595298507,-9,-14,39,22,0,7,20,6
1528442595298507,15,17,16,2,12,-19,-42,-3
1528442595305488,-4,-59,-9,1,7,8,4,-38
1528442595305488,-69,-40,-106,-3,-6,-6,-10,-35
1528442595313467,28,21,28,41,26,14,8,8
1528442595313467,42,7,4,-26,-10,-8,-2,28
1528442595320448,11,-4,-9,-56,-35,-17,7,29
1528442595320448,-22,-31,-20,23,15,-1,-1,13
1528442595335408,-42,6,3,-12,-27,-17,-39,-52
1528442595335408,-11,-13,2,-10,-3,11,18,-3
1528442595343388,48,7,28,70,80,57,90,91
1528442595343388,-32,-24,-44,-23,-35,-32,-74,-94
1528442595358374,35,-10,47,-10,-3,-2,27,83
1528442595358374,21,29,-22,-42,-21,20,59,61
1528442595365328,-20,33,27,32,1,-13,-44,-39
1528442595365328,16,4,69,1,13,16,37,10
1528442595373307,-9,-72,-54,0,15,8,4,16
1528442595373307,-43,-25,-57,-25,-25,-19,-40,-27
1528442595380288,42,20,23,20,6,24,59,53
1528442595380288,-30,-14,-63,14,14,-7,-26,-44
1528442595395248,27,-1,-37,-23,-14,-8,2,17
1528442595395248,-36,2,27,-1,-8,-6,-18,-51
1528442595403227,8,14,32,24,15,-3,-35,-25
1528442595403227,-12,-31,-16,-24,-17,-1,-3,-9
1528442595418189,15,18,52,51,13,18,45,54
1528442595418189,101,29,38,-20,-29,-22,1,94
1528442595426166,-122,-28,-50,-24,14,3,-55,-119
1528442595426166,7,15,8,14,21,9,3,28
1528442595441127,-18,-2,-29,-23,-1,1,-7,-31
1528442595441127,12,1,35,62,29,13,49,43
1528442595448107,17,14,-41,-15,-41,-41,-28,-1
1528442595448107,15,28,31,23,26,16,15,7
1528442595463067,-16,-17,-63,-30,-14,-12,-38,-40
1528442595463067,-17,-17,19,17,12,7,11,0
1528442595471050,10,2,-17,-31,-27,-20,6,13
1528442595471050,-4,-7,11,7,2,-4,21,44
1528442595486399,9,2,-31,-18,-17,-9,-30,-41
1528442595486399,-31,-18,-12,7,6,2,4,-19
1528442595493457,4,4,14,29,6,7,29,15
1528442595493457,-13,-12,-19,-7,-3,-6,-9,-27
1528442595501352,8,-3,-4,4,7,13,4,20
1528442595501352,17,12,-3,-18,6,18,10,4
1528442595516328,0,-2,-7,11,8,0,-6,-17
1528442595516328,-31,-5,-14,7,16,17,10,-9
1528442595523397,27,6,-22,-27,-31,-17,-10,13
1528442595523397,-21,-12,-8,3,-15,-24,-39,-60
1528442595538115,-19,-14,-4,-38,-30,-11,8,11
1528442595538115,22,13,5,25,24,7,-1,-8
1528442595546115,13,-8,-24,-21,-10,0,10,23
1528442595546115,-44,-11,18,9,-8,-7,-17,-21
1528442595553077,15,14,-3,-10,0,4,32,10
1528442595553077,-18,-5,3,25,25,10,-12,-39
1528442595561087,0,-9,-17,-5,-1,-4,-10,-1
1528442595561087,32,20,37,21,0,-5,-5,16
1528442595576261,4,3,-16,-25,-18,-4,0,11
1528442595576261,-1,-2,10,-19,-6,-4,-7,3
1528442595583254,-9,-2,20,23,15,2,-5,-20
1528442595583254,2,-9,-7,10,12,22,14,5
1528442595597956,38,17,9,-4,11,2,10,53
1528442595597956,-18,-26,-33,-41,-34,-20,-16,-12
1528442595606181,-38,-4,-18,0,-8,-3,2,-34
1528442595606181,6,-3,-3,11,7,-7,-8,11
1528442595613161,-9,-3,-10,0,19,14,-6,8
1528442595613161,54,10,4,4,-7,-4,4,54
1528442595621139,8,-4,-31,-12,-9,-10,-7,-36
1528442595621139,-90,-36,-12,17,-4,0,-6,-68
1528442595636385,12,0,13,26,21,3,-20,-7
1528442595636385,-19,-12,0,-25,-17,-6,9,-12
1528442595643141,14,11,-19,-31,-3,9,1,31
1528442595643141,61,22,44,41,19,1,14,35
1528442595658331,-22,-8,-31,-6,-20,-16,-11,-20
1528442595658331,6,16,25,22,7,-3,-9,2
1528442595665421,-16,-11,5,9,7,0,1,-5
1528442595665421,-9,-12,-56,-46,-24,1,1,-8
1528442595673899,-6,4,11,24,12,-2,-5,3
1528442595673899,12,-3,-23,-2,-3,2,2,3
1528442595680898,2,6,23,-5,0,-1,0,0
1528442595680898,30,0,1,3,9,3,14,47
1528442595695846,-22,-1,-10,2,-11,-7,2,-19
1528442595695846,-5,-6,-9,-15,-4,-1,-18,-22
1528442595719072,-35,-8,-4,20,10,1,-11,-35
1528442595719072,8,-6,-22,-13,-22,-13,-13,12
1528442595725813,31,12,3,-13,4,10,32,41
1528442595725813,-42,-11,-9,-13,-10,-4,0,-37
1528442595741092,3,1,4,2,5,10,1,13
1528442595741092,7,2,-11,-27,-12,-14,-28,-21
1528442595747774,12,4,48,21,13,14,40,35
1528442595747774,-14,-2,-3,18,-2,-3,2,-4
1528442595762734,-9,-2,-2,-11,-2,1,-13,-32
1528442595762734,17,4,14,14,10,2,0,26
1528442595786331,4,0,10,17,0,-6,-8,-5
1528442595786331,-10,-19,-4,-15,-6,4,7,1
1528442595800938,13,5,3,4,3,5,-2,12
1528442595800938,-5,10,-14,-16,-7,-12,4,2
1528442595808989,-2,-12,1,23,6,1,-12,-15
1528442595808989,-7,0,-11,-1,-2,-4,-10,-19
1528442595823136,-9,5,25,6,-1,-10,-26,-20
1528442595823136,1,3,-15,-14,-10,-1,18,2
1528442595838915,0,-7,-37,-14,-3,-3,-2,5
1528442595838915,11,7,21,10,6,9,4,15
1528442595861036,0,-2,-11,-8,-11,-11,1,3
1528442595861036,-3,-1,28,18,17,6,-7,-16
1528442595868885,-6,-2,-12,29,18,4,6,-3
1528442595868885,1,4,-7,-11,-9,-5,-4,4
1528442595883329,-2,5,-7,-25,-9,1,12,13
1528442595883329,-2,-1,5,4,1,3,-6,-15
1528442595898051,0,1,2,-4,-1,-1,0,0
1528442595898051,-2,-3,2,3,0,-3,-2,-5
1528442595906261,2,1,-6,-17,-14,-6,-8,-9
1528442595906261,0,-1,3,5,1,-4,-7,5
1528442595913624,-7,-3,0,3,3,3,0,-11
1528442595913624,-2,-4,-13,-7,-5,-5,-4,-1
1528442595921371,2,1,1,-5,-3,-2,2,6
1528442595921371,5,0,-1,-1,-3,-5,-2,1
1528442595935898,2,2,4,-4,-2,1,4,4
1528442595935898,-3,-4,-10,3,2,0,-4,-7
1528442595958860,-3,-2,-7,0,0,3,0,-4
1528442595958860,0,-4,2,17,8,6,7,12
1528442595965476,0,1,-1,-6,-8,-3,-2,0
1528442595965476,-3,-3,-4,-7,-3,-5,-8,-4
1528442595988414,-4,0,-2,-2,1,-2,1,-2
1528442595988414,3,2,-25,-1,-2,-1,-1,2
1528442595995425,-1,-1,-3,-3,-4,-2,-4,-1
1528442595995425,0,-1,-4,-1,3,5,3,1
1528442596018331,2,-1,-26,-2,-1,-2,-3,-1
1528442596018331,0,0,-42,1,2,1,0,-1
1528442596034453,-1,-1,5,0,0,1,4,2
1528442596034453,2,-1,12,-2,-6,-4,-3,1
1528442596048769,-1,0,-22,-1,-1,-6,-5,0
1528442596048769,-1,-1,-14,0,1,3,3,-2
1528442596063745,-2,0,12,-1,-1,3,3,-3
1528442596063745,-2,-1,22,-1,-2,-5,-5,-1
1528442596078678,-2,-3,23,-3,-3,-2,-3,-2
1528442596078678,-1,-2,33,-1,-1,-5,-2,-1
1528442596093224,-2,3,-11,-3,-3,-3,-2,-2
1528442596093224,-4,7,2,0,-4,-7,-7,-7
1528442596108942,0,13,8,-1,-6,-8,-5,-1
1528442596108942,0,10,-4,1,1,8,4,1
1528442596123870,-2,-4,18,-4,-2,6,2,-3
1528442596123870,-1,-6,-13,1,4,1,3,2
1528442596139053,0,-6,0,1,3,11,12,3
1528442596139053,0,-3,19,0,-2,-5,-7,-3
1528442596146081,-1,-5,-12,-7,-3,-13,-11,-7
1528442596146081,-1,-4,11,2,-3,1,3,2
1528442596161060,-3,-6,-12,-1,-2,-5,-5,0
1528442596161060,0,-4,-8,-2,-2,-6,-4,-4
1528442596175762,0,-5,-15,-2,-1,4,2,-1
1528442596175762,-1,-3,-2,-1,1,0,-1,-1
1528442596190915,-2,-5,-19,-1,-2,-5,-6,-4
1528442596190915,-1,-5,-12,-3,1,-5,-2,0
1528442596197758,-1,-3,-5,-4,-2,6,4,1
1528442596197758,0,1,-1,11,3,12,5,-1
1528442596228860,-1,-5,-18,-20,-4,2,3,2
1528442596228860,0,1,2,2,1,4,1,0
1528442596235832,-1,3,3,0,-1,-8,-2,0
1528442596235832,-2,-1,-4,7,-4,-15,-12,-4
1528442596250792,-1,0,-3,-22,-7,-8,-4,-3
1528442596250792,-1,3,13,0,-2,3,2,1
1528442596265752,0,4,8,0,2,8,11,3
1528442596265752,-2,7,9,-5,0,0,-7,-5
1528442596288692,0,0,0,3,2,9,9,1
1528442596288692,-1,-7,-4,0,1,0,0,-1
1528442596296441,-3,-11,-7,1,-6,-21,-10,-3
1528442596296441,1,-2,-4,4,0,16,8,0
1528442596311400,-1,-4,-8,-5,1,4,3,2
1528442596311400,-1,-7,-16,-5,-1,4,1,0
1528442596318613,-1,0,-5,1,0,-1,-1,0
1528442596318613,-2,-2,-7,-11,-9,-20,-11,-4
1528442596326415,2,6,2,-4,0,1,0,0
1528442596326415,-2,3,-2,-5,-5,-5,-3,-3
1528442596341414,0,3,4,3,9,25,15,5
1528442596341414,2,0,2,-1,3,2,0,2
1528442596356448,-1,-3,1,2,0,2,0,1
1528442596356448,-4,-8,-7,-3,-6,-15,-11,-7
1528442596363649,-1,-8,-3,3,-5,-7,-7,-5
1528442596363649,-1,-8,-5,-1,1,5,5,-2
1528442596378562,0,0,-4,1,2,7,2,1
1528442596378562,0,-5,-11,-8,-4,-8,-5,-1
1528442596393253,0,-2,-8,6,0,-6,-8,-3
1528442596393253,-1,-7,-14,-11,-4,-6,-4,-2
1528442596400234,-1,-4,-8,2,-1,-2,-4,-2
1528442596400234,-1,-1,-5,7,-1,-2,-2,0
1528442596423172,-1,0,-1,-1,0,0,0,-1
1528442596423172,-1,1,-1,-7,-3,-1,-1,-1
1528442596431152,-2,2,3,-1,-3,-4,-4,-3
1528442596431152,0,3,8,-3,1,0,2,-1
1528442596446112,-1,3,22,-4,-2,-4,-2,-3
1528442596446112,-1,9,20,-3,-1,-6,-2,-3
1528442596461134,0,9,14,-1,1,7,4,0
1528442596461134,0,9,11,5,1,0,-4,0
1528442596468109,-3,2,-7,-3,-4,-5,-3,-1
1528442596468109,0,-1,-10,-2,-1,1,2,-1
1528442596476086,0,0,-15,1,-2,-2,0,-2
1528442596476086,-1,-3,-13,7,1,-2,-3,-1
1528442596483015,-1,-2,-16,-10,-3,-2,-3,-1
1528442596483015,-5,-4,-17,-11,-4,-1,-1,0
1528442596497974,-1,-2,-5,6,-2,-4,-2,-1
1528442596497974,1,-4,-4,1,-2,-1,-2,0
1528442596512986,-2,-4,-5,-3,-2,-1,-2,-1
1528442596512986,0,-2,0,-2,-1,-2,1,-1
1528442596520965,-1,-6,0,-1,0,-1,-3,-1
1528442596520965,-1,-3,-1,-1,-2,0,0,-1
1528442596535928,-2,-2,-1,1,-4,0,-3,0
1528442596535928,-2,4,1,-1,0,1,-3,-1
1528442596542905,0,3,2,-2,-1,0,-2,-1
1528442596542905,-1,-1,4,0,-3,-3,-1,0
1528442596557868,0,-4,3,-2,-1,-1,-1,0
1528442596557868,-1,-4,4,-1,1,-1,-2,-1
1528442596572831,0,-4,1,-2,-1,-1,1,-3
1528442596572831,-1,-6,0,1,0,0,-1,-1
1528442596580810,-1,-4,0,-2,-2,-2,-1,0
1528442596580810,-1,0,1,0,-1,-2,0,-1
1528442596595767,-2,-4,1,-2,0,0,0,-2
1528442596595767,0,0,4,-2,-2,2,1,-3
1528442596602748,-2,-6,-1,1,0,-1,0,-1
1528442596602748,-2,-4,-5,-1,0,0,-1,0
1528442596618651,-2,-1,-6,-1,-1,-1,0,-1
1528442596618651,0,-2,-2,-1,1,2,0,0
1528442596633660,0,-3,-1,-1,-1,0,-1,-2
1528442596633660,0,-2,0,-2,0,-1,0,0
1528442596640622,0,-2,-6,-2,-1,-1,0,-2
1528442596640622,0,1,-6,0,-2,-4,-2,-1
1528442596655605,-2,-1,-8,-1,-1,-1,-2,-1
1528442596655605,-2,-4,-8,-2,-1,-2,-3,-1
1528442596663585,0,-1,-2,2,0,-3,-1,-1
1528442596663585,-2,0,-1,-2,-1,-2,-1,-1
1528442596678490,-2,-1,-2,0,-1,-1,1,0
1528442596678490,-1,-3,-3,-1,-1,-2,0,-2
1528442596700431,-1,0,-5,-2,-1,-2,0,-1
