timestamp,emg1,emg2,emg3,emg4,emg5,emg6,emg7,emg8
1529314685415492,1,0,-1,-1,-1,-1,0,-1
1529314685415492,-2,-2,-1,0,-1,0,0,-1
1529314685423470,-1,0,-1,-1,-2,-1,0,0
1529314685423470,-2,0,-3,-1,0,-1,0,0
1529314685434460,-2,-2,0,0,1,0,-1,0
1529314685434460,-1,-1,0,0,-1,-1,-1,1
1529314685438431,1,-2,0,-1,1,1,0,0
1529314685438431,0,-1,0,-1,-2,-1,0,0
1529314685453389,1,0,1,0,-1,-1,0,-1
1529314685453389,0,0,-1,0,-1,1,-1,-2
1529314685461367,1,1,0,1,0,-1,-2,-2
1529314685461367,2,-1,0,0,-2,-1,-3,0
1529314685476328,-1,0,0,-1,0,0,-1,0
1529314685476328,1,0,0,0,0,0,-1,-1
1529314685483329,-1,-2,0,0,-1,-1,-2,0
1529314685483329,-2,0,-1,-1,-1,-1,-1,0
1529314685498270,-1,2,-2,0,-2,-1,-1,0
1529314685498270,0,-1,1,0,1,0,-2,-1
1529314685506248,-1,0,0,-1,0,-1,-3,-1
1529314685506248,0,0,0,0,1,0,0,-1
1529314685521210,-1,-1,-1,1,-2,-1,0,1
1529314685521210,1,0,-1,0,-1,-2,1,2
1529314685528216,-2,0,1,-2,1,0,-1,1
1529314685528216,-1,-2,1,1,1,-2,0,-1
1529314685547158,0,-1,0,-1,-1,-2,1,1
1529314685547158,-1,0,-2,-2,-1,1,-1,0
1529314685558127,0,0,0,0,0,1,-1,-1
1529314685558127,-1,-1,1,-1,-1,-2,-2,0
1529314685566105,-1,0,-1,0,-1,0,-1,-1
1529314685566105,0,-1,-1,-2,-1,0,-1,-2
1529314685581066,1,0,0,0,0,-2,0,0
1529314685581066,-1,-1,-1,-2,-1,0,-1,1
1529314685588079,0,-1,-1,1,1,0,-1,-2
1529314685588079,0,0,-2,1,1,-1,1,0
1529314685604003,-1,1,0,0,-2,1,0,1
1529314685604003,0,-1,0,-1,-1,0,-1,0
1529314685618963,-2,0,0,0,-2,-2,1,-1
1529314685618963,0,-2,-2,-1,0,-1,1,0
1529314685625971,0,-1,-3,-3,1,0,-1,-2
1529314685625971,-2,1,0,-1,-1,-1,-1,1
1529314685640942,-1,0,0,-2,0,0,0,0
1529314685640942,-1,-2,1,-1,0,-2,-1,0
1529314685650379,-1,0,-1,-1,-1,-1,0,-1
1529314685650379,0,-2,0,0,0,0,0,0
1529314685663117,1,-1,0,0,0,1,0,0
1529314685663117,-1,0,0,-1,-2,0,0,-2
1529314685678077,-2,-1,-1,0,0,1,0,0
1529314685678077,-1,0,0,0,0,-1,-1,-2
1529314685686074,1,0,0,0,-2,-2,-1,0
1529314685686074,-1,1,-1,1,-1,-2,-1,0
1529314685709992,-1,-1,-1,-1,0,-1,-1,0
1529314685709992,-2,0,0,0,-1,0,0,-1
1529314685723956,1,-1,-1,-2,1,-1,1,-1
1529314685723956,0,-2,-1,-1,0,1,-1,-1
1529314685737919,1,-1,0,0,-1,0,0,0
1529314685737919,0,0,0,0,-1,1,-1,-1
1529314685745895,-1,1,0,0,-1,-1,0,0
1529314685745895,-1,-1,-2,1,0,-1,-1,0
1529314685753875,0,-1,0,-1,-2,-2,-1,-1
1529314685753875,0,1,0,-1,-2,0,-2,0
1529314685760855,-1,0,-1,0,-1,-1,-1,-1
1529314685760855,-1,-1,-1,0,0,-1,0,-1
1529314685768835,0,0,-2,0,0,-1,-1,-1
1529314685768835,-2,-1,-1,1,-1,-1,-3,-4
1529314685783838,-1,0,0,0,0,0,-2,-2
1529314685783838,-1,-1,0,-2,0,-2,-1,-2
1529314685790825,0,-2,-2,-2,-1,2,-2,0
1529314685790825,1,2,0,0,-1,0,0,1
1529314685813716,0,1,0,-1,0,-1,-1,0
1529314685813716,-1,-1,0,-2,-1,-2,0,-1
1529314685828675,0,-2,-2,0,-1,-1,-1,0
1529314685828675,1,0,1,0,-1,0,-1,-2
1529314685835658,-2,-1,-2,0,-1,-1,1,-2
1529314685835658,1,0,-1,-2,1,0,0,-1
1529314685850619,-1,0,1,-3,-1,-1,0,-1
1529314685850619,-1,-2,-3,-2,-1,0,0,1
1529314685858594,1,-1,-2,0,0,-1,-1,-1
1529314685858594,0,-2,-1,-1,-1,0,0,-1
1529314685865578,1,0,2,0,-1,-1,0,-1
1529314685865578,-1,-2,-1,0,-1,-1,-1,-1
1529314685880587,0,-1,0,1,0,-1,-1,-1
1529314685880587,0,0,-2,-1,-2,1,-1,-1
1529314685888572,-1,0,-2,0,1,0,-1,0
1529314685888572,-1,0,-1,0,-2,-1,0,-1
1529314685903474,-1,1,0,-1,-1,2,1,-2
1529314685903474,-1,-1,0,-1,-1,-1,-1,0
1529314685910458,0,-1,1,0,-1,-2,-1,1
1529314685910458,0,1,-1,0,1,0,-2,0
1529314685926415,0,1,-1,0,0,-2,0,0
1529314685926415,-1,-1,0,-2,-1,-1,-1,-1
1529314685941374,0,-1,-1,-1,-1,-2,-1,-1
1529314685941374,0,-1,-1,-1,-2,-1,0,-1
1529314685948357,-1,-1,1,0,0,0,-2,-2
1529314685948357,-1,-2,-2,0,1,1,-2,0
1529314685963316,0,0,0,-1,-2,-1,-2,0
1529314685963316,0,0,-1,0,-1,0,-2,-1
1529314685971295,1,-1,0,-1,-1,0,-2,0
1529314685971295,1,2,0,0,-1,-1,1,-1
1529314685986255,-1,1,-1,-2,-2,0,-2,2
1529314685986255,-1,-2,0,-1,-1,-1,0,-1
1529314686001214,-1,-1,-1,1,0,-2,0,-2
1529314686001214,-1,-1,-1,-1,0,-2,0,-2
1529314686008195,-2,0,0,-1,0,1,1,-2
1529314686008195,-2,-1,-1,0,0,0,-1,0
1529314686023156,0,-1,-1,-1,-1,-2,0,-1
1529314686023156,-1,-1,0,-1,-1,0,0,-1
1529314686031134,-2,-2,-1,-2,0,0,-1,-1
1529314686031134,1,-1,0,-1,0,0,1,0
1529314686046093,-1,-2,-1,-1,-2,-3,-1,0
1529314686046093,1,-1,1,0,-1,-1,0,0
1529314686061054,0,-2,0,-2,-2,0,0,1
1529314686061054,0,1,-1,1,0,0,0,0
1529314686068035,-1,0,0,1,-1,2,1,-1
1529314686068035,-1,0,0,0,-1,0,-1,-1
1529314686082995,-1,0,-2,0,0,0,-2,1
1529314686082995,1,0,-1,0,-1,0,-1,-2
1529314686090974,-1,-1,0,-2,0,0,-1,-1
1529314686090974,-1,-1,-1,0,1,-2,-1,0
1529314686105933,0,0,-1,-1,0,1,-2,-2
1529314686105933,-1,-2,-1,-2,-1,-1,0,-1
1529314686112916,-1,-1,-1,0,-1,0,-1,-2
1529314686112916,-2,-1,-1,-1,-1,-3,-1,0
1529314686120893,-1,-1,0,-1,0,-2,0,0
1529314686120893,-1,0,0,-1,0,0,1,0
1529314686128873,2,-1,-2,-1,0,-1,-2,-1
1529314686128873,0,0,-3,-2,-3,0,0,-2
1529314686143885,2,-1,-1,-1,-2,0,0,-1
1529314686143885,-2,0,0,-1,0,0,1,0
1529314686150847,1,0,-2,0,1,0,-1,1
1529314686150847,-1,0,0,-1,0,-1,1,-1
1529314686165774,0,1,-2,0,0,-1,-1,-1
1529314686165774,0,0,1,0,-1,0,-1,0
1529314686173751,-1,-3,0,-2,1,-1,0,-1
1529314686173751,2,0,-1,0,-1,0,-1,1
1529314686180733,0,-2,0,1,1,0,0,-3
1529314686180733,-1,0,-1,-1,0,-1,-2,1
1529314686188713,-1,0,-1,-1,-1,-2,0,-2
1529314686188713,0,-1,-1,-2,1,0,-1,-1
1529314686203714,-1,1,0,-1,-2,0,-2,-1
1529314686203714,0,-2,-1,1,-1,0,-1,-2
1529314686210713,1,1,0,-1,-1,-2,0,-1
1529314686210713,-1,0,0,-1,-1,0,0,-1
1529314686225651,-1,-2,1,-1,1,-1,-1,1
1529314686225651,-1,-1,1,-3,0,-2,-1,0
1529314686233601,-1,-1,0,-1,-1,-1,0,-1
1529314686233601,-1,-1,0,-1,-1,-1,-3,-1
1529314686240613,-2,0,-2,-2,0,1,1,-1
1529314686240613,1,-1,-1,1,0,1,-2,0
1529314686248598,0,0,0,-1,-2,0,-1,1
1529314686248598,-2,0,-2,0,-1,-1,0,-2
1529314686263511,-1,-2,-1,1,-1,-1,-1,-1
1529314686263511,0,0,-1,-1,-1,-3,1,-1
1529314686270493,-1,0,-1,0,-1,-1,-1,1
1529314686270493,-1,-1,0,0,0,0,-1,-1
1529314686286451,1,-1,-2,-1,-1,0,0,-1
1529314686286451,2,-1,0,-1,-1,-1,0,0
1529314686293482,0,-1,1,-1,0,-2,-2,-2
1529314686293482,0,1,-2,0,0,-1,0,0
1529314686301411,-2,-2,-1,-1,-1,-1,-1,-1
1529314686301411,-2,-1,-1,-1,1,-1,-2,-1
1529314686308392,-1,0,-1,0,0,1,-1,-1
1529314686308392,-2,-1,0,-2,0,0,-2,-2
1529314686323351,0,0,0,-1,0,0,1,0
1529314686323351,-1,0,-1,-1,0,-2,-2,-1
1529314686331329,1,-1,0,1,-1,-1,0,-1
1529314686331329,0,1,-1,0,-2,-2,1,0
1529314686346293,-1,0,0,1,-1,-1,-1,-1
1529314686346293,0,0,-1,-1,-1,1,-1,0
1529314686353271,1,-2,0,0,1,0,-1,0
1529314686353271,0,-1,-2,0,-2,-1,-2,-1
1529314686368231,0,0,0,-1,0,-1,-2,-2
1529314686368231,0,-2,0,0,1,-2,0,-1
1529314686376211,-2,-1,-2,-1,-1,-2,-2,-1
1529314686376211,0,0,0,0,0,0,-1,-1
1529314686391210,-1,-3,-1,0,-4,-2,-2,-3
1529314686391210,-2,1,0,2,-2,0,-1,-1
1529314686398152,0,-1,-2,0,-2,-1,0,0
1529314686398152,-1,-2,0,-1,-2,0,1,0
1529314686413112,1,-1,-2,1,-1,0,-1,0
1529314686413112,0,0,-1,-2,0,0,1,-1
1529314686421145,0,0,-1,0,-1,-1,0,1
1529314686421145,-2,1,-1,0,-2,-1,1,-1
1529314686428126,0,-1,-1,0,0,-1,0,-1
1529314686428126,0,-2,-1,0,0,1,-1,0
1529314686443084,0,-1,-1,-1,0,-1,0,0
1529314686443084,0,0,-1,0,0,0,-1,-1
1529314686451064,-1,0,0,-2,0,-1,-1,-1
1529314686451064,0,-2,-1,-1,-1,0,1,-1
1529314686465971,0,-1,0,1,0,0,0,-1
1529314686465971,1,-1,1,-2,-1,0,-2,-1
1529314686473953,0,-1,-1,1,0,0,0,1
1529314686473953,1,0,-1,0,0,1,-1,2
1529314686480985,-2,-1,0,-1,0,-1,-1,1
1529314686480985,0,-2,-1,0,0,-1,-2,-1
1529314686488919,-1,0,-2,0,-2,0,-2,0
1529314686488919,0,-1,-2,-1,-1,1,0,-2
1529314686503923,-1,0,-1,0,1,-1,0,-3
1529314686503923,-1,-2,-2,-1,-1,0,0,1
1529314686510851,0,0,0,-1,2,-2,0,0
1529314686510851,0,0,0,-1,-1,-2,0,2
1529314686525865,0,-1,0,-2,0,0,-1,0
1529314686525865,-2,-1,-1,-1,-1,-1,1,0
1529314686533841,-1,-2,-1,-3,0,-1,1,0
1529314686533841,-1,-1,0,0,0,-2,0,-2
1529314686540825,0,-2,-1,-1,-2,-1,-2,1
1529314686540825,-2,0,-1,-1,0,-1,-1,-1
1529314686548803,0,0,2,-1,0,-1,-1,-1
1529314686548803,-2,0,-1,-1,0,0,-1,-1
1529314686563735,-1,0,-1,-3,1,2,0,0
1529314686563735,0,-1,-1,-2,0,0,0,0
1529314686578713,-1,-2,-3,-1,0,0,-1,-1
1529314686578713,0,-1,-2,1,0,-1,0,-2
1529314686593633,1,-1,-1,0,-1,-1,0,-2
1529314686593633,0,-2,0,-1,0,0,-2,-1
1529314686601610,-1,-1,-1,-2,-2,0,-1,0
1529314686601610,-1,1,-1,-1,-1,-2,-1,-1
1529314686608593,-1,1,-1,-1,1,0,0,-1
1529314686608593,0,0,-2,-1,-2,-1,0,-2
1529314686616659,-1,-2,0,0,0,1,-1,-1
1529314686616659,0,-2,0,0,-1,0,-1,-1
1529314686623795,0,-1,0,0,-1,-2,-2,0
1529314686623795,0,-1,0,0,-1,-1,-1,1
1529314686631712,0,0,-1,-1,-1,-2,-1,-1
1529314686631712,0,0,0,0,0,-2,0,-1
1529314686653915,0,0,-2,-2,0,0,1,-1
1529314686653915,1,0,-2,-1,0,-2,1,0
1529314686660936,-2,0,-3,0,0,0,1,1
1529314686660936,-1,-1,0,1,0,0,1,-2
1529314686668914,-1,1,-1,-1,0,-2,0,-2
1529314686668914,-1,-2,-1,1,0,-2,-1,-1
1529314686675915,1,0,0,-1,-2,1,-2,-1
1529314686675915,0,-2,0,-1,-2,-1,-1,0
1529314686698834,-1,-2,-1,0,-2,1,-1,0
1529314686698834,-1,1,0,0,-1,1,-2,-1
1529314686713795,-2,-2,-1,0,-1,-2,-2,-1
1529314686713795,-2,0,-3,1,-2,-2,-2,-2
1529314686720778,-1,0,-2,0,-2,1,-1,-2
1529314686720778,0,-1,-1,-1,0,-1,0,0
1529314686728994,-1,0,-1,-1,-2,0,-2,0
1529314686728994,-1,2,0,-2,-1,0,-1,0
1529314686736028,1,1,-1,1,1,-1,1,1
1529314686736028,-1,-1,0,-2,1,-1,-1,0
1529314686751759,-1,-1,0,0,0,0,0,-1
1529314686751759,-3,-2,0,0,-1,0,0,-2
1529314686766754,0,1,0,-1,-2,-2,0,-1
1529314686766754,-1,-1,-1,-1,0,-2,-1,-1
1529314686773938,-3,-1,-2,-1,0,-2,-3,-1
1529314686773938,0,0,-1,-1,0,-1,-1,-1
1529314686781801,0,0,-2,-1,1,0,1,-1
1529314686781801,0,-2,1,-1,1,1,0,1
1529314686788986,-1,-2,-2,-1,0,0,-1,-2
1529314686788986,-1,-1,0,2,-1,0,-1,-2
1529314686803795,-2,-1,-3,-1,1,-1,1,0
1529314686803795,0,-2,1,-2,-1,-1,0,1
1529314686810555,1,-2,0,-1,-1,0,0,-1
1529314686810555,-1,1,-1,-1,-1,1,-1,-1
1529314686833794,-1,0,1,-1,0,-1,-2,-1
1529314686833794,-2,-1,-1,0,-1,0,0,-2
1529314686841767,0,0,0,-1,1,-2,-1,1
1529314686841767,-1,0,0,0,-1,0,-1,1
1529314686849248,0,0,0,-1,0,-2,-1,0
1529314686849248,-1,0,-1,-1,0,0,2,0
1529314686856271,0,-2,0,1,-1,-2,0,-1
1529314686856271,1,1,-2,0,-1,0,1,0
1529314686870817,-1,-1,0,1,0,0,-1,-1
1529314686870817,1,0,-1,-1,0,0,-2,-1
1529314686885778,0,-1,1,1,-2,0,2,2
1529314686885778,0,-1,-1,-1,-1,1,2,-1
1529314686893756,0,-1,-1,-1,-1,-1,0,0
1529314686893756,-2,1,-1,-1,0,-1,0,0
1529314686901071,0,-1,-1,0,-2,0,-1,0
1529314686901071,1,-1,-1,0,-1,0,-1,0
1529314686908956,0,-1,-2,0,0,1,1,0
1529314686908956,-1,-3,0,0,0,-2,1,-2
1529314686923915,0,0,-1,-1,-2,1,0,-2
1529314686923915,-2,-2,0,0,-1,-1,-2,0
1529314686930897,-1,0,-1,0,-1,-1,-1,-2
1529314686930897,0,-2,0,-2,-1,0,-1,0
1529314686945618,-1,0,0,0,-1,-2,0,-1
1529314686945618,-1,-2,0,0,-1,-1,-1,0
1529314686953858,0,-1,0,-2,0,-1,-1,0
1529314686953858,-1,0,-2,-1,1,-2,-1,0
1529314686961704,0,-1,-1,-1,0,0,0,-1
1529314686961704,0,-2,0,-2,-1,0,1,0
1529314686969131,0,-2,-1,-1,-1,0,-1,0
1529314686969131,1,0,1,-2,0,-1,0,-1
1529314686984166,-1,-1,-1,0,-1,-1,-2,-1
1529314686984166,2,1,0,1,-1,-2,0,3
1529314686991371,1,0,0,0,0,2,2,0
1529314686991371,-1,-1,-1,0,-1,0,0,1
1529314687006314,-1,-1,-2,-2,1,1,0,0
1529314687006314,-1,0,-2,-1,0,0,0,-2
1529314687013051,-1,-2,0,-3,-1,-1,-1,0
1529314687013051,-2,-1,-2,0,-1,-1,-1,-1
1529314687021031,-1,-2,-1,-1,0,0,0,0
1529314687021031,-2,0,-2,-1,0,-1,-1,-2
1529314687028069,-1,-1,-1,-1,0,0,0,0
1529314687028069,1,-2,0,0,1,-1,-1,-1
1529314687043769,0,0,0,-1,-1,-1,-1,1
1529314687043769,-1,-1,0,-1,-2,1,-1,-1
1529314687051703,-2,-1,0,-2,-2,-2,-1,-1
