timestamp,emg1,emg2,emg3,emg4,emg5,emg6,emg7,emg8
1528881000349513,0,15,-5,1,-1,-3,-4,-2
1528881000349513,-4,-12,-21,-14,-8,-1,-2,-2
1528881000364493,-1,-9,-2,-1,-1,0,-2,-1
1528881000364493,3,0,-7,-5,-3,-4,-1,-1
1528881000365497,1,5,9,4,2,3,-1,-2
1528881000365497,1,4,6,3,0,-1,0,0
1528881000394423,-2,-6,-47,-4,-2,0,-2,-2
1528881000394423,-1,-5,6,0,-2,-1,0,-1
1528881000395390,-2,-5,10,-1,-3,-3,-2,-1
1528881000395390,0,4,13,4,2,0,-2,-1
1528881000400397,2,6,5,6,4,1,2,-5
1528881000400397,-8,5,27,-3,-4,-4,-5,-15
1528881000409352,-4,-17,-38,-11,-7,-1,0,38
1528881000409352,10,-8,-10,-5,-3,-4,-7,-15
1528881000423350,4,9,33,9,2,5,2,4
1528881000423350,8,27,64,19,11,-1,6,6
1528881000430349,-13,-27,-27,-21,-7,-3,0,-12
1528881000430349,-2,-9,-3,-5,-7,-8,-11,-8
1528881000446254,0,16,25,4,3,2,2,-1
1528881000446254,1,9,14,-3,-6,-7,-6,-5
1528881000448251,6,11,29,10,10,6,2,1
1528881000448251,-1,7,-12,1,2,2,4,9
1528881000460216,-8,-21,-17,-9,-7,-5,-5,-9
1528881000460216,-4,-4,-15,1,0,2,1,4
1528881000469193,1,6,-11,2,2,1,1,-4
1528881000469193,-5,-1,-8,-1,4,0,2,-2
1528881000483158,2,9,49,6,0,-1,-3,3
1528881000483158,-3,-26,-58,-9,-4,-1,3,3
1528881000490164,-2,2,-28,-8,-4,-9,-7,-12
1528881000490164,-3,0,0,0,-2,-1,-1,2
1528881000507092,2,3,0,4,1,2,0,4
1528881000507092,6,5,16,4,4,3,4,5
1528881000508090,-6,-12,13,-4,-7,-5,-6,-13
1528881000508090,-4,6,5,-4,-3,0,1,2
1528881000520057,-11,-35,-45,-19,-11,-6,-6,-4
1528881000520057,-1,-2,-13,1,0,-2,-1,-2
1528881000535070,3,8,21,14,9,6,3,0
1528881000535070,1,11,38,8,2,2,2,-6
1528881000543048,-10,-9,-48,-6,-4,-1,-1,4
1528881000543048,15,0,10,-3,-4,-4,-4,4
1528881000549978,2,21,32,7,2,1,0,2
1528881000549978,0,-4,-12,-1,-3,1,0,2
1528881000566932,0,8,10,3,4,3,2,-7
1528881000566932,-7,-5,-11,-5,-2,-2,-2,-3
1528881000567929,4,3,14,4,-3,-4,-2,0
1528881000567929,-10,-40,-61,-7,-1,-1,-1,-5
1528881000588875,2,8,46,-4,-4,-3,-1,1
1528881000588875,-3,2,-66,-7,0,3,0,0
1528881000590881,-2,-4,10,3,-3,-8,-3,-3
1528881000590881,-3,4,-17,-4,1,1,0,2
1528881000603833,1,-6,5,0,0,-3,-2,-2
1528881000603833,-1,2,9,8,7,2,2,3
1528881000610842,8,0,-78,-9,0,1,1,-6
1528881000610842,-27,-17,57,0,-7,-6,-4,-14
1528881000626810,13,-27,-102,-22,-9,-6,-6,11
1528881000626810,-20,0,46,2,-6,-2,-2,4
1528881000627810,10,12,28,10,4,0,1,1
1528881000627810,9,8,-30,6,5,3,2,7
1528881000649711,3,9,73,9,7,7,4,4
1528881000649711,-6,-22,-44,-11,-4,-3,-3,-10
1528881000650708,-4,-13,12,-4,-4,-2,-3,-3
1528881000650708,-2,-2,-21,-8,-4,-3,-3,2
1528881000663672,-3,-1,40,15,4,0,-1,-6
1528881000663672,12,10,-7,4,3,3,5,4
1528881000670654,-15,-30,10,-11,-6,-4,-3,-6
1528881000670654,4,3,-72,-6,-2,-2,-1,-3
1528881000686639,-3,-8,-9,-3,-1,0,0,-2
1528881000686639,-1,-1,45,1,-3,-3,-2,2
1528881000688624,7,48,-11,3,5,2,-1,3
1528881000688624,-4,-25,53,16,7,4,1,-7
1528881000709584,-16,16,6,-9,-9,-9,-4,-26
1528881000709584,10,15,-48,-5,1,3,10,55
1528881000710547,10,-48,9,-3,-5,-5,-9,-18
1528881000710547,15,16,-50,-4,1,-2,-15,2
1528881000722573,-7,16,15,8,1,0,0,-18
1528881000722573,-9,-15,26,9,4,-2,-10,-21
1528881000730552,10,17,4,-1,1,2,6,15
1528881000730552,0,-2,61,-5,-5,0,-1,7
1528881000746493,9,1,-17,-2,1,-3,0,-6
1528881000746493,-1,-22,-21,-14,-12,-7,-6,-15
1528881000746493,-5,-19,-21,2,-1,-2,1,2
1528881000746493,3,35,15,0,2,-1,2,-5
1528881000768418,-11,10,-23,-10,-3,5,2,8
1528881000768418,-2,15,-4,7,6,3,1,-7
1528881000769391,-7,-11,-24,-7,-5,-3,-3,-11
1528881000769391,2,-5,-35,-14,-12,-4,-2,2
1528881000782357,-1,-22,-9,-2,-9,0,-1,10
1528881000782357,-3,11,26,16,13,1,1,-8
1528881000790335,-15,-37,-27,-7,-1,2,-2,0
1528881000790335,-1,12,46,-1,-2,-6,-6,5
1528881000806291,-1,-12,-2,-6,-1,1,4,3
1528881000806291,6,-15,3,-10,-9,4,1,-4
1528881000806291,-22,-77,19,-3,-8,-9,-5,-11
1528881000806291,0,9,4,0,4,5,5,-1
1528881000828291,12,4,8,6,4,-10,-4,3
1528881000828291,-5,5,-11,-8,-6,6,-3,-3
1528881000829232,4,34,26,-2,0,-22,-1,6
1528881000829232,-4,-22,-3,2,-2,14,1,6
1528881000843479,-32,-9,50,18,11,24,14,-7
1528881000843479,2,14,-48,-11,-4,-12,-3,-9
1528881000850176,-1,35,-15,1,1,-6,1,-17
1528881000850176,19,9,-14,0,-1,-12,-16,31
1528881000866133,27,1,5,-2,-3,31,19,1
1528881000866133,-26,-25,16,-7,0,0,0,-2
1528881000867131,-11,21,21,10,4,9,-2,-4
1528881000867131,-8,-7,-42,5,2,-16,-4,-18
1528881000888316,3,-9,-12,-6,-5,-11,-12,4
1528881000888316,3,-6,-21,-6,-5,-2,-4,-7
1528881000889071,19,35,10,8,-1,4,4,12
1528881000889071,3,0,28,11,17,13,13,6
1528881000903528,5,34,25,14,6,0,-3,8
1528881000903528,4,11,-32,-15,-4,-9,-3,-3
1528881000910289,-26,14,-14,-5,-9,-12,-16,-19
1528881000910289,2,-17,-33,-8,-11,22,6,-7
1528881000934329,24,-21,-5,-15,-7,-12,-2,-4
1528881000934329,-18,26,26,22,9,-26,-1,35
1528881000934329,-18,0,-2,-1,4,20,9,-4
1528881000934329,-30,-27,17,1,5,14,6,11
1528881000949048,21,16,-1,6,10,15,-13,-51
1528881000949048,1,-10,-51,-25,-17,-17,-6,-8
1528881000949048,19,33,41,2,5,-4,7,12
1528881000949048,0,-37,-3,2,-3,-28,-1,10
1528881000978863,-25,8,-2,-8,-10,-18,-15,7
1528881000978863,4,-19,61,4,-1,4,-4,-12
1528881000979857,11,-21,9,-9,-7,12,5,2
1528881000979857,4,-14,4,4,-2,0,4,-10
1528881000994230,3,60,9,6,11,-8,-4,9
1528881000994230,-5,14,14,2,-2,17,17,1
1528881000994230,-7,-5,-53,-3,-6,0,-24,3
1528881000994230,-12,35,80,-4,-8,10,15,-6
1528881001009023,-11,-56,-72,9,12,-9,-2,-4
1528881001009023,-4,12,-20,-2,-5,-6,-7,-20
1528881001009776,7,-17,-28,-9,0,-15,-6,3
1528881001009776,-9,-30,28,4,-1,19,-9,-20
1528881001031767,6,11,-13,-2,-10,2,-1,37
1528881001031767,-12,5,46,2,4,10,26,-8
1528881001031767,6,-33,-6,-5,-4,-6,-14,-4
1528881001031767,26,7,-27,-14,1,-22,-6,-9
1528881001054965,-34,-27,31,11,-3,-2,8,14
1528881001054965,13,0,-33,-6,-5,0,-19,-6
1528881001054965,-15,15,12,10,11,-5,5,-3
1528881001054965,2,7,-11,-2,4,14,2,-5
1528881001069168,12,21,-5,-10,-11,-13,-5,2
1528881001069168,5,-14,21,0,-6,18,1,14
1528881001070063,12,5,30,-1,-3,2,-4,2
1528881001070063,-9,12,-19,2,0,-31,-7,-2
1528881001091485,22,20,23,-2,2,4,6,-18
1528881001091485,-22,-31,-4,7,3,-32,-11,-21
1528881001092158,-18,2,-34,-12,-2,0,-10,21
1528881001092158,3,7,16,-3,-13,19,6,-2
1528881001114128,-7,-61,-46,-10,-7,18,19,3
1528881001114128,22,-15,40,0,4,-10,10,4
1528881001115123,-7,-10,2,10,8,13,11,-10
1528881001115123,4,16,-3,4,7,-9,-5,7
1528881001130106,-2,13,2,-6,-6,-24,-17,-4
1528881001130106,-17,12,20,5,-3,1,-14,-6
1528881001131277,3,-24,-26,2,-1,0,9,1
1528881001131277,5,22,-15,-12,-5,-6,-9,-6
1528881001151027,-1,-7,-6,-6,-4,6,-2,8
1528881001151027,19,-2,26,15,9,12,1,9
1528881001152017,-10,33,-2,-2,-2,22,10,3
1528881001152017,-19,-11,-2,5,7,4,21,-7
1528881001174181,-8,-21,-5,-7,2,7,2,-2
1528881001174181,1,-21,-33,3,-7,-16,-14,1
1528881001174935,13,20,16,1,-4,-30,-14,-2
1528881001174935,0,1,-20,-8,-10,11,0,-2
1528881001188918,-1,15,7,3,4,1,-2,-11
1528881001188918,3,8,-17,-3,2,5,8,12
1528881001190073,4,-23,16,-17,-3,-8,0,-6
1528881001190073,-6,3,31,6,-2,-6,-12,12
1528881001211085,-7,-6,3,-6,-9,-30,-25,-13
1528881001211085,-2,-18,12,-5,0,39,17,-12
1528881001211837,6,17,-34,-21,-5,-27,3,-20
1528881001211837,15,13,1,19,12,35,7,24
1528881001233779,-16,-40,-4,0,-3,-22,-7,2
1528881001233779,1,16,14,-3,-5,-16,-20,-6
1528881001234955,9,-2,-13,4,-7,0,10,12
1528881001234955,14,4,4,-11,-6,-11,7,-10
1528881001249254,-1,21,-7,14,6,0,5,4
1528881001249254,4,6,15,7,12,4,1,5
1528881001249254,-12,-6,-11,-9,-6,4,-11,-6
1528881001249254,1,4,-23,-10,-14,-28,-10,-3
1528881001271201,-5,-24,-10,-39,-24,25,7,0
1528881001271201,7,17,24,20,21,2,6,0
1528881001271939,-2,4,24,26,21,13,10,12
1528881001271939,-7,3,-36,8,7,-26,-16,-4
1528881001293518,0,24,12,-5,-7,10,-2,-7
1528881001293518,-7,-9,-25,-27,-28,-19,-4,3
1528881001294508,4,1,19,-2,-1,17,12,4
1528881001294508,-3,-3,44,11,12,2,0,-2
1528881001308693,4,4,-41,6,6,-9,-11,1
1528881001308693,1,3,-27,-3,-1,-10,2,1
1528881001309467,-5,-7,37,0,-14,-2,-6,5
1528881001309467,-5,-9,-22,-16,-9,48,38,-7
1528881001331631,-8,34,46,14,12,-16,9,4
1528881001331631,3,-29,-13,18,13,9,-2,-8
1528881001332489,-14,-14,-8,-13,-1,-30,-22,-10
1528881001332489,-13,-24,6,-3,-10,-23,-15,2
1528881001354090,10,2,-56,-18,-11,14,-11,1
1528881001354090,4,33,0,-7,-11,-9,2,1
1528881001354761,4,9,-8,21,22,13,4,-4
1528881001354761,4,10,15,-2,1,0,-1,7
1528881001368847,3,-4,0,10,8,-4,-5,5
1528881001368847,-11,-19,-34,-6,-11,-16,-8,-3
1528881001369737,0,-7,-10,-11,-15,2,-12,-4
1528881001369737,7,4,21,-9,-1,19,33,19
1528881001390697,-6,7,24,12,6,-14,8,-5
1528881001390697,-12,-30,10,-7,7,8,-4,4
1528881001391662,9,8,-15,0,-14,-9,-4,-12
1528881001391662,3,11,-2,21,9,-36,-20,0
1528881001413604,0,-20,1,-9,-3,21,9,9
1528881001413604,0,10,13,-14,-9,-2,2,1
1528881001414601,8,11,-4,7,5,14,15,1
1528881001414601,-15,-29,26,11,-6,-20,-26,-19
1528881001429014,3,12,-16,-16,10,-1,5,7
1528881001429014,-7,9,3,3,8,24,4,-23
1528881001430013,8,10,26,-23,-12,-17,-5,32
1528881001430013,2,-4,-30,5,-19,2,-14,-15
1528881001450988,1,-7,-27,8,19,-26,-16,-15
1528881001450988,0,13,-11,-3,2,-17,-11,17
1528881001451955,-7,-5,61,13,5,82,39,-10
1528881001451955,1,-6,-18,-23,-10,-16,-3,0
1528881001473913,-4,-5,45,21,-21,14,3,2
1528881001473913,10,23,-12,-24,10,-26,-23,-1
1528881001474893,1,-20,7,51,29,10,14,-1
1528881001474893,-21,-19,-18,-17,8,14,3,-17
1528881001488500,7,-15,-14,-12,-16,-14,-5,-8
1528881001488500,-2,9,-2,-28,-19,9,-2,-2
1528881001489958,-7,-1,12,14,-4,-25,-16,-4
1528881001489958,1,-14,-1,12,1,-19,-16,5
1528881001510905,-1,18,-32,3,3,15,6,-11
1528881001510905,2,-2,68,6,-19,16,16,1
1528881001511916,-19,-6,-61,-23,0,-9,-9,-5
1528881001511916,10,25,5,7,21,30,17,7
1528881001535105,3,-10,54,7,0,-23,-17,-2
1528881001535105,-2,-3,-9,11,12,9,2,6
1528881001536121,3,31,13,-12,-15,-14,-4,-18
1528881001536121,-1,-11,-37,-22,-19,-15,-9,-2
1528881001549065,-4,9,6,5,4,0,3,1
1528881001549065,8,-8,-2,27,13,10,6,-2
1528881001549065,0,-24,-11,-7,1,-13,-5,6
1528881001549065,2,23,20,-19,2,0,5,0
1528881001571359,0,-9,-6,25,8,13,9,4
1528881001571359,-17,-4,-25,-26,-16,-21,-14,-1
1528881001572040,7,-12,-43,-9,-22,-19,-18,-4
1528881001572040,-24,-4,58,16,23,21,14,-5
1528881001594932,-2,-19,-89,-19,-3,-49,-26,-6
1528881001594932,-7,10,3,3,1,100,34,-1
1528881001595785,9,-9,66,7,-2,-31,-4,6
1528881001595785,8,-22,-69,-18,-17,-30,-16,-1
1528881001607745,-9,8,51,8,1,4,-2,1
1528881001607745,3,-5,-35,0,1,-28,-9,-8
1528881001616017,5,34,15,-6,7,7,11,2
1528881001616017,-14,-69,13,5,-7,10,4,-2
1528881001631223,-2,2,2,-5,-6,-2,-3,4
1528881001631223,6,-7,-3,-20,2,-3,-3,-5
1528881001632242,-5,11,-27,30,0,12,7,4
1528881001632242,3,15,-11,2,-7,-20,-13,-4
1528881001654586,-9,1,20,-15,-4,16,-6,-4
1528881001654586,8,5,-15,2,4,3,17,10
1528881001655213,0,-3,22,-34,-4,5,-8,-4
1528881001655213,2,25,-8,20,8,-13,-9,6
1528881001668667,5,-2,18,21,6,-9,15,-2
1528881001668667,-5,3,14,-9,-11,18,-25,-4
1528881001676776,-15,-11,-41,-4,-4,-17,-11,-33
1528881001676776,-3,0,-21,-7,0,-28,-15,0
1528881001691770,11,5,22,-13,8,67,33,-1
1528881001691770,-14,-7,-5,16,-3,-35,-2,2
1528881001692620,8,5,-4,-3,2,4,3,5
1528881001692620,5,2,47,4,-4,-7,-12,-12
1528881001714755,-2,-3,-67,-17,-8,-11,-6,1
1528881001714755,2,12,33,-7,0,-1,0,7
1528881001715343,-8,-61,-2,14,6,9,11,8
1528881001715343,8,23,6,8,-2,0,2,-1
1528881001728671,-7,-6,-5,-2,4,-2,-3,4
1528881001728671,1,3,-7,-2,-8,-15,-6,-4
1528881001736550,1,13,21,7,3,11,4,7
1528881001736550,12,12,-5,-19,5,21,6,4
1528881001751510,-5,-8,16,29,7,3,-2,-1
1528881001751510,-7,-24,-29,-16,-10,-41,-18,-12
1528881001752493,-10,-13,-7,-4,-5,22,8,9
1528881001752493,-5,-5,9,2,15,39,35,1
1528881001774657,12,26,4,-13,-8,-9,-3,0
1528881001774657,-4,2,1,9,1,-19,-14,-2
1528881001775516,3,2,-20,-4,-5,-6,-8,-4
1528881001775516,6,-16,10,-12,-9,11,12,3
1528881001787747,-20,-15,-13,-14,-3,-4,-5,-5
1528881001787747,20,18,19,26,8,-15,-3,4
1528881001796725,-10,-20,-35,-13,-14,0,-7,-9
1528881001796725,10,28,-1,-16,1,13,8,2
1528881001811465,7,15,16,-11,4,-6,-2,0
1528881001811465,-11,-49,5,31,8,9,3,-2
1528881001812421,5,20,-7,-9,-5,-29,-16,5
1528881001812421,-14,-19,-29,-12,-13,5,-7,-28
1528881001841579,4,10,9,4,-2,6,3,-8
1528881001841579,4,13,3,-5,-1,1,3,8
1528881001842340,0,0,3,-10,2,2,2,-3
1528881001842340,-10,-5,10,3,-4,-21,-11,2
1528881001847327,-2,0,10,16,-6,2,0,-4
1528881001847327,-9,1,-7,-2,2,7,-7,-3
1528881001856305,2,2,7,-8,2,-4,4,-1
1528881001856305,0,7,-16,5,1,-2,7,11
1528881001871262,6,-13,-13,-18,-3,2,-7,-4
1528881001871262,-1,0,26,14,-4,-22,-11,9
1528881001872267,2,-4,-12,17,8,20,7,5
1528881001872267,-15,-3,3,-4,-4,7,12,-12
1528881001894254,-1,1,-13,-1,-3,-18,-2,11
1528881001894254,1,-27,-7,-7,-2,13,11,-6
1528881001895255,0,10,5,-15,-3,-34,-24,-1
1528881001895255,2,-9,23,3,-4,13,-12,-9
1528881001908219,-4,-9,-24,-2,0,10,17,10
1528881001908219,1,8,-10,-17,-6,-7,-1,-6
1528881001916143,5,9,-2,8,1,2,-3,2
1528881001916143,1,-12,27,9,1,-18,-7,5
1528881001931137,-3,10,-1,-8,-8,-17,-3,-5
1528881001931137,1,-4,-31,-6,2,30,2,-9
1528881001932134,-12,-30,8,-15,-6,-9,-6,-3
1528881001932134,5,16,-3,14,5,-7,-4,7
1528881001954096,-6,-18,4,2,-5,-2,-10,-2
1528881001954096,-6,22,13,-7,-9,-42,-10,-3
1528881001955051,-7,3,7,-10,-2,62,30,4
1528881001955051,9,2,-6,8,6,-11,-4,2
1528881001977035,0,2,-5,5,5,-19,-8,9
1528881001977035,-5,-4,32,-5,-5,9,6,-8
1528881001978013,4,1,-7,0,1,-15,0,-5
1528881001978013,-5,4,3,-2,7,17,9,4
1528881001998922,5,-2,-25,-5,-5,6,2,-1
1528881001998922,1,-4,-7,11,1,-40,-23,2
1528881001999919,-8,11,28,-4,-4,22,10,-5
1528881001999919,3,-7,-32,7,1,6,-1,-1
1528881002013882,-1,-1,30,-10,-7,-15,-9,4
1528881002013882,1,-8,-43,-2,1,9,4,1
1528881002014879,4,0,9,2,-3,-7,-8,-1
1528881002014879,-4,15,-11,-7,-9,-18,-12,-5
1528881002036874,-3,-5,0,1,4,7,1,-7
1528881002036874,-2,3,11,2,5,28,17,6
1528881002037870,3,6,-3,5,6,-5,2,-3
1528881002037870,-3,-4,7,-1,-7,-17,-15,1
1528881002058816,3,-3,10,-13,-8,5,9,1
1528881002058816,-7,3,-16,-1,-1,13,8,-2
1528881002059797,-1,-5,-8,-7,2,-8,-8,-4
1528881002059797,-1,-12,-11,17,-3,6,11,-2
1528881002073781,6,11,17,11,4,-1,-12,-3
1528881002073781,-14,-23,-22,-1,1,4,4,-6
1528881002074773,10,8,-10,-9,-1,-12,-6,1
1528881002074773,-7,5,-11,-5,0,-3,1,6
1528881002096714,1,-13,-1,3,2,9,2,-5
1528881002096714,-3,11,12,2,1,3,1,-3
1528881002097717,-6,-9,-3,-4,-3,-18,-8,3
1528881002097717,1,6,7,-4,-4,9,2,0
1528881002110666,-3,-13,-13,1,-4,0,1,-6
1528881002110666,4,-2,21,-1,0,-10,-2,0
1528881002111622,-2,-4,-5,6,0,6,-4,-2
1528881002111622,1,3,7,0,4,-1,3,1
1528881002134615,-4,-3,-7,-7,-4,-19,-12,-3
1528881002134615,9,6,-8,-3,-3,22,10,0
1528881002134615,4,0,36,7,2,-5,7,-2
1528881002134615,-8,5,-25,-1,-2,-4,-6,-7
1528881002156501,-6,-6,-7,-3,0,1,0,1
1528881002156501,0,11,16,2,-2,-9,-4,1
1528881002157498,3,-2,-15,2,-1,3,5,2
1528881002157498,6,-3,26,-3,1,-1,0,4
1528881002171460,-2,15,-7,-1,-2,-3,-4,-14
1528881002171460,8,4,-19,-6,-4,-3,-1,3
1528881002172526,-5,1,-2,8,-2,1,-5,-7
1528881002172526,4,17,-12,-5,-5,-7,-1,5
1528881002194641,0,-12,-5,-1,0,10,7,9
1528881002194641,2,-14,6,-1,3,-1,2,-5
1528881002195657,0,9,3,-1,-1,-5,-6,3
1528881002195657,-7,-14,1,-3,0,-5,-5,-8
1528881002216342,4,14,19,2,-1,-2,-4,1
1528881002216342,-3,-10,-19,-8,-1,6,1,0
1528881002217339,-5,0,2,-6,-7,-12,-2,-3
1528881002217339,-2,0,-2,12,11,12,1,3
1528881002231302,0,-11,4,-4,-1,8,5,0
1528881002231302,-5,0,3,4,-1,-7,-3,-3
1528881002232299,-5,0,-9,-7,-5,-11,-8,-2
1528881002232299,-1,-10,-3,-6,-5,1,4,-9
1528881002254698,3,-2,-4,-5,-6,-3,-5,7
1528881002254698,-10,-4,1,0,0,5,-1,-10
1528881002254698,4,2,-7,6,7,-4,-1,0
1528881002254698,-6,-13,-5,-5,-8,-5,-4,2
1528881002276877,15,9,1,3,0,3,4,9
1528881002276877,1,19,6,0,2,0,-4,-17
1528881002277619,-29,4,-2,2,-3,2,-5,-7
1528881002277619,5,-4,1,-1,-2,-6,0,-2
1528881002291723,-9,9,-3,-4,2,2,1,-4
1528881002291723,14,-2,-1,0,-2,-2,1,12
1528881002292611,4,2,-3,10,4,-2,-1,-7
1528881002292611,-5,-3,-11,-11,-7,-8,-8,-4
1528881002314295,-5,-6,0,-2,-5,-1,0,0
1528881002314295,-4,-7,1,-4,3,1,1,-4
1528881002315052,1,-8,0,11,4,-9,-5,-1
1528881002315052,0,17,2,-6,-4,4,0,7
1528881002337254,0,-6,2,6,0,4,7,-1
1528881002337254,-3,2,-4,-10,-7,-8,-7,-1
1528881002337997,3,-7,-6,-1,7,7,6,5
1528881002337997,3,-5,3,-2,-5,-15,-4,1
1528881002351219,-6,-1,1,4,1,5,-8,-9
1528881002351219,-7,-16,-5,-1,-3,-3,-1,-1
1528881002351954,3,-2,-3,-7,-6,-9,2,8
1528881002351954,0,3,3,0,1,17,2,-5
1528881002374888,-8,-8,-3,-4,-3,2,6,-3
1528881002374888,-2,-1,-8,-1,-2,7,7,4
1528881002374888,3,5,7,-2,-2,-4,-6,-1
1528881002374888,-2,-7,-4,-4,0,-3,-3,0
1528881002397302,1,9,-1,0,1,-4,-2,1
1528881002397302,3,-8,2,0,-1,-1,-3,2
1528881002398332,-1,5,-7,-7,-8,-1,0,-4
1528881002398332,-1,7,1,-4,-9,-1,-3,-4
1528881002410296,-5,-6,10,12,12,4,4,-6
1528881002410296,2,1,7,8,10,-2,-1,10
1528881002419224,-2,-23,-28,-12,-7,2,0,1
1528881002419224,-4,9,-1,5,-1,-1,-5,-3
1528881002434191,1,3,-3,-2,-10,-10,-2,-1
1528881002434191,-2,8,8,0,3,3,-3,-5
1528881002436208,3,-13,-4,3,4,4,3,3
1528881002436208,-3,16,10,-3,-2,-7,-2,-3
1528881002457215,-1,-21,-21,-7,-6,-4,-1,-2
1528881002457215,-1,3,-2,-3,-7,-3,0,-1
1528881002459177,0,10,7,-2,-3,1,0,1
1528881002459177,1,-14,-12,-2,0,-1,1,1
1528881002471907,-7,2,9,-5,-3,-5,-8,-4
1528881002471907,2,5,-7,1,0,-2,-1,2
1528881002480147,0,-4,6,-2,2,5,3,0
1528881002480147,1,-4,-29,5,2,-2,-1,2
1528881002493896,-5,9,31,-3,0,-5,-2,-2
1528881002493896,2,-5,1,-1,-5,1,-1,0
1528881002495849,2,9,11,3,0,1,0,-2
1528881002495849,-2,-9,-9,-3,-1,-3,-3,-2
1528881002516819,-2,-13,-11,-4,-2,-2,2,0
1528881002516819,-2,-1,0,-1,-2,2,0,-2
1528881002518782,0,8,15,2,0,3,0,-1
1528881002518782,2,-5,-1,-1,1,-2,0,0
1528881002531017,0,0,-14,1,1,2,1,0
1528881002531017,-1,14,16,-1,-1,-5,1,-1
1528881002539726,-4,-8,8,-4,-3,-1,-4,-2
1528881002539726,0,-7,-1,-8,-3,0,-2,-1
1528881002555076,-1,8,-5,7,2,0,-3,-2
1528881002555076,-1,-7,-23,-4,-2,-1,-2,-3
1528881002555684,-3,-2,3,8,-1,-1,-1,-1
1528881002555684,1,0,5,7,5,1,0,0
1528881002577470,-1,-7,3,-10,-5,0,-2,-3
1528881002577470,-3,-7,-21,0,1,0,-1,1
1528881002578169,0,-2,3,-10,-6,-1,-2,-3
1528881002578169,-4,0,24,3,-2,-2,-2,-2
1528881002591140,1,3,-14,4,3,-1,-1,0
1528881002591140,0,0,6,0,-1,-1,0,1
1528881002599147,1,-4,-15,-2,2,-1,0,1
1528881002599147,-2,-3,-2,-2,-2,-2,0,0
1528881002614617,-1,-1,13,-2,-2,-1,0,0
1528881002614617,-3,-5,-5,-2,-1,-2,-3,-2
1528881002615632,-2,-5,-10,0,-2,-1,-2,-3
1528881002615632,1,-4,6,-1,-2,-1,0,0
1528881002644533,0,-1,-6,1,-2,1,0,-1
1528881002644533,0,-4,1,-2,-2,-4,1,-2
1528881002646466,1,-4,-5,-2,0,-1,0,-1
1528881002646466,-1,-1,0,0,-1,-1,-3,-3
1528881002650279,0,3,-4,-1,0,0,0,0
1528881002650279,-2,-1,9,0,-3,-2,-2,-2
1528881002659550,-4,-8,-5,-3,0,-2,-2,-2
1528881002659550,1,4,12,-2,0,0,-1,0
1528881002674818,-2,-4,-16,2,1,-1,-1,-1
1528881002674818,-3,-6,17,4,-1,-2,-2,-3
1528881002675779,0,-2,-5,-4,-1,0,-2,-1
