timestamp,emg1,emg2,emg3,emg4,emg5,emg6,emg7,emg8
1529301533651344,3,-2,-6,9,0,3,1,3
1529301533651344,3,2,-13,-16,-3,1,2,-2
1529301533666286,14,8,31,26,13,13,7,10
1529301533666286,9,4,0,3,21,7,7,6
1529301533673268,-10,-21,-47,-41,-45,-17,-9,-4
1529301533673268,-11,-11,-9,-8,-11,-8,-6,-6
1529301533681219,-16,-7,13,8,-15,-11,-9,-10
1529301533681219,1,0,0,4,0,-1,-3,-5
1529301533688241,5,1,8,-4,17,5,6,5
1529301533688241,-8,21,16,22,4,1,-2,-10
1529301533704158,9,-6,-42,-30,8,5,3,7
1529301533704158,2,4,30,8,-4,0,0,3
1529301533711192,-9,-13,-21,23,0,-4,-5,-8
1529301533711192,6,-13,-21,-60,-12,-5,-2,8
1529301533726099,3,26,40,14,-2,5,5,0
1529301533726099,2,11,7,37,14,3,5,-4
1529301533734077,2,14,-7,-35,-13,-3,0,9
1529301533734077,-4,-9,-4,20,3,-4,-4,-12
1529301533749038,-12,29,42,10,-2,-3,-4,-12
1529301533749038,43,49,26,50,24,8,4,16
1529301533763997,12,14,-15,-36,-17,2,6,7
1529301533763997,-9,-37,-15,40,3,-5,-8,-6
1529301533770980,-23,-56,-55,-16,-6,-7,-4,-8
1529301533770980,-7,24,-2,-13,-5,3,-3,-12
1529301533785943,25,30,44,47,29,17,10,20
1529301533785943,-1,-10,-10,-20,-4,1,4,4
1529301533793917,-16,-5,22,9,3,2,2,-6
1529301533793917,-9,-4,24,15,2,-4,-1,-5
1529301533808884,94,22,-5,27,16,6,3,10
1529301533808884,-34,-24,-37,-84,-23,-3,-1,0
1529301533823839,64,16,-14,-2,0,-1,-4,5
1529301533823839,-12,13,9,13,-3,-4,-5,-2
1529301533830819,-33,0,12,42,17,1,-2,-4
1529301533830819,-11,14,65,32,14,6,6,-2
1529301533845782,-22,-37,-10,2,-9,-2,2,2
1529301533845782,-15,-12,-84,-106,-36,-10,-3,-6
1529301533853759,9,1,43,22,-6,-6,-8,-10
1529301533853759,39,-8,-39,-27,-6,-3,-3,0
1529301533868718,-17,-20,-60,-49,-12,-5,-3,-5
1529301533868718,-31,-39,-21,3,-10,-6,-3,-6
1529301533883677,-25,-1,-20,-25,-4,0,1,-8
1529301533883677,25,22,56,49,15,6,0,0
1529301533898638,-48,-24,-8,2,7,7,8,9
1529301533898638,24,7,12,6,5,2,1,-20
1529301533913597,15,-20,-44,9,8,1,1,7
1529301533913597,23,52,44,-40,-21,-3,0,1
1529301533921586,41,41,74,2,-2,3,1,28
1529301533921586,-17,-9,-15,31,-5,-2,3,8
1529301533936536,-14,-17,-45,-11,-19,-11,-5,-11
1529301533936536,-6,-2,12,29,-1,2,2,6
1529301533951497,-1,2,-16,-28,-8,-2,2,-3
1529301533951497,13,14,16,19,8,5,1,10
1529301533966464,5,6,8,-1,4,10,2,7
1529301533966464,2,7,20,21,4,2,1,0
1529301533973438,2,7,14,11,10,0,2,-4
1529301533973438,-2,-14,-22,-27,-1,-5,-3,2
1529301533988425,-1,2,-5,1,2,-1,0,-7
1529301533988425,-12,-10,-4,0,-1,0,1,-3
1529301534011337,3,11,-2,-17,0,-4,-2,1
1529301534011337,-4,-8,-6,10,7,-2,-1,-6
1529301534018319,2,-1,10,7,9,3,2,0
1529301534018319,11,12,20,5,2,4,1,9
1529301534033278,-7,-4,-6,1,2,3,3,1
1529301534033278,-3,-9,-14,-9,-29,-8,-8,-6
1529301534041256,-1,5,10,6,7,8,2,-1
1529301534041256,0,0,-3,-3,0,-5,-5,-2
1529301534063200,2,7,16,15,21,10,12,-1
1529301534063200,-1,-1,-8,-7,-9,-17,-29,-4
1529301534071177,-1,1,-5,-3,10,-6,-2,-4
1529301534071177,-5,-1,5,4,9,-1,-1,-4
1529301534078206,1,-1,20,27,31,12,10,8
1529301534078206,-3,-6,-11,-15,-45,-7,6,2
1529301534093119,-3,0,-6,-6,-16,2,1,-2
1529301534093119,-3,-4,-1,0,-49,-9,-7,-4
1529301534101096,12,11,2,-5,-29,-9,-11,-2
1529301534101096,5,-5,-9,-12,-11,1,4,4
1529301534116057,1,4,2,-12,-20,-3,-3,0
1529301534116057,11,8,12,14,17,10,2,7
1529301534124066,-5,-6,-6,5,-1,-1,-4,-3
1529301534124066,7,4,3,7,37,12,6,3
1529301534131071,-6,-5,-8,4,4,-5,-3,-3
1529301534131071,-3,0,-12,-37,0,-7,-3,-3
1529301534154007,-3,-6,-3,7,-6,0,-1,-1
1529301534154007,6,1,5,14,17,3,2,6
1529301534160936,-5,-10,-26,36,26,11,6,7
1529301534160936,10,17,30,19,26,13,16,10
1529301534175920,13,-8,-32,-103,-46,-13,-5,7
1529301534175920,4,-1,-5,36,38,-1,-1,-1
1529301534190856,-27,-11,-2,40,21,1,-2,-10
1529301534190856,8,-2,-12,-23,5,6,7,12
1529301534205816,-9,-4,-8,-18,-2,1,-4,-5
1529301534205816,1,-4,-5,63,8,8,5,5
1529301534213795,13,12,8,-49,-13,10,2,2
1529301534213795,-14,-4,9,4,-15,-5,6,-6
1529301534228755,-9,-5,-1,-12,-30,-11,-26,-6
1529301534228755,21,5,-12,-32,-18,-5,-3,13
1529301534235736,-29,-13,3,39,24,8,5,0
1529301534235736,25,5,-2,-35,-7,-7,-17,-24
1529301534243715,-23,-12,-1,-24,-2,-1,7,4
1529301534243715,17,1,2,-2,11,5,2,0
1529301534250751,9,-3,2,28,8,1,-5,-5
1529301534250751,-24,-1,12,20,12,6,-1,-3
1529301534265704,-7,2,16,21,13,6,9,-2
1529301534265704,-3,-5,-12,-45,-24,-13,-12,-10
1529301534273680,3,-6,-13,-6,-20,-13,-9,-3
1529301534273680,-12,-15,-14,8,8,4,0,4
1529301534288648,14,4,1,3,2,2,3,-1
1529301534288648,-1,3,-6,-26,-9,0,0,2
1529301534295577,5,5,13,23,2,-4,-1,-4
1529301534295577,-1,1,1,-11,-6,8,11,10
1529301534303898,5,3,-4,1,7,15,11,0
1529301534303898,0,1,3,26,10,7,9,10
1529301534311767,-13,-5,-6,-31,0,-24,6,-26
1529301534311767,-7,-6,-3,-10,13,-10,-22,-13
1529301534325699,11,9,8,23,35,3,0,7
1529301534325699,1,4,-18,-50,18,3,7,-2
1529301534333706,13,0,-17,-11,-57,-25,-6,8
1529301534333706,-6,-6,-7,5,-9,-7,1,8
1529301534348798,-1,-5,8,13,15,13,15,5
1529301534348798,-21,-18,8,7,-3,-4,-10,-18
1529301534363756,7,11,10,16,-45,-9,-3,7
1529301534363756,-1,2,0,-8,9,5,-1,2
1529301534370975,5,-5,-2,8,-26,-8,-5,0
1529301534370975,2,-6,0,-1,-10,-2,-1,-2
1529301534379119,-12,1,4,-9,7,0,-21,-15
1529301534379119,-2,2,9,17,-24,7,10,8
1529301534394074,-2,-9,-19,-3,-2,4,-2,-5
1529301534394074,15,35,17,16,-32,-18,-12,4
1529301534401057,0,-8,-9,-18,-11,1,6,1
1529301534401057,-10,-8,-18,-8,5,4,-1,-8
1529301534415994,0,1,-13,-44,7,2,-4,2
1529301534415994,-6,-7,-4,-1,16,3,0,-4
1529301534423973,1,-8,-13,-13,-18,-9,-7,-4
1529301534423973,-4,-5,9,26,16,7,0,1
1529301534430816,-4,-3,1,7,13,9,6,5
1529301534430816,-14,-18,-17,-6,-9,-6,-3,-10
1529301534445915,-24,-44,-37,-23,-6,9,23,38
1529301534445915,61,50,43,38,16,3,-2,-1
1529301534453951,-23,41,4,-17,35,10,3,5
1529301534453951,1,-4,-12,10,-24,-17,-17,-16
1529301534469058,-12,18,40,-13,-9,-12,-12,-7
1529301534469058,-14,-31,-38,-12,2,3,9,8
1529301534475893,-3,-14,26,51,23,6,1,4
1529301534475893,25,18,12,-26,8,8,10,7
1529301534484029,-10,-20,-74,-34,-36,-20,-9,-13
1529301534484029,-13,-11,3,11,2,-2,-2,-4
1529301534491011,10,-6,11,21,12,3,-3,-5
1529301534491011,-6,0,6,-18,-16,-1,6,9
1529301534506211,3,-4,-33,-35,-11,-4,-7,-12
1529301534506211,-1,1,7,-7,-5,-1,-2,-4
1529301534513498,-8,-11,-26,37,17,7,0,0
1529301534513498,4,2,7,4,-3,1,-1,4
1529301534528458,7,6,17,20,13,2,-2,-7
1529301534528458,-8,6,9,-5,0,2,2,2
1529301534536715,0,-2,9,23,-5,-4,-3,-1
1529301534536715,1,-10,-41,-35,-7,-3,-1,1
1529301534543699,13,26,39,-11,7,-4,-2,-4
1529301534543699,-19,-20,-26,11,18,1,-4,-6
1529301534550719,11,7,7,-42,-19,-4,1,0
1529301534550719,2,1,25,35,8,2,1,2
1529301534566695,-4,-5,-29,0,-10,-4,-4,-6
1529301534566695,-5,-4,4,-19,0,-2,2,-1
1529301534574112,2,-11,-20,36,5,1,-3,-3
1529301534574112,-3,15,20,-41,-16,-8,-2,3
1529301534588913,0,-6,-19,5,11,0,2,-2
1529301534588913,0,2,34,18,4,1,0,0
1529301534595895,13,11,12,-26,3,2,-1,4
1529301534595895,-7,-5,-9,4,-7,-6,-4,-4
1529301534603915,1,-4,2,15,18,2,0,-1
1529301534603915,-10,-13,-26,-12,-11,-4,-3,-5
1529301534610856,-3,-4,-26,-23,1,2,1,-1
1529301534610856,7,0,-1,17,6,2,0,2
1529301534625816,2,6,39,1,10,-3,-2,1
1529301534625816,-7,0,-1,0,13,-3,-2,-3
1529301534633795,-3,-4,0,-15,7,-2,-1,-2
1529301534633795,6,5,17,22,20,7,2,3
1529301534648754,4,-2,-12,9,21,5,0,1
1529301534648754,1,3,-18,-19,3,2,-4,2
1529301534655766,-3,-7,10,-7,6,9,-1,2
1529301534655766,-15,-20,-27,-7,-9,9,1,-4
1529301534663716,14,19,17,9,0,14,-1,-2
1529301534663716,7,8,4,6,-4,12,0,3
1529301534671753,5,1,12,-6,-7,8,-1,2
1529301534671753,3,-6,-7,20,1,7,1,2
1529301534686740,-5,-6,-3,-6,-10,2,-1,-1
1529301534686740,-5,-6,-16,-12,-7,-3,-2,-3
1529301534693855,1,5,2,-12,-10,-2,-1,-3
1529301534693855,2,-5,2,-2,5,2,1,4
1529301534708657,-7,0,5,-1,0,4,2,1
1529301534708657,-1,-2,-12,-8,-1,2,-2,-5
1529301534715684,2,-8,-17,8,-8,0,-5,-12
1529301534715684,-1,3,15,-4,-7,0,0,-1
1529301534723616,-5,6,0,-11,-21,-5,-3,-4
1529301534723616,6,6,11,14,-3,-1,-1,3
1529301534731626,-1,-4,2,6,-1,-7,2,5
1529301534731626,-5,-3,-10,-4,-1,-15,-2,-3
1529301534746719,-1,-3,-4,-5,-10,-16,-3,-1
1529301534746719,-7,-2,-8,-13,-6,-15,2,-4
1529301534753695,-1,6,26,10,-15,-14,-5,-7
1529301534753695,10,0,-4,-4,-7,-7,4,6
1529301534769203,4,6,13,19,3,-2,5,8
1529301534769203,-7,-7,-4,-1,-14,-12,-3,-3
1529301534776175,1,7,5,-2,-17,-9,2,1
1529301534776175,-1,-2,-9,-2,-7,-3,3,-1
1529301534784154,-10,-10,-5,-7,-19,8,0,-1
1529301534784154,11,3,0,-3,16,7,21,15
1529301534791129,-15,-10,-5,13,5,-12,-14,-16
1529301534791129,-14,9,15,-4,2,21,17,-6
1529301534813413,34,3,-10,0,-14,-22,-53,-44
1529301534813413,-4,4,7,0,24,-14,18,50
1529301534821427,-35,-6,-4,0,18,14,0,-19
1529301534821427,-10,-9,-8,-10,-45,-31,-15,-6
1529301534836597,-18,-4,3,5,5,-3,-10,-39
1529301534836597,17,-5,-11,4,9,2,14,25
1529301534843744,23,5,-4,-3,21,5,0,21
1529301534843744,8,9,4,8,10,2,9,18
1529301534851687,-1,1,14,5,11,8,11,12
1529301534851687,0,-3,-8,-10,-8,7,-7,-15
1529301534859544,-2,1,15,10,15,4,10,9
1529301534859544,2,4,-2,9,1,-6,-14,-10
1529301534866517,-5,-3,-8,0,4,-4,11,12
1529301534866517,-4,3,16,-3,-2,2,-10,-18
1529301534873501,3,-6,-20,-25,-19,-7,-3,1
1529301534873501,1,-5,-3,0,8,1,-4,-5
1529301534888587,-2,2,-4,-11,-3,2,3,9
1529301534888587,-11,-3,0,24,-5,2,-5,-13
1529301534896577,4,2,13,5,-8,2,3,-1
1529301534896577,4,2,-2,4,-1,-3,-5,0
1529301534903546,-6,-3,-12,-36,-5,-1,14,14
1529301534903546,-4,-3,1,14,-19,-7,-17,-17
1529301534911731,4,2,-3,21,-6,-3,3,2
1529301534911731,-2,2,1,-9,9,7,5,0
1529301534926084,1,0,-1,3,-2,3,14,11
1529301534926084,1,1,0,-8,-7,0,-10,-6
1529301534934245,0,0,-3,-14,-4,-5,-7,-5
1529301534934245,-3,-3,-1,9,5,0,2,-2
1529301534949177,-1,1,2,8,-1,3,2,2
1529301534949177,3,0,1,-1,-4,1,-4,-1
1529301534956291,2,1,0,3,3,6,6,4
1529301534956291,0,-4,-5,-10,-3,-5,0,1
1529301534964167,-5,-5,-13,-40,-8,-2,4,1
1529301534964167,-5,0,-1,-8,-9,-21,-34,-9
1529301534971257,0,-1,-1,3,-5,-1,-4,0
1529301534971257,7,1,7,11,7,2,-3,3
1529301534986209,-1,3,3,23,6,4,11,9
1529301534986209,-10,-4,-3,-9,-5,-2,-8,-22
1529301534994198,11,0,-1,-9,-6,-2,13,8
1529301534994198,-19,-4,-3,0,-3,-5,-15,-32
1529301535009013,7,0,-1,9,2,-1,-1,10
1529301535009013,3,-2,-1,-12,-5,2,4,4
1529301535024206,-21,-5,-4,-2,-3,-3,-1,-19
1529301535024206,5,1,0,-4,-2,0,-11,7
1529301535038170,4,-1,-2,0,3,5,16,-8
1529301535038170,14,2,2,0,1,-1,-31,11
1529301535046154,-30,2,2,2,-3,-6,-31,-57
1529301535046154,-2,-5,-6,-6,-6,6,38,10
1529301535061245,3,-3,-3,-1,3,6,2,33
1529301535061245,-2,-3,-1,-2,0,-7,-21,-57
1529301535069242,1,0,0,0,-1,10,51,61
1529301535069242,1,-3,-3,-4,-5,-25,-75,-33
1529301535083189,1,-4,-10,-22,-16,-17,-28,-21
1529301535083189,10,4,1,1,7,9,36,24
1529301535099218,12,3,4,5,0,12,28,19
1529301535099218,-16,-6,-8,-9,-5,-26,-49,-4
1529301535106285,2,-4,-4,5,7,13,11,-2
1529301535106285,-2,2,4,5,1,-5,-7,-7
1529301535121247,5,-2,-2,0,3,1,-10,-11
1529301535121247,-1,3,6,-3,9,16,23,19
1529301535129213,18,3,5,13,4,5,32,20
1529301535129213,-8,-2,-3,1,0,-2,-31,-13
1529301535144182,7,0,3,8,6,5,-5,5
1529301535144182,8,3,3,3,2,7,11,13
1529301535159018,-18,-2,-3,3,-4,-6,12,-25
1529301535159018,-2,-1,-2,-11,-3,3,28,6
1529301535166166,3,2,-1,-11,-5,-12,-40,-10
1529301535166166,-9,-5,-1,1,-8,-3,-31,-29
1529301535180871,28,3,-1,1,-5,-8,12,54
1529301535180871,-62,-10,3,26,9,1,27,-56
1529301535196056,8,2,-1,-33,-9,-6,-60,-1
1529301535196056,-1,-4,-10,-16,-8,3,15,-3
1529301535211054,-7,-1,-2,18,-1,-1,15,-11
1529301535211054,-4,0,2,-5,0,1,10,0
1529301535226013,10,1,-2,-6,2,0,-19,7
1529301535226013,-2,0,0,15,3,1,2,-3
1529301535233992,-7,-2,0,2,6,1,-6,-4
1529301535233992,4,2,1,-1,-1,4,22,14
1529301535249119,7,-2,-1,1,2,0,15,5
1529301535249119,-10,-2,-3,3,0,5,11,-1
1529301535264070,5,2,4,11,1,2,12,11
1529301535264070,2,2,3,6,6,1,-4,8
1529301535278875,-8,-2,-4,-13,-8,-4,11,-15
1529301535278875,8,-1,1,5,3,4,0,6
1529301535286000,-4,-2,-4,-3,-5,-7,-30,-5
1529301535286000,0,0,0,-2,-1,2,26,9
1529301535308793,-5,-1,-4,-9,-3,-3,-8,-9
1529301535308793,1,-1,-3,2,-4,-4,-3,5
1529301535315825,3,1,3,7,6,7,10,7
1529301535315825,-6,-1,-2,-7,-4,-1,47,-2
1529301535330734,13,3,1,-1,-2,-15,-35,16
1529301535330734,-10,-2,-3,-3,-3,-2,-27,-22
1529301535345694,-4,-3,-1,0,-1,6,52,5
1529301535345694,10,1,2,2,0,0,-21,8
1529301535360653,6,3,0,0,0,-4,-22,2
1529301535360653,-6,-1,-2,-1,-3,2,14,2
1529301535368632,6,0,-1,4,2,5,11,6
1529301535368632,-2,0,2,1,1,-5,7,3
1529301535383592,-5,0,2,3,2,-6,-14,-36
1529301535383592,-1,-2,-3,-2,0,3,9,24
1529301535398552,-1,0,-1,-2,-4,-8,-11,-11
1529301535398552,3,1,1,-1,0,-3,-41,10
1529301535406531,-6,-2,0,1,1,1,16,-12
