timestamp,emg1,emg2,emg3,emg4,emg5,emg6,emg7,emg8
1528188976608507,0,-1,0,0,2,0,1,-1
1528188976608507,0,2,0,-1,0,1,0,-1
1528188976609503,-1,-1,-1,-2,-1,-2,-1,0
1528188976609503,-2,-1,-1,0,0,0,0,-1
1528188976609503,0,-1,-1,-3,-1,-2,0,0
1528188976609503,-1,-3,-1,-1,-1,0,0,-2
1528188976614490,-1,-2,-2,-1,0,0,0,-2
1528188976614490,0,-2,-3,-1,-2,-1,-1,0
1528188976618480,-2,-2,-3,-2,-1,-2,-3,0
1528188976618480,1,1,-1,-1,-2,-1,-1,1
1528188976628453,1,1,2,1,0,-1,0,0
1528188976628453,-1,3,0,0,-1,-1,-2,0
1528188976630447,-1,0,-3,-2,1,0,0,-1
1528188976630447,1,1,1,0,3,0,0,-1
1528188976651392,-1,0,1,0,-1,-3,-2,0
1528188976651392,-1,-1,-1,0,-2,-3,-1,0
1528188976652389,0,-1,-1,0,-2,-2,0,0
1528188976652389,0,-1,-1,-1,1,0,0,-1
1528188976665354,0,1,0,0,2,1,0,-1
1528188976665354,-2,0,0,-3,1,-1,-1,-1
1528188976689291,1,0,-1,0,0,0,-1,0
1528188976689291,-2,0,-2,0,-1,-1,-1,0
1528188976696271,0,0,0,0,-1,0,-1,-1
1528188976696271,1,-2,0,-2,0,-1,-1,-1
1528188976698267,-2,-2,-1,0,-1,-2,-1,-1
1528188976698267,0,0,-1,-1,1,0,0,-1
1528188976711231,-1,-1,-2,-1,0,-1,-2,0
1528188976711231,0,-3,-1,-2,-1,-1,0,-1
1528188976751125,0,0,-1,-1,0,0,-1,-1
1528188976751125,0,1,-1,0,0,-1,-1,-1
1528188976752123,-1,-2,0,-1,-2,-2,-1,-1
1528188976752123,-2,-2,0,0,-2,-1,-2,0
1528188976772069,0,0,-2,-1,-1,0,-1,1
1528188976772069,0,2,-1,-1,-1,-1,0,-1
1528188976773066,0,1,-1,-1,-1,0,-1,0
1528188976773066,-1,-1,-1,0,0,-2,-1,-1
1528188976774064,-1,-2,-1,1,1,1,1,0
1528188976774064,-1,-2,-1,-1,-1,0,-1,-1
1528188976778052,1,1,-2,-2,0,0,-1,-1
1528188976778052,-1,2,-1,0,1,-1,-1,0
1528188976785034,-2,-2,0,-1,-2,-1,-1,-2
1528188976785034,-1,2,-3,0,0,-1,-1,-1
1528188976822933,-1,0,-1,-2,-1,-2,1,-3
1528188976822933,-1,1,1,1,2,-4,-2,-1
1528188976837894,0,-1,-2,-1,-2,-1,-1,-1
1528188976837894,0,-1,-1,0,-1,-1,-1,0
1528188976847870,-1,1,-1,0,-1,-4,-2,0
1528188976847870,-3,-2,-2,0,-4,5,2,0
1528188976847870,1,-1,-1,0,-2,-2,-2,0
1528188976847870,0,0,-1,0,0,-1,-1,-2
1528188976849861,-1,0,-1,0,-1,-2,-1,-2
1528188976849861,0,-1,-2,0,-2,-2,-1,-2
1528188976861829,0,0,-1,-2,0,0,-1,-1
1528188976861829,0,-2,-2,0,0,1,0,-1
1528188976862845,-1,-1,-1,-1,-1,1,-2,0
1528188976862845,-1,-2,-1,-2,0,-3,-1,-1
1528188976883770,0,-1,-1,-1,-1,-1,-2,0
1528188976883770,-1,-2,-2,-2,-2,1,0,0
1528188976884768,0,1,-1,1,0,-3,-3,0
1528188976884768,0,0,-1,-2,0,-1,-1,0
1528188976905711,-2,0,-1,1,1,-1,2,-2
1528188976905711,-1,0,0,-1,-2,-1,-1,0
1528188976906709,-1,-1,0,0,-1,0,0,-2
1528188976906709,-2,-1,0,0,0,0,-2,0
1528188976928651,-2,0,-1,1,-2,-1,0,-1
1528188976928651,0,1,2,0,0,-1,0,0
1528188976929648,0,-1,-1,0,-1,-1,-1,0
1528188976929648,0,-1,-1,0,0,-2,0,1
1528188976950592,-1,-2,0,-1,0,1,0,-2
1528188976950592,-3,-3,-3,-2,0,-2,-1,1
1528188976951589,-1,1,0,0,0,-1,-1,0
1528188976951589,1,1,-1,-2,0,-1,0,0
1528188976957573,-1,-3,0,-1,0,-3,-1,-1
1528188976957573,0,0,-1,1,-1,1,-3,-2
1528188976958572,0,0,2,-1,0,-1,-1,0
1528188976958572,-2,0,0,0,0,-2,-1,0
1528188976980511,-1,-1,-1,-1,1,0,0,-1
1528188976980511,1,0,0,-1,-3,1,-1,-1
1528188976981524,2,-2,-1,-2,-1,-3,0,1
1528188976981524,-2,-6,-4,0,-1,0,0,-3
1528188977003450,0,5,4,1,-1,-5,-3,-1
1528188977003450,0,5,0,-2,0,0,0,-2
1528188977004447,0,-1,-1,-1,-2,-1,-1,0
1528188977004447,0,-3,-1,0,1,0,0,1
1528188977033371,1,-2,-2,-1,-1,0,-1,-1
1528188977033371,-2,-5,-2,0,-1,-1,-1,-2
1528188977034368,0,2,-1,0,-1,-1,-2,-2
1528188977034368,-1,-3,-2,-1,-1,-1,-1,0
1528188977042358,1,-2,-1,0,0,1,0,1
1528188977042358,0,1,1,-1,-1,-2,-1,-2
1528188977042358,0,0,0,0,0,2,0,-2
1528188977042358,1,1,2,0,0,-2,0,-1
1528188977071268,0,-3,-4,-2,-1,1,0,-1
1528188977071268,-1,-2,-2,-1,-1,1,-1,1
1528188977071268,-2,-2,-1,0,-1,-1,0,-2
1528188977071268,-1,3,2,0,-1,0,-1,-2
1528188977116150,-3,-4,-1,-2,-2,4,0,-1
1528188977116150,0,3,-1,1,1,-6,-1,-1
1528188977116150,2,4,2,0,-1,-1,-1,1
1528188977116150,0,1,1,1,-1,-1,1,-2
1528188977139103,-1,-2,-2,-4,-1,-1,-1,-2
1528188977139103,-1,-5,-2,-2,-1,1,-1,0
1528188977153077,0,3,-1,0,0,0,-1,-2
1528188977153077,-2,-1,-2,-1,0,0,0,-1
1528188977162028,-1,0,-1,1,0,-1,0,-1
1528188977162028,-1,-2,-2,-2,0,2,2,-1
1528188977163024,0,-2,-3,-1,0,0,0,1
1528188977163024,0,0,-2,0,-1,-2,-1,0
1528188977165019,-1,1,1,0,0,-2,-1,-1
1528188977165019,0,-2,-2,-1,-1,-2,0,-1
1528188977184965,-1,-2,-1,-1,0,3,0,0
1528188977184965,-1,0,-1,-2,-1,-1,-1,0
1528188977186966,-2,-1,-2,-1,-2,-2,-4,-2
1528188977186966,1,0,2,1,0,-1,-2,0
1528188977186966,1,1,0,-2,-2,0,0,-1
1528188977186966,-2,-1,2,-1,-1,-3,-2,-1
1528188977205909,0,-3,-2,-1,-1,-2,-1,1
1528188977205909,-1,-1,-3,1,0,-3,-1,0
1528188977206907,-3,1,-1,0,0,-1,1,-2
1528188977206907,0,-1,1,0,0,2,1,0
1528188977227852,0,-1,-1,-1,-2,-1,-1,0
1528188977227852,1,2,0,0,0,-1,-2,-2
1528188977235828,-1,-1,-1,-1,0,0,0,-2
1528188977235828,-4,-2,-2,-1,-2,-2,-3,-2
1528188977243809,1,-1,-1,0,-1,0,-1,-1
1528188977243809,0,0,-3,0,0,1,-3,0
1528188977244807,0,1,0,0,0,-3,0,-1
1528188977244807,-1,1,2,0,-1,-3,0,0
1528188977257771,-1,-1,-1,0,0,1,0,0
1528188977257771,-3,-5,-1,0,-1,-3,-2,-1
1528188977281706,-1,-2,-1,0,0,-1,-1,-1
1528188977281706,1,4,3,-2,-1,-1,0,0
1528188977283700,-2,-3,-3,-2,-1,-1,-1,-2
1528188977283700,-2,-5,-3,-1,1,1,0,-2
1528188977283700,1,5,0,-1,-3,-3,-1,0
1528188977283700,-1,3,2,-1,-1,0,-1,-3
1528188977303647,1,-3,-1,-1,-1,-2,0,-1
1528188977303647,-2,-1,-1,-1,0,1,1,0
1528188977304645,0,-4,-4,-1,-1,-2,1,-2
1528188977304645,0,8,4,0,0,-1,2,-1
1528188977326588,0,0,2,0,-1,0,1,1
1528188977326588,0,-3,-2,0,0,0,-1,2
1528188977326588,0,9,2,0,-3,-1,-1,-1
1528188977326588,0,-2,-4,-2,-1,-1,-1,-2
1528188977348540,-1,-1,0,1,-1,-3,-1,-1
1528188977348540,-1,-4,-2,0,-1,-2,-1,1
1528188977349525,-2,-1,-2,-1,0,-1,-1,-1
1528188977349525,-3,-2,-4,-1,-2,1,-1,0
1528188977371502,0,-1,1,0,1,-2,1,0
1528188977371502,-1,0,-1,-1,-3,-1,-1,-2
1528188977371502,-1,3,-3,-1,-2,-1,-2,-2
1528188977371502,-1,-3,1,1,-1,0,0,-1
1528188977377490,2,5,1,-1,1,0,0,1
1528188977377490,-1,-2,-1,0,1,-2,-1,0
1528188977385431,-3,-3,-2,-2,-3,0,-1,-3
1528188977385431,0,-2,0,1,-1,-1,0,0
1528188977400390,-2,-7,-5,0,-1,2,1,-1
1528188977400390,2,7,3,0,0,0,1,-1
1528188977401386,-1,-1,-4,-3,-1,0,0,1
1528188977401386,0,-5,-6,-3,-2,11,4,0
1528188977423329,-2,-1,0,0,-2,-1,-1,-1
1528188977423329,1,-2,-1,-1,0,0,-1,-1
1528188977424325,-2,-2,-1,0,-1,-1,0,0
1528188977424325,1,5,0,0,-1,-2,0,-1
1528188977437291,-1,-3,-2,-1,0,-2,-1,-2
1528188977437291,0,-1,0,1,-1,-3,-2,0
1528188977445274,-1,-2,1,0,0,-6,-4,-1
1528188977445274,1,0,0,0,-1,-3,-1,-1
1528188977460229,0,3,4,1,-1,-2,-1,-1
1528188977460229,-2,-1,-4,-2,0,9,2,-3
1528188977461237,1,-1,-1,-1,-1,-2,-1,-1
1528188977461237,-1,-1,0,-1,0,-6,-2,0
1528188977483168,1,-1,-1,0,-1,-1,-2,0
1528188977483168,2,0,-1,-1,-3,2,-1,1
1528188977484165,-3,-3,-1,0,1,3,1,-1
1528188977484165,-5,-1,-1,0,0,1,0,-3
1528188977497138,0,-3,-1,0,0,-1,0,-1
1528188977497138,0,0,3,0,-1,-7,-2,1
1528188977505109,0,0,0,-1,0,0,-1,1
1528188977505109,-2,-3,-3,1,0,-1,-1,-1
1528188977520069,0,0,-1,1,-1,-4,-3,-1
1528188977520069,-2,0,-1,-2,-1,2,1,-1
1528188977521083,0,-1,0,0,0,0,0,-1
1528188977521083,-2,-2,-1,-2,-2,10,2,-2
1528188977544005,0,-1,1,-2,-2,0,0,0
1528188977544005,0,1,-1,-1,1,-1,-3,-1
1528188977544005,-2,0,0,-1,-2,-1,0,-1
1528188977544005,0,-1,1,-2,-2,-1,0,0
1528188977556970,-1,-1,-1,-1,1,1,-1,-1
1528188977556970,-2,-2,-2,0,0,1,-2,-2
1528188977564949,-2,0,3,0,-1,0,0,1
1528188977564949,2,2,1,2,1,-10,-3,1
1528188977579909,0,-1,-3,-1,0,1,-1,1
1528188977579909,1,1,1,0,0,-2,-2,-1
1528188977580907,-2,-1,0,1,0,2,1,-1
1528188977580907,0,-3,-1,-1,-1,1,-1,0
1528188977603900,0,1,1,1,-1,-1,-2,1
1528188977603900,0,0,1,-1,0,-1,0,0
1528188977604883,1,-1,-2,-1,0,1,0,-1
1528188977604883,0,-2,-2,-3,-1,2,-1,0
1528188977625839,-1,-2,-1,-1,0,-3,-1,-1
1528188977625839,0,2,-2,-2,1,-1,1,1
1528188977626785,1,0,1,-2,-2,0,1,1
1528188977626785,0,5,-1,0,0,-1,1,0
1528188977640797,0,-3,-3,-1,0,-1,-1,-3
1528188977640797,-1,-4,-1,-2,0,0,1,-1
1528188977640797,0,-6,-5,0,1,1,-1,1
1528188977640797,-2,-1,-2,-1,-2,0,-1,0
1528188977670667,-1,0,-3,0,0,-1,-1,0
1528188977670667,0,-1,2,0,-1,-1,-2,-1
1528188977671664,2,12,5,-1,0,1,0,0
1528188977671664,1,-4,-2,0,-2,-2,-2,-2
1528188977693664,-1,-4,-4,-1,0,-1,-1,0
1528188977693664,-1,-5,-3,-1,-2,0,-1,-2
1528188977694603,-1,-2,-1,-1,0,0,0,-1
1528188977694603,-1,0,2,-1,-1,1,0,-1
1528188977700639,0,-2,-1,-1,-1,1,-1,-2
1528188977700639,0,3,-3,-1,1,-1,-1,-1
1528188977701615,-2,-1,-3,-1,-1,8,2,-2
1528188977701615,-1,2,1,-1,-1,-1,0,-1
1528188977722580,-1,0,-1,0,-1,0,-2,1
1528188977722580,-2,-3,0,-1,0,-1,-1,-1
1528188977731512,-1,-4,-1,1,-1,0,-1,-2
1528188977731512,0,7,1,0,-1,-3,-2,-1
1528188977746497,1,1,3,0,1,-1,-2,-1
1528188977746497,-1,-7,-1,0,2,1,-1,-1
1528188977747461,-1,-4,-2,0,0,-2,-1,0
1528188977747461,-1,-1,-1,-1,-2,0,0,0
1528188977768451,-2,-3,0,-1,0,-3,-1,-1
1528188977768451,-1,-2,-3,-1,0,0,-1,-2
1528188977770401,0,3,-3,-2,-3,0,-1,0
1528188977770401,-1,-4,-1,-1,-1,-1,-1,-1
1528188977791344,-1,-2,-7,-1,-1,-4,-1,-3
1528188977791344,2,4,4,-1,0,0,1,0
1528188977793452,0,4,0,0,-1,2,1,-1
1528188977793452,-1,-1,0,0,1,-1,-1,-1
1528188977813558,-1,-2,0,0,-1,-1,-1,-1
1528188977813558,-1,-5,-4,0,-1,-1,-1,-1
1528188977815733,1,4,1,-2,-2,-2,-1,2
1528188977815733,-2,1,0,-1,-1,2,-1,-1
1528188977828813,-3,-5,-5,-1,0,-2,-3,-1
1528188977828813,-2,-2,0,0,0,1,-1,0
1528188977829699,1,2,0,-1,-1,-2,-1,1
1528188977829699,0,0,1,0,-1,-1,-1,1
1528188977842674,-1,-2,-4,0,0,0,0,-1
1528188977842674,-1,0,-1,-1,-3,-4,0,-1
1528188977858622,2,2,1,1,0,1,1,-1
1528188977858622,0,-3,-3,0,0,0,0,0
1528188977866787,-1,0,0,-3,-1,-1,-1,0
1528188977866787,0,-2,-2,-1,-1,-1,-3,-1
1528188977867653,0,-2,-3,-1,-3,-4,-1,0
1528188977867653,0,-1,-1,-2,-1,3,2,-1
1528188977904499,-2,1,2,-2,-1,-1,-2,0
1528188977904499,0,-2,0,1,1,-1,-1,0
1528188977905497,-1,-1,-2,-2,-1,0,1,0
1528188977905497,1,1,1,-2,-1,0,0,-1
1528188977906494,-1,-1,-2,-1,1,-1,0,0
1528188977906494,-1,-1,-1,-1,0,1,0,-1
1528188977911480,0,-1,0,-2,-1,2,0,-1
1528188977911480,0,-2,-2,-1,-3,-2,0,0
1528188977925477,-2,-1,-1,-1,1,1,-2,-1
1528188977925477,-1,0,0,0,-2,0,0,-1
1528188977932424,0,0,0,1,0,1,-1,-1
1528188977932424,-1,-2,0,-1,-1,-2,-1,-1
1528188977948382,1,2,2,1,1,-6,-2,0
1528188977948382,-1,0,0,0,0,1,0,1
1528188977950376,0,0,-1,-1,-2,0,0,-2
1528188977950376,-3,-1,1,-1,2,0,-1,0
1528188977962564,1,-3,-1,-1,-1,0,-1,-3
1528188977962564,-1,0,-1,1,0,1,-2,-2
1528188977971320,0,-2,-1,-1,0,0,1,0
1528188977971320,0,-1,0,-2,-1,-1,-2,-2
1528188977993501,-1,0,0,-1,-1,-1,0,0
1528188977993501,1,0,-1,0,0,2,2,1
1528188978000328,-1,1,0,-2,-1,-1,-1,1
1528188978000328,1,-3,-1,-2,0,-1,1,2
1528188978016488,0,-1,-1,-2,0,-1,-1,-1
1528188978016488,-3,1,0,1,1,-1,0,-1
1528188978017452,0,-2,-1,1,-2,0,-1,-1
1528188978017452,0,0,-1,-1,-1,-5,-2,1
1528188978022750,0,-2,0,-1,0,-1,0,-2
1528188978022750,0,-1,-1,-1,-2,0,-1,0
1528188978038743,-2,-1,-2,1,-2,-3,-1,-1
1528188978038743,1,0,0,-1,-1,0,0,-2
1528188978045987,-1,-1,0,-1,0,0,1,-3
1528188978045987,0,-1,0,-1,0,-2,-1,0
1528188978052964,-2,-1,-2,-1,-1,-1,0,-1
1528188978052964,-1,0,-1,-1,-1,1,0,0
1528188978068683,-2,-1,0,-1,-2,0,0,-1
1528188978068683,-2,1,0,0,0,1,1,-1
1528188978070657,1,0,0,-3,-1,-1,0,0
1528188978070657,-2,-1,-2,-1,-2,-1,-1,-3
1528188978091787,-2,-1,-2,0,-1,-1,0,-1
1528188978091787,0,-2,-2,-1,-2,0,-1,0
1528188978092605,-1,0,0,-1,-1,-1,-2,1
1528188978092605,-2,-3,-1,-1,-1,-1,-1,0
1528188978113771,-2,0,-2,1,-1,-1,-1,-1
1528188978113771,-1,0,0,-1,-1,0,-1,-2
1528188978115537,1,0,-1,-2,1,0,0,0
1528188978115537,0,-2,-2,0,-3,1,1,0
1528188978136874,0,-2,-2,0,-1,0,-1,-1
1528188978136874,-1,-1,-1,-1,0,1,0,1
1528188978138513,2,-1,-1,1,1,-1,0,-1
1528188978138513,-1,1,-1,1,-1,0,-1,-1
1528188978151770,-1,-2,-1,-2,1,-2,-2,-1
1528188978151770,-2,-1,-1,-1,0,-1,-1,-2
1528188978152439,0,-1,-1,-2,0,1,0,2
1528188978152439,-1,1,-1,0,0,-1,-1,0
1528188978165725,-1,-2,-2,1,-2,0,-1,-1
1528188978165725,-1,-2,-1,-2,-2,0,0,-2
1528188978180054,-3,-1,-1,0,0,-2,-1,-2
1528188978180054,-2,1,-1,-1,0,-1,1,-2
1528188978188968,-1,0,-1,-1,-3,0,0,-1
1528188978188968,-1,-2,0,1,-1,-1,0,0
1528188978190723,0,-1,-1,0,-1,3,0,-1
1528188978190723,1,0,2,-2,-1,-4,-1,-1
1528188978211696,-2,-3,-2,-2,-2,-2,-1,-3
1528188978211696,0,0,-1,0,-2,-1,0,0
1528188978212741,-2,0,-1,0,-1,0,0,-1
1528188978212741,1,-1,0,0,1,0,-1,-1
1528188978225915,0,-1,0,-2,-3,-1,-2,-1
1528188978225915,0,1,-2,-1,-1,-1,1,-2
1528188978231988,-1,-1,-1,0,0,0,0,-2
1528188978231988,0,1,1,1,0,1,-1,0
1528188978248895,-1,1,0,-2,-1,-1,-1,0
1528188978248895,0,-2,-3,-1,0,-2,1,0
1528188978249915,-1,0,0,-2,-1,-1,0,1
1528188978249915,0,-2,-3,-2,-1,2,1,-1
1528188978271168,-1,-1,-1,0,-1,0,1,-1
1528188978271168,-1,-1,-1,-1,0,-1,0,-2
1528188978272844,1,-2,-1,1,1,-1,0,0
1528188978272844,1,-3,0,-2,0,1,0,-1
1528188978294035,-2,0,1,-1,-2,-1,-1,-2
1528188978294035,-2,1,0,-1,0,-3,-1,1
1528188978295114,0,-2,-2,-1,-1,-2,-1,0
1528188978295114,-1,0,-2,-1,-1,-2,-1,-1
1528188978307980,0,1,-1,1,-1,-2,0,0
1528188978307980,1,0,-1,-2,-1,-1,-1,0
1528188978316734,0,-1,0,-1,0,-3,0,0
1528188978316734,-1,-1,-1,-1,-1,0,-1,0
1528188978338911,-1,-1,0,-2,-2,-1,-2,-1
1528188978338911,-1,-1,-1,-1,-3,0,1,0
1528188978345896,-2,-1,-1,0,-1,0,0,-1
1528188978345896,0,-1,-2,-2,-1,0,0,-1
1528188978346858,1,0,-1,0,0,0,-1,-1
1528188978346858,-1,-2,1,-2,-1,-1,-2,0
1528188978353616,-2,0,-1,-1,0,0,0,-1
1528188978353616,-1,1,0,-1,-2,-2,1,-1
1528188978368830,1,-1,0,0,0,0,-1,-1
1528188978368830,0,-2,-1,0,0,-1,-3,-1
1528188978370571,-2,-2,1,0,-1,1,-1,-2
1528188978370571,-1,-1,-1,-2,0,-1,-1,0
1528188978391827,1,-3,0,-3,-1,-1,0,0
1528188978391827,1,-1,-1,0,0,1,0,-2
1528188978392824,2,1,0,-1,-1,-1,-1,0
1528188978392824,0,1,-1,-1,-1,-1,2,-1
1528188978405251,1,1,4,-2,0,1,0,-1
1528188978405251,-3,0,-1,-1,0,-2,-2,-1
1528188978413805,-1,-1,-2,0,0,0,0,0
1528188978413805,0,0,2,-1,-1,0,0,0
1528188978436856,0,-1,-1,-1,-1,-1,0,0
1528188978436856,-1,-1,-1,1,-2,-5,0,-1
1528188978437703,-1,-1,-2,0,0,-1,0,0
1528188978437703,0,-2,1,0,-1,-3,-4,0
1528188978459921,-2,0,0,0,0,-2,-1,0
1528188978459921,-2,0,0,0,-2,0,2,-1
1528188978461640,-1,0,-2,-1,-1,-1,-1,0
1528188978461640,-1,-2,-1,0,0,0,1,0
1528188978464633,0,0,-1,-1,0,-1,-1,1
1528188978464633,-1,0,0,-2,0,1,0,-1
1528188978481592,1,-1,0,-1,-1,-1,-1,-1
1528188978481592,-1,-1,-1,-2,-2,1,-2,-1
1528188978488568,0,-1,-2,0,-1,0,-2,-1
1528188978488568,0,1,1,-1,-2,-3,0,-1
1528188978490563,-1,-2,0,-1,-1,0,-1,-2
1528188978490563,-2,-2,-1,-1,-1,0,0,0
1528188978511837,-2,-2,2,0,-1,-1,0,-1
1528188978511837,-1,0,-1,-1,-1,-1,0,0
1528188978513510,0,-1,-1,-2,0,3,-1,-1
1528188978513510,-1,0,1,-1,1,0,0,-1
1528188978525297,0,0,0,0,0,1,0,-1
1528188978525297,-2,-3,0,-1,1,-1,-1,-1
1528188978534306,-2,0,-2,0,-1,0,-3,-1
1528188978534306,0,0,-1,-1,0,0,-2,-1
1528188978548262,0,0,-1,0,-1,-1,-2,1
1528188978548262,0,1,-1,-1,1,1,-1,-1
1528188978550234,1,-1,1,-1,0,0,2,1
1528188978550234,1,0,-1,-1,-1,-3,-2,-1
1528188978571215,-2,0,1,-1,-1,-1,0,0
1528188978571215,0,-3,-3,-1,-1,-1,0,0
1528188978573171,-1,1,-1,-1,-1,-2,0,1
1528188978573171,1,2,3,1,0,0,-2,0
1528188978593778,-2,-1,0,-3,0,1,0,-1
1528188978593778,0,0,-2,1,-2,0,0,-1
1528188978595470,0,-1,-1,0,0,-2,0,-1
1528188978595470,-2,-4,-2,0,-2,0,0,-1
1528188978623481,-1,0,0,-2,0,0,-1,0
1528188978623481,-1,-1,0,-1,-1,0,0,0
1528188978625465,-1,-1,-1,-1,0,-1,0,-1
1528188978625465,-1,-1,-1,-1,0,0,0,0
1528188978646669,0,0,1,-1,-1,-1,0,1
1528188978646669,0,-1,1,1,0,-5,-1,0
1528188978648417,-1,-2,-2,-1,-1,-2,-1,1
1528188978648417,1,1,1,-2,-1,0,0,-1
1528188978649401,-2,-1,-2,0,-1,0,-1,-1
1528188978649401,-1,-1,-1,-1,1,2,0,-1
1528188978670346,0,0,-1,0,-1,-2,-1,-2
1528188978670346,1,-2,1,1,-1,0,0,0
1528188978671343,-1,-1,0,0,-1,-1,0,0
1528188978671343,0,0,-1,1,0,0,-1,0
1528188978692492,0,0,-1,0,0,0,-2,-2
1528188978692492,-2,0,-2,-2,-1,0,1,0
1528188978692492,-1,-1,-1,-2,-1,0,-2,2
1528188978692492,0,-1,-2,0,-1,1,-1,-1
1528188978694281,-1,-1,-1,0,-2,1,1,-1
1528188978694281,-2,-2,0,-1,-1,-1,-1,0
1528188978713481,-2,1,-1,-1,-1,-2,0,-1
1528188978713481,-1,-1,-2,-2,-2,0,-1,-1
1528188978715230,-1,0,-1,-2,1,0,-1,-1
1528188978715230,-2,-1,-1,0,-1,-1,0,-1
1528188978736503,0,-1,-1,1,-2,0,-1,-2
1528188978736503,-2,-2,-1,-2,-1,0,-1,1
1528188978738211,1,0,0,-1,-1,-3,0,0
1528188978738211,0,-1,-2,0,1,-1,0,-2
1528188978751451,-3,-1,-2,0,0,-2,0,0
1528188978751451,0,0,-2,-1,1,-2,-2,-1
1528188978759109,1,-1,-2,-1,-2,-2,-1,-1
1528188978759109,0,-1,-1,1,-1,-1,1,-1
1528188978759109,0,-1,-1,1,-1,-1,1,-1
1528188978759109,0,-1,-1,1,-1,-1,1,-1
1528188978759109,0,-1,-1,1,-1,-1,1,-1
1528188978759109,0,-1,-1,1,-1,-1,1,-1
1528188978759109,0,-1,-1,1,-1,-1,1,-1
1528188978759109,0,-1,-1,1,-1,-1,1,-1
1528188978759109,0,-1,-1,1,-1,-1,1,-1
1528188978759109,0,-1,-1,1,-1,-1,1,-1
1528188978759109,0,-1,-1,1,-1,-1,1,-1
1528188978759109,0,-1,-1,1,-1,-1,1,-1
1528188978759109,0,-1,-1,1,-1,-1,1,-1
1528188978759109,0,-1,-1,1,-1,-1,1,-1
1528188978759109,0,-1,-1,1,-1,-1,1,-1
1528188978759109,0,-1,-1,1,-1,-1,1,-1
1528188978759109,0,-1,-1,1,-1,-1,1,-1
1528188978759109,0,-1,-1,1,-1,-1,1,-1
1528188978759109,0,-1,-1,1,-1,-1,1,-1
1528188978759109,0,-1,-1,1,-1,-1,1,-1
1528188978759109,0,-1,-1,1,-1,-1,1,-1
1528188978759109,0,-1,-1,1,-1,-1,1,-1
1528188978759109,0,-1,-1,1,-1,-1,1,-1
1528188978759109,0,-1,-1,1,-1,-1,1,-1
1528188978759109,0,-1,-1,1,-1,-1,1,-1
1528188978759109,0,-1,-1,1,-1,-1,1,-1
1528188978759109,0,-1,-1,1,-1,-1,1,-1
1528188978759109,0,-1,-1,1,-1,-1,1,-1
1528188978759109,0,-1,-1,1,-1,-1,1,-1
1528188978759109,0,-1,-1,1,-1,-1,1,-1
1528188978759109,0,-1,-1,1,-1,-1,1,-1
1528188978759109,0,-1,-1,1,-1,-1,1,-1
1528188978759109,0,-1,-1,1,-1,-1,1,-1
1528188978759109,0,-1,-1,1,-1,-1,1,-1
1528188978759109,0,-1,-1,1,-1,-1,1,-1
1528188978759109,0,-1,-1,1,-1,-1,1,-1
1528188978759109,0,-1,-1,1,-1,-1,1,-1
1528188978759109,0,-1,-1,1,-1,-1,1,-1
1528188978759109,0,-1,-1,1,-1,-1,1,-1
1528188978759109,0,-1,-1,1,-1,-1,1,-1
1528188978759109,0,-1,-1,1,-1,-1,1,-1
1528188978759109,0,-1,-1,1,-1,-1,1,-1
1528188978759109,0,-1,-1,1,-1,-1,1,-1
1528188978759109,0,-1,-1,1,-1,-1,1,-1
1528188978759109,0,-1,-1,1,-1,-1,1,-1
1528188978759109,0,-1,-1,1,-1,-1,1,-1
1528188978759109,0,-1,-1,1,-1,-1,1,-1
1528188978759109,0,-1,-1,1,-1,-1,1,-1
1528188978759109,0,-1,-1,1,-1,-1,1,-1
1528188978759109,0,-1,-1,1,-1,-1,1,-1
1528188978759109,0,-1,-1,1,-1,-1,1,-1
1528188978759109,0,-1,-1,1,-1,-1,1,-1
1528188978759109,0,-1,-1,1,-1,-1,1,-1
1528188978759109,0,-1,-1,1,-1,-1,1,-1
1528188978759109,0,-1,-1,1,-1,-1,1,-1
1528188978759109,0,-1,-1,1,-1,-1,1,-1
1528188978759109,0,-1,-1,1,-1,-1,1,-1
1528188978759109,0,-1,-1,1,-1,-1,1,-1
1528188978759109,0,-1,-1,1,-1,-1,1,-1
1528188978759109,0,-1,-1,1,-1,-1,1,-1
1528188978759109,0,-1,-1,1,-1,-1,1,-1
1528188978759109,0,-1,-1,1,-1,-1,1,-1
1528188978759109,0,-1,-1,1,-1,-1,1,-1
1528188978759109,0,-1,-1,1,-1,-1,1,-1
1528188978759109,0,-1,-1,1,-1,-1,1,-1
1528188978759109,0,-1,-1,1,-1,-1,1,-1
1528188978759109,0,-1,-1,1,-1,-1,1,-1
1528188978759109,0,-1,-1,1,-1,-1,1,-1
1528188978759109,0,-1,-1,1,-1,-1,1,-1
1528188978759109,0,-1,-1,1,-1,-1,1,-1
1528188978759109,0,-1,-1,1,-1,-1,1,-1
1528188978759109,0,-1,-1,1,-1,-1,1,-1
1528188978759109,0,-1,-1,1,-1,-1,1,-1
1528188978759109,0,-1,-1,1,-1,-1,1,-1
1528188978759109,0,-1,-1,1,-1,-1,1,-1
1528188978759109,0,-1,-1,1,-1,-1,1,-1
1528188978759109,0,-1,-1,1,-1,-1,1,-1
1528188978759109,0,-1,-1,1,-1,-1,1,-1
1528188978759109,0,-1,-1,1,-1,-1,1,-1
1528188978759109,0,-1,-1,1,-1,-1,1,-1
1528188978759109,0,-1,-1,1,-1,-1,1,-1
1528188978759109,0,-1,-1,1,-1,-1,1,-1
1528188978759109,0,-1,-1,1,-1,-1,1,-1
1528188978759109,0,-1,-1,1,-1,-1,1,-1
1528188978759109,0,-1,-1,1,-1,-1,1,-1
1528188978759109,0,-1,-1,1,-1,-1,1,-1
1528188978759109,0,-1,-1,1,-1,-1,1,-1
1528188978759109,0,-1,-1,1,-1,-1,1,-1
1528188978759109,0,-1,-1,1,-1,-1,1,-1
1528188978759109,0,-1,-1,1,-1,-1,1,-1
1528188978759109,0,-1,-1,1,-1,-1,1,-1
1528188978759109,0,-1,-1,1,-1,-1,1,-1
1528188978759109,0,-1,-1,1,-1,-1,1,-1
1528188978759109,0,-1,-1,1,-1,-1,1,-1
1528188978759109,0,-1,-1,1,-1,-1,1,-1
1528188978759109,0,-1,-1,1,-1,-1,1,-1
1528188978759109,0,-1,-1,1,-1,-1,1,-1
1528188978759109,0,-1,-1,1,-1,-1,1,-1
1528188978759109,0,-1,-1,1,-1,-1,1,-1
1528188978759109,0,-1,-1,1,-1,-1,1,-1
1528188978759109,0,-1,-1,1,-1,-1,1,-1
1528188978759109,0,-1,-1,1,-1,-1,1,-1
1528188978759109,0,-1,-1,1,-1,-1,1,-1
1528188978759109,0,-1,-1,1,-1,-1,1,-1
1528188978759109,0,-1,-1,1,-1,-1,1,-1
1528188978759109,0,-1,-1,1,-1,-1,1,-1
1528188978759109,0,-1,-1,1,-1,-1,1,-1
1528188978759109,0,-1,-1,1,-1,-1,1,-1
1528188978759109,0,-1,-1,1,-1,-1,1,-1
1528188978759109,0,-1,-1,1,-1,-1,1,-1
1528188978759109,0,-1,-1,1,-1,-1,1,-1
1528188978759109,0,-1,-1,1,-1,-1,1,-1
1528188978759109,0,-1,-1,1,-1,-1,1,-1
1528188978759109,0,-1,-1,1,-1,-1,1,-1
1528188978759109,0,-1,-1,1,-1,-1,1,-1
1528188978759109,0,-1,-1,1,-1,-1,1,-1
1528188978759109,0,-1,-1,1,-1,-1,1,-1
1528188978759109,0,-1,-1,1,-1,-1,1,-1
1528188978759109,0,-1,-1,1,-1,-1,1,-1
1528188978759109,0,-1,-1,1,-1,-1,1,-1
1528188978759109,0,-1,-1,1,-1,-1,1,-1
1528188978759109,0,-1,-1,1,-1,-1,1,-1
1528188978759109,0,-1,-1,1,-1,-1,1,-1
1528188978759109,0,-1,-1,1,-1,-1,1,-1
1528188978759109,0,-1,-1,1,-1,-1,1,-1
1528188978759109,0,-1,-1,1,-1,-1,1,-1
1528188978759109,0,-1,-1,1,-1,-1,1,-1
1528188978759109,0,-1,-1,1,-1,-1,1,-1
1528188978759109,0,-1,-1,1,-1,-1,1,-1
1528188978759109,0,-1,-1,1,-1,-1,1,-1
1528188978759109,0,-1,-1,1,-1,-1,1,-1
1528188978759109,0,-1,-1,1,-1,-1,1,-1
1528188978759109,0,-1,-1,1,-1,-1,1,-1
1528188978759109,0,-1,-1,1,-1,-1,1,-1
1528188978759109,0,-1,-1,1,-1,-1,1,-1
1528188978759109,0,-1,-1,1,-1,-1,1,-1
1528188978759109,0,-1,-1,1,-1,-1,1,-1
1528188978759109,0,-1,-1,1,-1,-1,1,-1
1528188978759109,0,-1,-1,1,-1,-1,1,-1
1528188978759109,0,-1,-1,1,-1,-1,1,-1
1528188978759109,0,-1,-1,1,-1,-1,1,-1
1528188978759109,0,-1,-1,1,-1,-1,1,-1
1528188978759109,0,-1,-1,1,-1,-1,1,-1
1528188978759109,0,-1,-1,1,-1,-1,1,-1
1528188978759109,0,-1,-1,1,-1,-1,1,-1
1528188978759109,0,-1,-1,1,-1,-1,1,-1
1528188978759109,0,-1,-1,1,-1,-1,1,-1
1528188978759109,0,-1,-1,1,-1,-1,1,-1
1528188978759109,0,-1,-1,1,-1,-1,1,-1
1528188978759109,0,-1,-1,1,-1,-1,1,-1
1528188978759109,0,-1,-1,1,-1,-1,1,-1
1528188978759109,0,-1,-1,1,-1,-1,1,-1
1528188978759109,0,-1,-1,1,-1,-1,1,-1
1528188978759109,0,-1,-1,1,-1,-1,1,-1
1528188978759109,0,-1,-1,1,-1,-1,1,-1
1528188978759109,0,-1,-1,1,-1,-1,1,-1
