timestamp,emg1,emg2,emg3,emg4,emg5,emg6,emg7,emg8
1528443609829709,-2,3,2,1,2,0,-8,2
1528443609829709,0,0,-1,0,-1,0,10,1
1528443609843671,5,0,-3,-2,1,0,11,18
1528443609843671,0,0,-1,-2,-1,-2,-5,-6
1528443609843671,-3,-5,1,-1,-2,0,1,-5
1528443609843671,-10,-5,0,-3,-1,-5,-19,-12
1528443609844669,1,-9,-30,-7,0,6,15,11
1528443609844669,1,18,51,18,5,4,2,3
1528443609846664,2,0,-1,-2,-2,-2,13,10
1528443609846664,1,1,-15,-5,-8,-8,-6,-5
1528443609853645,-8,-1,1,-2,2,2,-5,-10
1528443609853645,-9,-32,-2,-6,-4,-1,-11,-10
1528443609856638,8,12,-26,-3,-1,0,4,2
1528443609856638,7,12,28,2,-4,-5,-2,3
1528443609870609,2,2,8,1,-3,-7,-5,-3
1528443609870609,-4,5,-34,-9,-8,-8,3,-1
1528443609879575,-8,-20,17,-3,-6,-8,-12,-10
1528443609879575,0,-4,-42,-5,0,-4,2,1
1528443609902516,-2,0,6,6,9,29,13,-3
1528443609902516,1,7,8,0,4,10,-12,2
1528443609903511,-3,-4,-6,-6,-11,-24,0,-3
1528443609903511,-1,0,-6,4,-2,-10,-8,1
1528443609916477,-7,-5,9,-11,-29,-16,1,-4
1528443609916477,-2,-8,-8,-5,-47,-12,-5,-2
1528443609917475,1,10,4,8,46,5,-4,2
1528443609917475,4,0,5,-8,-50,-20,-4,-2
1528443609963352,-9,-8,-1,-2,16,16,17,1
1528443609963352,0,1,3,6,11,19,-8,1
1528443609964351,-3,-1,-3,3,-5,-47,-12,-4
1528443609964351,-4,-5,-4,-15,-40,-35,-20,-9
1528443609965348,-3,-4,-6,-12,-25,-18,-20,-6
1528443609965348,-4,-5,-5,-13,-29,-39,-11,-4
1528443609969336,2,1,3,-2,-34,-1,9,2
1528443609969336,-2,-1,1,5,43,34,16,4
1528443609975320,-3,-1,-2,7,21,14,11,0
1528443609975320,3,0,-1,17,90,76,16,8
1528443609984296,-1,-1,-1,-13,-48,-38,-17,-4
1528443609984296,2,0,0,-5,-4,-6,0,4
1528443609990282,2,3,2,10,16,35,20,4
1528443609990282,-12,-11,-7,-25,-59,-47,-22,-14
1528443610008232,-2,-4,-2,0,27,-8,-4,-2
1528443610008232,3,8,2,-19,-48,-7,-1,3
1528443610013220,1,-2,4,16,-5,-7,-10,-2
1528443610013220,-1,0,0,20,76,20,11,1
1528443610037155,-1,-2,-1,7,3,39,10,2
1528443610037155,-2,-1,0,-12,26,-15,-7,-3
1528443610038161,-1,2,1,5,-37,-5,-6,-4
1528443610038161,-5,-6,-4,3,-28,-37,-8,-6
1528443610051116,5,2,2,35,16,25,2,0
1528443610051116,-5,-6,-6,-24,16,-14,-6,-7
1528443610059097,7,4,0,11,52,44,15,10
1528443610059097,0,-1,-3,-18,-18,-2,-2,-1
1528443610074057,1,2,1,10,39,33,12,6
1528443610074057,0,2,4,-7,-41,-20,-11,-5
1528443610075087,-3,-5,-2,38,-39,-24,-6,-4
1528443610075087,3,4,4,21,42,23,14,4
1528443610095998,-1,-1,-5,-27,-43,-16,-9,0
1528443610095998,-2,-3,-4,13,27,20,6,2
1528443610096994,-3,-3,-6,-29,-8,-36,-16,-6
1528443610096994,4,2,1,-3,-20,9,7,4
1528443610118944,-7,-3,1,-6,0,1,-1,-4
1528443610118944,0,-1,-1,5,-10,0,-1,1
1528443610119934,-7,-5,-7,-5,21,-9,-7,-8
1528443610119934,2,0,0,1,-19,-5,2,0
1528443610133898,-3,-4,-3,-24,-8,-6,-5,-3
1528443610133898,-2,0,-2,18,9,8,1,-1
1528443610134932,5,4,2,-21,-1,-4,0,3
1528443610134932,3,-4,1,0,-22,-9,-4,0
1528443610155839,-5,-4,-6,-2,2,-6,-3,-3
1528443610155839,-5,-4,-2,8,10,8,2,-4
1528443610156838,1,5,1,-2,-7,-6,-5,-1
1528443610156838,0,4,-1,-14,-13,-5,-2,1
1528443610170799,0,0,0,-1,5,-3,-2,-1
1528443610170799,4,2,-1,1,-6,1,0,2
1528443610186755,-4,-2,-2,-13,-5,-1,-2,-2
1528443610186755,-4,-3,-2,-2,-10,-9,-6,-2
1528443610193738,-1,-2,-1,-4,7,5,2,0
1528443610193738,2,-1,-5,-21,3,5,2,2
1528443610194735,-5,-4,1,19,-12,-10,-6,-4
1528443610194735,0,2,2,-6,-4,-2,-2,-2
1528443610216675,-3,-3,-5,3,5,1,1,-2
1528443610216675,-3,-6,-1,3,-1,1,0,-1
1528443610216675,3,5,-2,-13,-2,-4,-3,-1
1528443610216675,-8,-8,-2,-3,-7,-5,1,-1
1528443610230638,0,-2,-1,2,0,-1,0,1
1528443610230638,-5,-4,-4,2,-7,-6,-6,-5
1528443610238618,-1,0,3,-5,2,2,-2,-8
1528443610238618,0,6,-2,2,-4,0,1,-2
1528443610253577,-1,-2,3,1,3,-1,5,6
1528443610253577,10,-2,-2,6,0,5,2,3
1528443610254574,-5,7,-4,-6,-5,0,1,8
1528443610254574,-6,-7,-3,-4,-3,-1,-6,-7
1528443610276515,-3,-1,0,-1,2,1,-2,-2
1528443610276515,-3,-2,1,6,-2,-9,-25,-15
1528443610277513,21,-2,-2,-3,-3,1,27,9
1528443610277513,-4,-9,0,-4,-4,-4,0,8
1528443610290478,-29,-6,-3,0,2,0,-6,-19
1528443610290478,-10,-4,-3,1,-2,0,-1,-1
1528443610298457,1,4,3,-5,-2,-3,-5,-4
1528443610298457,7,3,0,-2,-4,-4,-9,-3
1528443610322393,6,-2,0,1,1,-1,-2,1
1528443610322393,-1,20,2,2,-1,0,4,2
1528443610322393,-7,-48,-9,-4,0,-4,-11,-1
1528443610322393,-7,6,-4,-1,-2,-3,-3,-21
1528443610336362,7,-1,3,1,2,1,-2,16
1528443610336362,7,11,2,3,4,7,20,12
1528443610337354,-6,17,2,0,-4,-4,-6,-10
1528443610337354,-3,-13,-1,-2,-4,-9,-3,15
1528443610350321,-2,3,-3,-2,1,7,10,-8
1528443610350321,-13,-14,0,3,1,-2,-1,-15
1528443610358296,8,7,-10,-13,-7,-3,1,28
1528443610358296,17,-13,-1,2,-1,0,3,12
1528443610374254,-5,7,-4,-3,-1,-4,-1,-2
1528443610374254,1,-1,1,-1,-5,-5,4,2
1528443610374254,-20,-11,-5,0,1,1,-10,-20
1528443610374254,-11,-10,-6,-4,-5,-7,-6,-7
1528443610396199,27,25,10,-1,-1,-4,11,12
1528443610396199,-7,-9,-2,-1,-19,-6,-14,-11
1528443610397196,-2,29,6,2,12,-2,-2,-5
1528443610397196,5,-9,4,3,8,12,-1,-1
1528443610410158,-3,-11,-6,-5,-10,-10,-3,-5
1528443610410158,-6,-10,0,-11,-63,-42,-18,-6
1528443610418136,7,-4,-8,7,38,18,10,5
1528443610418136,5,22,4,-6,-18,-8,1,1
1528443610435091,-14,-10,1,-1,2,-4,-7,-7
1528443610435091,9,10,-1,11,29,21,8,6
1528443610436089,-3,-7,4,-12,-38,-17,-6,-3
1528443610436089,-7,-2,-4,-9,-64,-27,-1,-8
1528443610456034,1,-7,-34,2,21,-13,-11,-6
1528443610456034,7,13,55,38,78,82,39,20
1528443610457032,-4,-11,-9,-15,-64,-40,-13,-7
1528443610457032,-2,5,1,43,84,45,14,0
1528443610478991,2,1,-6,-41,-76,-13,-8,1
1528443610478991,-6,-8,-14,-10,2,-30,-13,-9
1528443610479972,1,5,6,32,17,16,13,2
1528443610479972,0,4,4,-31,12,10,-2,0
1528443610501913,-2,-7,1,3,3,-1,-5,-2
1528443610501913,0,-4,-10,-16,-28,-14,-1,2
1528443610502912,0,0,9,-29,-52,-2,-3,1
1528443610502912,-2,8,1,3,13,-19,-3,0
1528443610515876,2,1,12,63,45,54,13,4
1528443610515876,-4,-4,-8,5,79,34,4,-3
1528443610516877,4,2,-12,-22,-32,7,4,7
1528443610516877,-7,-6,-6,-11,-19,-25,-11,-9
1528443610538815,3,5,10,-3,26,-3,3,3
1528443610538815,1,-4,-12,-34,-70,-15,-3,0
1528443610539812,-14,-16,-6,25,-55,-72,-28,-18
1528443610539812,-2,1,-13,14,72,57,21,4
1528443610553774,5,5,34,-25,-100,-22,-5,3
1528443610553774,-6,-10,-32,-11,-12,-49,-19,-8
1528443610554771,1,3,24,-17,10,31,8,1
1528443610554771,0,3,2,-8,-33,-32,-8,1
1528443610576768,-5,-7,-13,12,29,-1,4,-2
1528443610576768,2,1,1,5,14,33,9,5
1528443610576768,-1,-3,0,-9,7,-11,-10,-4
1528443610576768,-2,3,1,5,-52,-17,-7,-1
1528443610598693,-1,-3,-7,18,34,4,4,-2
1528443610598693,6,6,0,-21,-31,-7,-1,6
1528443610599663,-2,-4,-12,-4,13,-7,1,1
1528443610599663,-1,4,-2,-4,-10,2,-4,-2
1528443610613666,-6,-8,-8,-20,-6,-6,-3,-4
1528443610613666,1,-3,-1,9,-19,-17,-5,-1
1528443610614611,-7,-5,2,17,33,18,3,-3
1528443610614611,0,-2,0,-3,-8,-1,2,-1
1528443610636553,6,17,3,-5,0,0,-3,0
1528443610636553,0,-9,0,12,-2,-6,-1,-2
1528443610637551,1,8,0,7,24,13,2,-1
1528443610637551,-3,-4,-2,-7,4,8,4,0
1528443610659544,4,13,-5,-1,-4,-8,-5,-6
1528443610659544,-10,-26,-2,1,-6,-9,-11,-13
1528443610660491,1,2,0,-3,13,9,8,12
1528443610660491,1,-6,-5,-3,-16,-9,-13,-5
1528443610673509,21,-5,-4,0,-1,5,20,10
1528443610673509,-8,25,8,6,5,2,-12,-7
1528443610674452,2,-4,0,-1,10,6,5,13
1528443610674452,-18,-4,-1,4,-2,-4,17,8
1528443610696448,-8,-23,-5,-3,1,-1,-1,1
1528443610696448,4,0,-1,-1,1,0,-2,-1
1528443610697445,4,-2,-4,3,2,-3,-6,-4
1528443610697445,6,10,6,5,6,2,-2,-13
1528443610718389,-11,5,-9,-15,-11,-7,-24,-21
1528443610718389,15,7,6,5,-2,0,6,12
1528443610719332,-11,-21,-8,3,6,-2,-2,-4
1528443610719332,2,-3,-4,-6,-6,-6,-12,-7
1528443610733348,-5,-3,-1,-3,-1,5,0,-7
1528443610733348,-11,-9,-9,-1,-2,-5,-6,-8
1528443610734291,5,24,9,1,2,-1,-1,3
1528443610734291,-6,-17,-5,-5,-4,-1,-3,-5
1528443610756288,0,3,4,7,8,4,3,-1
1528443610756288,-2,3,-4,-5,-3,-1,5,10
1528443610757286,0,16,4,1,3,5,4,-5
1528443610757286,0,-18,-8,-5,-8,-7,-4,5
1528443610779184,-5,-18,-2,-1,-2,-2,-2,-2
1528443610779184,4,-6,-3,-1,1,-4,6,4
1528443610780169,-10,-2,-2,0,-1,-7,-11,-12
1528443610780169,4,3,-1,-7,-16,-4,-9,-5
1528443610794187,-5,26,10,0,9,8,1,1
1528443610794187,1,-24,-4,-2,-7,-15,-2,-1
1528443610794187,11,3,-2,7,23,32,9,1
1528443610794187,-6,4,3,2,-8,-6,1,2
1528443610816122,-2,-5,-13,-7,-10,-12,-11,-1
1528443610816122,-12,-16,7,-14,-90,-51,-14,-9
1528443610817071,19,23,-11,18,81,46,17,9
1528443610817071,-1,-5,19,-30,-98,-33,-14,-2
1528443610838948,2,5,-6,9,-14,-43,-2,3
1528443610838948,5,21,-11,28,78,112,46,14
1528443610839789,-6,-20,18,-5,-54,-27,-8,-5
1528443610839789,0,7,-8,14,17,-1,4,2
1528443610853903,-6,-4,0,-18,-30,-46,-25,-9
1528443610853903,-5,2,-1,-16,-60,-51,-16,-9
1528443610854741,-5,-13,-8,-20,2,-6,4,-1
1528443610854741,3,8,0,44,3,38,10,4
1528443610876838,-4,-6,7,-29,36,8,2,-2
1528443610876838,6,3,-3,-12,-32,-24,-8,1
1528443610877727,-2,2,2,13,4,29,10,4
1528443610877727,-2,-4,-4,4,-6,-16,-4,0
1528443610898788,-6,-8,1,17,-6,-12,-10,-2
1528443610898788,0,5,-1,-7,46,60,17,2
1528443610899631,-1,-3,-9,-24,-44,-50,-15,-4
1528443610899631,3,3,5,74,127,66,17,4
1528443610913952,0,-4,-5,-14,-30,13,4,2
1528443610913952,0,6,-2,-29,-84,-56,-14,-1
1528443610915189,-7,-9,-7,-10,-56,-32,-16,-9
1528443610915189,-5,-9,-9,-36,-8,-46,-10,-8
1528443610944490,9,9,-7,33,61,72,34,18
1528443610944490,-2,4,20,71,13,3,-8,-6
1528443610946315,-3,-7,-7,-46,-16,-19,-4,-1
1528443610946315,3,6,2,-37,-109,-47,-13,0
1528443610959280,-7,-9,-9,21,71,16,-2,-7
1528443610959280,1,-2,-5,-19,-1,-3,5,3
1528443610959280,0,2,-1,36,7,23,3,0
1528443610959280,0,1,-4,-19,28,9,-4,-6
1528443610982420,-2,1,3,-4,-28,0,1,0
1528443610982420,-7,-16,-10,-45,-17,-35,-21,-9
1528443610983417,-2,-1,1,10,60,27,8,-1
1528443610983417,1,2,2,-11,17,27,8,3
1528443611004362,0,1,0,12,-28,-15,-5,1
1528443611004362,-1,1,1,7,8,0,-3,-3
1528443611005372,-4,-6,-7,-8,-27,-26,-9,-5
1528443611005372,-1,-4,-7,-23,-3,4,1,-3
1528443611019322,0,-2,0,-3,-3,9,0,2
1528443611019322,-1,0,-3,-1,17,3,-2,-2
1528443611019322,0,0,3,10,-7,-11,-6,-3
1528443611019322,1,1,0,7,22,19,8,5
1528443611042263,-4,-3,2,-17,-35,-13,-4,-4
1528443611042263,-1,-3,-2,6,12,6,1,-2
1528443611042263,1,5,1,11,12,9,4,0
1528443611042263,-2,-1,-1,2,-2,-4,-2,0
1528443611064366,-2,-7,-1,-13,-22,-11,-2,-4
1528443611064366,0,2,-1,-1,32,13,3,0
1528443611065202,2,0,3,19,8,7,0,2
1528443611065202,-1,3,-2,-7,-16,-10,0,0
1528443611079299,-6,-8,-3,0,-7,-4,-5,-10
1528443611079299,6,8,4,6,17,11,2,7
1528443611080197,-8,-23,-9,-13,-13,-5,-12,-13
1528443611080197,-2,-2,-2,0,-7,-2,19,14
1528443611102299,5,14,-1,-1,2,6,7,9
1528443611102299,18,14,3,5,5,-4,-25,-18
1528443611102299,-4,-4,6,-5,-9,-3,26,20
1528443611102299,-25,-16,-3,4,5,-6,-24,-18
1528443611124377,2,-10,-3,0,1,6,10,8
1528443611124377,-2,5,0,2,0,2,6,10
1528443611125236,6,11,-1,-7,-5,-7,-22,-23
1528443611125236,5,3,2,3,2,-1,-5,-11
1528443611139235,0,-7,3,-1,-4,-3,3,14
1528443611139235,7,10,-5,0,1,2,3,-3
1528443611140228,0,-24,-1,0,3,7,27,31
1528443611140228,-15,6,-3,2,3,2,-25,-21
1528443611162481,6,-6,6,0,-3,1,24,5
1528443611162481,10,13,-1,1,3,3,-5,9
1528443611162481,-5,-2,-10,-5,-3,-3,-6,-2
1528443611162481,-2,6,0,-4,-3,-1,3,4
1528443611184477,1,-8,5,1,-5,-8,-17,-13
1528443611184477,-8,7,1,-1,3,0,6,-3
1528443611185312,0,12,-10,-5,-5,-4,-10,-17
1528443611185312,9,-7,3,-1,-3,0,5,10
1528443611198422,-3,6,0,3,7,9,9,2
1528443611198422,-24,-62,-15,-7,-6,-9,-5,-7
1528443611214234,1,8,5,-3,-10,-9,-11,-2
1528443611214234,15,22,4,12,8,5,10,10
1528443611222373,-8,7,-6,-7,-7,-8,-11,-1
1528443611222373,5,-3,-4,-4,-11,-3,7,0
1528443611223210,0,-3,-2,-5,-4,-13,-5,-7
1528443611223210,-4,21,9,7,16,19,12,2
1528443611244355,-4,-26,-12,-14,-31,-19,-13,-4
1528443611244355,-3,10,4,25,54,23,6,-1
1528443611246352,-9,-11,2,-5,-11,-7,-5,-5
1528443611246352,1,-24,-8,-6,-6,-11,-8,-13
1528443611258322,4,20,4,4,6,4,4,3
1528443611258322,-5,4,0,-10,-25,-20,-17,-11
1528443611267600,7,-5,-2,5,13,21,20,19
1528443611267600,18,19,8,0,-1,4,11,17
1528443611282554,-12,-13,-5,-8,-8,-3,-12,-12
1528443611282554,-1,7,2,1,-3,-2,2,-4
1528443611283426,-7,3,5,8,11,4,0,-9
1528443611283426,1,-7,-5,-7,-9,-8,-4,-2
1528443611304704,5,5,-1,-2,1,-2,3,5
1528443611304704,-8,15,6,2,2,1,3,-3
1528443611306542,-6,-38,-9,-3,-2,3,-2,-1
1528443611306542,-16,-16,-10,-6,-7,-9,-7,-11
1528443611317892,9,9,6,4,5,3,1,7
1528443611317892,3,7,1,1,0,3,4,2
1528443611327800,3,9,-1,-4,-6,-5,-5,-1
1528443611327800,-4,-14,-5,0,-2,-9,-2,-2
1528443611341823,-2,3,0,2,8,8,-4,-9
1528443611341823,-4,-13,0,-4,-7,0,4,5
1528443611343662,4,34,5,0,-3,-2,-3,-5
1528443611343662,1,-25,-2,-1,-1,-2,-2,2
1528443611364970,2,14,-7,0,2,-2,-2,-6
1528443611364970,-1,-20,-1,-2,-4,-3,-1,0
1528443611365889,-11,-7,-4,-3,-2,-3,-5,-7
1528443611365889,5,21,5,-1,-3,-1,2,4
1528443611377774,-5,-10,-4,-3,-3,-6,-8,-6
1528443611377774,-1,-3,-3,-3,-4,0,-5,-5
1528443611394941,1,6,2,1,1,0,7,8
1528443611394941,0,-1,-2,0,-2,-1,-6,-2
1528443611400306,-3,1,-1,-2,-2,-3,-7,-7
1528443611400306,-5,-4,-2,0,0,0,2,-1
1528443611409284,-3,-2,0,0,0,1,-2,-3
1528443611409284,-2,-5,-5,-1,-5,-10,-7,-1
1528443611425005,-4,-8,0,0,3,4,-5,-6
1528443611425005,3,29,2,0,1,3,4,3
1528443611426005,-7,-40,-1,-1,-1,-1,-5,-5
1528443611426005,4,8,-4,-3,-3,1,1,0
1528443611438376,-2,3,3,-2,-2,-5,-3,-1
1528443611438376,-5,-14,-2,-3,-1,-2,0,-2
1528443611447354,6,16,0,2,0,0,-2,0
1528443611447354,-3,-4,-2,-2,0,-2,0,1
1528443611462470,-2,-6,-1,-1,-3,0,1,0
1528443611462470,0,-1,-1,-1,-1,0,0,-1
1528443611463373,3,3,-1,1,-2,-5,-2,0
1528443611463373,-4,-3,-1,-1,3,7,1,-2
1528443611484411,2,11,1,-1,1,0,1,1
1528443611484411,-3,-22,-3,-1,-1,-2,2,0
1528443611486271,-2,7,0,-1,-2,-4,-4,-2
1528443611486271,-2,1,0,-2,-1,-3,2,0
1528443611498375,-1,1,-1,-1,-2,-1,1,0
1528443611498375,1,2,1,-1,-2,-5,-4,0
1528443611507430,2,2,-1,-1,-1,-2,0,-1
1528443611507430,0,0,1,-2,-3,3,3,-2
1528443611522513,-6,-4,-3,-1,1,-2,-1,-2
1528443611522513,0,-6,-4,0,1,5,2,0
1528443611523381,-1,5,1,-4,-3,-2,-5,-2
1528443611523381,1,-1,-1,-2,-8,-5,-2,1
1528443611544448,-3,-8,-4,1,3,2,0,-2
1528443611544448,-2,-2,-1,1,0,-8,-1,0
1528443611546319,-1,3,0,1,6,15,3,-1
1528443611546319,-1,-2,-3,0,0,-3,-2,0
1528443611558411,-2,-4,0,-3,-5,-4,0,0
1528443611558411,-2,0,0,-1,-2,-6,-6,-2
1528443611567231,1,2,-3,-2,-2,-4,-2,0
1528443611567231,-4,-6,-3,-6,-20,-11,-6,-4
1528443611582576,-3,-4,-2,5,19,11,3,-1
1528443611582576,0,5,0,-3,-32,-21,-9,-2
1528443611583548,-2,0,-2,-7,19,7,2,-1
1528443611583548,1,1,0,10,29,30,9,5
1528443611604634,1,3,-2,-8,-26,-20,-8,-3
1528443611604634,-4,-10,-1,1,10,2,-2,-2
1528443611606498,-2,-3,-2,-2,-19,-19,-6,-2
1528443611606498,-3,-2,-1,-9,-25,-17,-4,-3
1528443611618600,-2,-1,0,6,21,5,6,0
1528443611618600,0,1,-2,1,2,11,1,-1
1528443611627431,0,2,0,1,-1,3,1,-1
1528443611627431,-1,-3,-3,-1,10,0,-1,-2
1528443611642548,1,0,2,-2,-18,-7,-7,-1
1528443611642548,-4,-4,-3,-2,8,5,2,-1
1528443611643397,-2,0,-2,1,3,-3,-1,0
1528443611643397,-1,1,0,0,-3,3,2,-1
1528443611664945,0,-2,-3,-5,-7,-6,-3,1
1528443611664945,0,-2,-2,-3,-9,0,0,-2
1528443611665962,-1,0,-1,1,13,2,0,-1
1528443611665962,-1,-3,-2,0,-5,-10,-4,-4
1528443611687255,-2,0,-2,2,-1,-3,0,1
1528443611687255,1,-1,-4,-5,0,2,2,2
1528443611689086,0,-1,-1,0,-3,6,4,2
1528443611689086,-2,-3,-1,-2,-3,-8,-4,-2
1528443611701248,-3,-3,-1,1,-1,3,-2,-3
1528443611701248,1,1,1,5,13,0,0,0
1528443611708459,-1,0,1,0,-5,0,-4,-3
1528443611708459,-1,0,-1,1,9,9,7,4
1528443611725078,2,-1,2,-2,-9,-8,-5,0
1528443611725078,-2,-1,-3,-6,-23,-12,-4,-3
1528443611725924,0,-2,-2,3,18,1,1,-1
1528443611725924,1,-1,0,-2,-13,2,0,-1
1528443611738256,0,-3,-1,4,23,13,4,-1
1528443611738256,-1,-3,-1,-3,-6,-3,-1,-1
1528443611747071,0,-1,-1,-3,-9,-8,-3,-1
1528443611747071,-2,1,-1,-5,-5,-8,-6,-3
1528443611761540,-2,0,1,-3,-5,-1,1,0
1528443611761540,0,-1,0,0,2,0,-1,1
1528443611767978,-1,-1,-1,2,1,1,0,-1
1528443611767978,-1,-2,-1,1,7,5,0,1
1528443611785078,0,-2,-1,-2,-6,-4,-4,-3
1528443611785078,-1,0,-3,-1,8,5,1,-2
1528443611785974,-3,-2,-2,-3,-13,-5,-3,-3
1528443611785974,0,1,2,1,2,0,-1,0
1528443611797943,-3,0,-2,-3,0,1,1,0
1528443611797943,-2,0,-1,-2,-3,0,-2,0
1528443611806919,-1,-1,-1,0,-4,-2,-2,0
1528443611806919,-2,-4,-1,-1,1,-7,-7,-4
1528443611820882,0,0,-1,0,1,6,5,0
1528443611820882,-1,0,1,1,5,6,5,1
1528443611827897,-1,0,-2,-3,-8,-4,-2,-1
1528443611827897,-1,-1,-2,0,2,-3,-4,-2
1528443611844817,-2,-1,-2,0,-6,-7,-2,-1
1528443611844817,0,0,0,-3,1,-1,-3,-2
1528443611845822,-1,-1,-1,0,-2,-1,-1,-1
1528443611845822,0,-1,-1,-1,-3,-2,-3,-2
1528443611857820,-2,-1,-1,-2,-2,-3,-3,1
1528443611857820,-2,0,-4,0,1,-3,-2,-2
1528443611866759,1,-1,0,2,4,5,2,0
1528443611866759,-2,-1,-2,-2,1,-3,0,-1
1528443611889725,0,-1,-2,-1,-1,-1,0,-2
1528443611889725,-1,-1,-1,0,3,0,0,-2
1528443611890721,-3,-1,-1,-3,-5,-5,-2,-2
1528443611890721,0,-3,-1,1,1,2,0,0
1528443611904687,-1,1,0,-1,1,1,-1,-1
1528443611904687,-2,-2,-2,-1,1,-1,-2,-2
1528443611905683,-2,0,-1,-4,-4,-3,-2,0
1528443611905683,-2,-2,0,-1,1,1,1,-1
1528443611926648,-1,-1,0,-1,-2,-1,0,-2
1528443611926648,0,0,0,-1,0,-1,-3,0
1528443611928594,0,0,-1,0,-2,-2,1,-1
1528443611928594,0,-1,-1,0,0,0,1,-2
1528443611941573,-1,-1,-1,-1,0,0,-2,-1
1528443611941573,-2,0,0,0,0,-2,-1,0
1528443611948595,-1,-1,0,-1,-2,-1,0,-1
1528443611948595,-1,-1,-2,-1,1,-2,0,0
1528443611964532,0,-2,-1,-1,1,0,0,-2
1528443611964532,0,-2,-1,-1,0,2,-1,0
1528443611966528,-2,0,0,-3,-2,-2,-3,-2
1528443611966528,-2,0,-2,0,-2,-1,-1,0
1528443611987483,-2,-1,-2,1,-1,-1,0,0
1528443611987483,-1,-1,-1,-2,-1,-1,0,0
1528443611988441,-2,-1,-2,-3,0,-2,-2,-3
1528443611988441,-3,-1,-2,-1,-2,-3,-2,-1
1528443612001457,-2,0,-3,0,-3,-4,-4,-1
1528443612001457,-2,-2,1,-1,-1,-2,1,-1
1528443612008435,0,-2,-1,-1,-2,-1,-1,-1
1528443612008435,1,-1,-1,-1,-1,0,-1,-1
1528443612024339,-1,-1,-1,-1,-1,-1,-2,-3
1528443612024339,1,-1,-3,-1,0,0,-1,-2
1528443612026334,-1,-1,-1,0,-1,-1,-1,-2
1528443612026334,-1,1,-1,-2,0,-1,-1,-1
1528443612047311,0,-1,-2,-2,0,-1,-1,0
1528443612047311,-1,-1,-1,1,-2,-1,-1,-2
1528443612048310,-1,-2,0,-1,-2,-1,-1,1
1528443612048310,-1,-1,-2,-1,0,1,0,-2
1528443612060277,0,-1,-1,0,-1,-1,-2,0
1528443612060277,0,-2,-2,-1,0,-1,-2,-1
1528443612069218,-1,-1,-2,-2,-2,-1,-2,-1
1528443612069218,-2,-1,0,-1,-1,0,-1,-1
1528443612084212,-1,-2,-3,-1,-1,-1,0,0
1528443612084212,-2,-2,-2,-1,-1,1,-1,0
1528443612086172,1,0,0,-1,-1,-1,1,1
1528443612086172,-1,0,0,-2,0,1,-1,-1
1528443612107171,-1,0,0,1,0,0,0,-2
1528443612107171,-1,0,0,-1,-2,-1,-2,-2
1528443612109118,-2,-2,-1,-1,1,0,-1,-3
1528443612109118,0,-1,-2,0,-2,-1,-1,-2
1528443612121124,0,-1,1,-1,-3,-2,-2,1
1528443612121124,0,-1,0,0,-1,-3,1,-1
1528443612130107,-1,-2,-2,-1,-1,0,-3,-1
1528443612130107,0,-2,-1,1,0,-2,-2,-1
1528443612145055,-1,-2,0,-3,0,2,-1,-2
1528443612145055,-2,1,-2,-1,-3,1,-1,2
1528443612147049,-1,-2,-2,0,-2,-3,-1,0
1528443612147049,-1,-1,-1,0,-2,-3,0,0
1528443612167322,-1,-1,-1,-1,-2,-2,-3,-2
1528443612167322,-1,-2,0,1,-1,0,2,0
1528443612169161,-1,0,-2,0,0,0,0,0
1528443612169161,-2,-1,-2,-3,-2,-3,-1,-2
1528443612181345,0,-1,0,-2,-2,-2,-1,0
1528443612181345,-1,-1,-3,-2,0,-1,-2,-2
1528443612188470,0,-2,-1,-1,-1,-1,-1,-2
1528443612188470,2,1,-1,0,-1,1,1,-1
1528443612204407,-3,1,-2,0,-1,0,-1,-1
1528443612204407,-4,-9,-1,-1,-1,0,-2,-4
1528443612210252,-2,0,-2,0,0,0,-1,-2
1528443612210252,3,-1,0,0,-1,1,0,0
1528443612227351,-1,0,0,0,-1,-1,-1,-3
1528443612227351,0,3,-2,0,0,1,0,2
1528443612228348,0,-3,-2,0,-2,0,0,0
1528443612228348,-3,-3,-2,0,0,0,-1,-2
1528443612241516,-1,-1,0,-2,-2,-2,-2,0
1528443612241516,-1,-1,-1,0,-4,-2,-2,-1
1528443612248477,-2,-1,-1,-1,-2,1,1,1
1528443612248477,-2,0,-2,-1,0,-1,-2,0
1528443612264445,1,-1,0,-1,1,1,0,-1
1528443612264445,-1,0,0,-1,-1,0,-2,0
1528443612266299,-3,0,-1,-2,-2,-1,-3,-1
1528443612266299,-1,-2,-2,0,-1,-1,-1,-2
1528443612287278,-4,-1,-2,-1,-1,0,-1,-2
1528443612287278,-1,-2,-1,0,-2,-1,-1,-2
1528443612288385,-1,1,-2,-2,-2,0,0,-1
1528443612288385,-4,-2,-2,-1,-1,-2,0,-1
1528443612300438,1,-1,-1,-1,-2,-1,1,0
1528443612300438,2,-1,0,-1,-1,0,0,0
1528443612310277,0,-1,-1,-1,-1,-3,-1,-1
1528443612310277,-1,-2,-1,-2,-2,-1,-1,-1
1528443612324364,-2,-1,-2,0,0,0,-1,0
1528443612324364,-1,-2,-1,-3,-1,-1,-1,-2
1528443612326202,2,-2,-1,0,0,0,-1,-1
1528443612326202,-1,0,-2,-1,-2,-1,-1,-1
1528443612347504,0,2,0,-1,-1,-1,0,-1
1528443612347504,-4,0,-1,-2,0,1,-3,-2
1528443612348426,-3,-7,-2,-2,-1,-2,-1,0
1528443612348426,-2,0,0,-1,-1,-1,-2,0
1528443612360399,-1,0,-1,-1,-1,0,2,2
1528443612360399,0,1,-2,-3,-1,-2,-1,-2
1528443612369372,-1,0,-1,-1,-1,-3,-2,-3
1528443612369372,-3,-1,-2,0,-2,0,-1,-1
1528443612384490,3,2,-2,-1,-2,-3,-2,1
1528443612384490,1,-1,-2,-1,0,1,0,0
1528443612386339,-2,0,-3,0,-2,-1,-1,-3
1528443612386339,-2,-1,0,0,-1,-3,0,-1
1528443612407301,-3,-2,-1,0,-2,-1,-3,-2
1528443612407301,-2,-3,0,0,-1,-1,-1,-1
1528443612408381,-1,1,0,-2,-1,-1,-1,0
1528443612408381,1,-2,-1,-2,-2,-2,-1,-1
1528443612420237,-1,-5,-1,0,-1,-1,1,-3
1528443612420237,0,0,0,-2,-1,0,-2,-1
1528443612430239,-1,0,-1,-1,0,0,-3,-3
1528443612430239,0,-1,-1,-2,0,-1,1,3
1528443612444175,0,-2,-3,-2,0,-2,-1,-2
1528443612444175,0,0,-1,1,-1,-1,-1,0
1528443612446167,2,2,-1,0,0,-2,0,0
1528443612446167,0,0,0,-1,-2,-1,-2,-1
1528443612467443,-3,-6,-2,-2,1,0,-2,-1
1528443612467443,-1,-4,-3,-2,-1,-2,0,0
1528443612468457,-1,-1,0,-1,-1,0,0,-3
1528443612468457,-2,-1,-1,-1,-1,-1,1,0
1528443612480542,0,3,0,-2,-1,0,-2,-1
1528443612480542,-1,1,0,0,-1,1,1,-1
1528443612489451,-2,-1,-2,-2,-3,-2,0,-1
1528443612489451,-1,-1,-2,0,0,1,-3,-2
1528443612504703,0,-2,1,-1,-1,-2,-1,0
1528443612504703,0,1,-1,-1,-1,-2,-1,-2
1528443612506572,-1,-2,0,-2,-1,0,-2,-1
1528443612506572,-3,-1,0,-2,-2,-1,-2,-2
1528443612526488,0,0,-3,-1,-1,-1,-1,0
1528443612526488,-1,-4,-2,-1,-1,-2,-2,-1
1528443612528483,-2,-1,-1,0,-1,0,-1,0
1528443612528483,1,-1,-2,-1,-2,0,-1,-1
1528443612540453,-2,-2,-2,0,-1,-2,-2,-3
1528443612540453,0,1,-1,-2,-1,-3,-1,-1
1528443612549427,1,-1,-1,-1,-3,-1,-1,-1
1528443612549427,0,-1,-1,-2,0,-2,0,-2
1528443612564523,-1,-1,1,0,-1,0,-1,-2
1528443612564523,0,-1,0,-1,2,-1,-1,0
1528443612566381,-3,-3,-1,-2,-2,-2,0,0
1528443612566381,-1,-2,-1,-1,-1,-1,-2,-1
1528443612587531,1,2,0,0,-1,0,0,-1
1528443612587531,-4,-4,0,-1,-3,-1,0,-2
1528443612588505,-1,-6,-2,-1,0,0,0,1
1528443612588505,0,1,-1,-2,-1,-1,-2,0
1528443612600816,-2,-1,0,-1,-3,-2,1,-1
1528443612600816,-2,2,0,-1,0,-3,-2,0
1528443612609627,-3,0,-1,2,0,-2,0,-3
1528443612609627,0,-3,-2,-2,1,-2,-1,-1
1528443612623625,-1,-3,-2,-1,0,-2,0,0
1528443612623625,0,1,-1,-1,1,-1,0,-2
1528443612630711,-2,-2,-1,-1,-2,-2,-1,-1
1528443612630711,-2,-1,-2,-1,0,0,1,-3
1528443612647546,-2,-1,-2,1,-1,-1,-1,-1
1528443612647546,-1,-1,-1,-1,-3,-2,0,1
1528443612648523,0,-1,-2,-2,0,-1,-1,-2
1528443612648523,-1,1,-1,0,-2,0,-2,-2
1528443612660622,-1,-1,-2,-1,0,-2,-1,-1
1528443612660622,-2,-2,-4,0,-1,-1,-2,-1
1528443612669681,-1,0,-1,1,-1,-1,-3,0
1528443612669681,-1,-2,-1,0,-1,-2,-1,-1
1528443612684790,-3,-2,-3,-1,-2,-1,-1,2
1528443612684790,1,0,-2,-1,-2,0,0,0
1528443612686628,1,2,-1,-2,0,0,0,-1
1528443612686628,-3,-8,-1,-2,-2,-1,0,-2
1528443612706923,0,0,-2,-1,-1,0,-2,0
1528443612706923,-1,-1,-2,0,-2,-1,-1,-2
1528443612708779,-1,0,-2,-2,-2,-1,-2,-1
1528443612708779,1,5,0,-2,0,-1,0,0
1528443612720891,-2,-1,0,-1,-1,-1,-2,0
1528443612720891,-4,-3,-1,-1,-1,0,-2,-3
1528443612729929,-1,-1,-1,-1,0,-1,-1,1
1528443612729929,-1,-1,-1,1,-2,0,0,0
1528443612744937,-2,0,-1,-1,-1,0,-1,-1
1528443612744937,0,0,-1,0,-1,-3,-2,-1
1528443612745887,-2,0,-1,-1,-1,0,-1,0
1528443612745887,-1,0,-1,-3,0,-1,-1,-1
1528443612767180,-1,-2,-2,-1,-2,-1,1,-1
1528443612767180,-1,0,-1,0,-2,-1,-2,-3
1528443612769049,-1,-1,-2,-1,-1,-3,-1,-1
1528443612769049,0,-2,-2,0,0,-1,-2,0
1528443612781137,-2,0,0,-1,-1,-1,-2,-2
1528443612781137,-3,-2,-2,-3,-2,-2,0,0
1528443612789432,-2,-1,0,-1,-1,-2,-2,-2
1528443612789432,0,2,-3,1,-3,-1,-1,-2
1528443612804478,-1,-2,1,-1,-2,-2,-1,1
1528443612804478,-1,-8,0,-2,-1,-1,-1,-4
1528443612806316,0,0,-1,-1,-2,0,-1,-3
1528443612806316,-2,-2,-2,-3,-1,-2,-1,0
1528443612827443,-1,0,-1,-1,-1,0,-3,-1
1528443612827443,0,1,-2,-1,-1,-2,0,0
1528443612828440,2,0,1,-1,-1,0,-1,1
1528443612828440,1,0,-1,-1,1,-1,-1,-2
1528443612849728,0,-1,-2,0,-1,-1,-2,-1
1528443612849728,-2,0,1,-1,0,-1,0,0
1528443612851664,-3,-2,-2,1,-1,0,-1,-1
1528443612851664,-1,-1,0,-1,-1,-1,-2,0
