timestamp,emg1,emg2,emg3,emg4,emg5,emg6,emg7,emg8
1529288074402869,-1,4,2,1,-3,2,4,0
1529288074402869,-2,3,3,-1,-1,1,1,2
1529288074411807,0,-3,1,-5,1,-2,2,1
1529288074411807,-2,-5,-1,-5,-1,-2,0,0
1529288074417826,0,-1,-2,0,1,-1,-4,-5
1529288074417826,-2,0,1,2,0,3,-5,-2
1529288074432750,2,-2,3,1,0,-2,-4,-3
1529288074432750,-1,-5,0,-2,-1,-1,-2,-1
1529288074440729,-2,-1,2,-6,0,1,0,-1
1529288074440729,1,2,2,0,-4,0,-1,-5
1529288074449706,3,2,0,2,-1,-2,0,-2
1529288074449706,6,0,-6,-1,1,-5,-3,1
1529288074462671,-3,1,-6,-2,0,-5,-3,-4
1529288074462671,-6,-5,-2,-3,2,-1,-1,-2
1529288074471646,-4,-5,1,0,0,3,1,2
1529288074471646,3,8,2,0,-3,0,-1,2
1529288074477666,-3,-13,-6,-4,-4,-2,0,-1
1529288074477666,7,10,1,0,1,-4,0,3
1529288074494586,2,8,6,3,2,-3,0,3
1529288074494586,-9,-3,-3,-3,3,5,3,2
1529288074500570,2,13,6,0,-1,6,0,-1
1529288074500570,-11,-9,-4,-6,-3,2,-2,-11
1529288074509546,-3,-13,-1,-1,-2,2,-3,-4
1529288074509546,7,8,5,6,-3,-1,1,5
1529288074522557,4,-7,-7,-3,-2,-5,-1,-1
1529288074522557,-1,-2,-1,-2,-3,-2,-5,0
1529288074532483,-9,-8,-5,1,0,-3,-1,-4
1529288074532483,-3,1,3,-1,1,-4,1,-7
1529288074538468,-2,-5,1,1,-1,-1,2,1
1529288074538468,0,-5,-1,0,3,0,6,0
1529288074554425,3,17,-4,-6,0,-1,-1,-7
1529288074554425,-18,-31,-10,-4,1,-5,-3,-8
1529288074560451,10,18,7,10,0,2,3,5
1529288074560451,15,20,8,10,2,2,0,12
1529288074569386,-1,-3,-5,-2,-1,-1,-1,4
1529288074569386,2,2,4,-1,1,0,-3,3
1529288074583395,-10,-6,-2,-10,-1,-3,-6,1
1529288074583395,-9,-18,-9,-7,-3,-3,-5,4
1529288074592375,12,19,10,2,0,7,5,9
1529288074592375,10,16,3,0,-2,2,0,0
1529288074598308,-5,-7,0,3,-2,1,-2,-9
1529288074598308,-1,-1,-3,2,-2,-1,0,-8
1529288074614266,2,-8,-10,-7,-1,-3,-3,-2
1529288074614266,-2,-3,-4,-5,-2,-2,-1,4
1529288074620279,6,6,1,0,0,0,0,7
1529288074620279,3,9,6,2,2,-4,-1,3
1529288074629226,-5,-2,-1,-3,-7,-1,2,-1
1529288074629226,-4,-1,-7,-5,-6,-2,-3,-7
1529288074643217,-19,-36,-12,-4,1,0,-4,-5
1529288074643217,6,22,13,3,-2,5,5,2
1529288074652164,0,0,4,0,-1,1,0,0
1529288074652164,-4,-10,-6,2,1,1,-2,-7
1529288074658148,0,-5,-5,-3,-2,-5,-3,-4
1529288074658148,8,15,4,0,5,-3,1,-8
1529288074674115,1,5,7,2,5,-2,0,-5
1529288074674115,0,0,1,2,-4,-1,-3,-1
1529288074680091,-3,-10,-5,-5,-6,4,0,3
1529288074680091,-4,-7,0,4,0,2,-5,5
1529288074689067,1,-7,-7,-7,-6,0,-3,3
1529288074689067,6,2,-2,3,3,3,5,5
1529288074712007,2,3,-3,-3,-7,-6,6,3
1529288074712007,0,9,-1,-11,-6,0,4,2
1529288074713005,-9,-16,-5,9,8,3,-5,-2
1529288074713005,4,9,1,-3,3,3,-3,6
1529288074718023,-2,11,8,5,-2,2,2,1
1529288074718023,-6,-6,-7,-4,-2,1,3,-6
1529288074734943,-4,-6,-9,-12,-11,-5,-1,-6
1529288074734943,-3,-12,-5,7,7,3,2,-2
1529288074740926,14,30,20,8,-2,-1,0,0
1529288074740926,-5,-19,-12,-8,-7,-4,-4,-1
1529288074749903,-3,-1,6,17,1,-4,-2,-5
1529288074749903,-3,-9,-8,6,10,3,1,1
1529288074762868,-3,-8,-8,-8,0,1,-4,-1
1529288074762868,2,2,6,3,-1,0,0,-1
1529288074771844,0,3,5,1,5,2,1,0
1529288074771844,-2,-14,-3,-16,-13,-5,-4,-3
1529288074777829,5,-1,5,23,11,3,0,-1
1529288074777829,-1,1,-1,-9,-18,-8,-15,-1
1529288074794784,1,6,-4,4,3,1,-7,4
1529288074794784,-6,-1,4,3,-6,-5,-4,1
1529288074800769,-5,-2,-8,-16,-7,-4,2,-1
1529288074800769,-4,-8,-1,11,5,0,4,0
1529288074809796,0,3,-1,1,-1,5,6,1
1529288074809796,1,7,5,7,10,6,2,-2
1529288074822708,-6,-12,-6,-17,-21,-10,-1,-1
1529288074822708,2,-4,1,-14,-5,-1,3,0
1529288074831684,3,-10,-6,-5,4,0,-1,-2
1529288074831684,7,3,7,20,7,-9,3,-3
1529288074845690,6,12,8,4,-13,-7,-2,-1
1529288074845690,-13,-10,-12,2,11,5,0,-5
1529288074854624,-11,1,-1,-7,3,1,-4,-2
1529288074854624,6,14,20,30,34,16,4,-1
1529288074860643,1,1,-4,-7,-25,-18,-11,-4
1529288074860643,1,-2,4,0,6,-4,-5,3
1529288074869583,-5,-16,-20,-18,-18,0,1,4
1529288074869583,1,8,3,-3,9,5,7,4
1529288074882548,-2,-4,0,9,13,-5,0,-8
1529288074882548,5,6,-2,-13,-8,-1,5,-2
1529288074891524,-3,4,1,4,6,-2,1,0
1529288074891524,-5,-1,-11,-21,-18,-11,-6,-1
1529288074905534,2,1,3,10,30,18,10,2
1529288074905534,0,1,3,1,-7,-4,-4,-6
1529288074914473,4,5,8,3,6,-2,0,0
1529288074914473,-1,-3,-7,-12,-13,-7,-6,1
1529288074920493,-2,5,7,8,14,0,-2,3
1529288074920493,-3,-3,-1,2,4,7,1,0
1529288074935457,6,-1,-2,5,-6,-5,-4,-3
1529288074935457,3,1,-4,-17,-26,-3,0,2
1529288074943431,-1,-8,-2,4,19,12,5,-2
1529288074943431,-4,-10,-7,4,7,6,0,-3
1529288074952362,3,10,9,9,14,0,0,-1
1529288074952362,-1,5,3,5,-9,-6,-3,-2
1529288074965326,9,8,2,-12,-12,0,2,6
1529288074965326,-4,-5,-3,0,-18,-7,-2,-2
1529288074974303,6,5,1,-2,4,6,4,0
1529288074974303,-8,-11,-5,-1,-2,3,-3,-5
1529288074980289,-2,2,2,8,1,-4,-2,-1
1529288074980289,-2,0,2,13,17,2,1,1
1529288074989264,-5,-2,-5,-20,-13,-8,-9,0
1529288074989264,-8,-10,-8,-12,-1,4,-2,3
1529288075003228,-4,3,3,5,3,1,-5,-1
1529288075003228,-3,3,1,-5,-20,-7,-2,-2
1529288075012202,-5,-8,0,2,-21,-5,4,-3
1529288075012202,5,18,11,6,16,6,6,-2
1529288075025213,-6,-8,-10,-5,3,4,-4,-3
1529288075025213,0,3,-6,-5,-3,-9,-5,3
1529288075034142,-5,-2,0,-4,2,0,-4,1
1529288075034142,2,-3,0,0,-9,-10,-2,1
1529288075040127,-1,0,-5,-5,0,-1,3,4
1529288075040127,-12,-16,-10,6,5,-1,-5,-9
1529288075049103,6,13,6,7,6,1,4,3
1529288075049103,1,1,1,-3,-5,3,-1,0
1529288075063486,-2,1,4,3,4,1,1,3
1529288075063486,2,-6,1,4,-1,-3,2,-3
1529288075072627,-3,-11,-7,0,5,2,2,-4
1529288075072627,-2,-8,-4,1,-13,-6,0,-3
1529288075086018,11,14,9,14,1,0,2,0
1529288075086018,6,-7,-1,-5,4,4,1,-4
1529288075102584,15,0,6,2,13,4,3,-3
1529288075102584,8,3,8,-8,-11,-10,-6,-3
1529288075103582,-4,-14,-12,-11,-3,-1,-6,-7
1529288075103582,10,6,-1,-6,-13,0,-4,7
1529288075115550,3,10,3,17,19,3,-5,3
1529288075115550,2,-5,-8,2,0,3,-2,2
1529288075122535,-2,-6,-2,-7,-7,-5,-4,0
1529288075122535,16,14,7,-6,2,1,8,6
1529288075131714,-6,-4,4,11,-2,1,0,-1
1529288075131714,-4,-1,-3,-5,2,5,0,-6
1529288075146294,-9,-10,-5,-2,-6,-2,-3,-7
1529288075146294,-1,4,5,-5,-1,3,0,2
1529288075154268,2,8,4,-4,-4,-1,-1,0
1529288075154268,-12,-13,-13,-8,2,7,3,3
1529288075160481,6,16,11,7,13,-1,7,5
1529288075160481,-1,-5,-6,-1,6,0,-2,5
1529288075175256,5,7,0,-3,-20,-20,-4,4
1529288075175256,-3,-9,-2,-1,5,8,6,3
1529288075183550,-6,-7,-7,-4,-6,-4,-6,-6
1529288075183550,-12,-2,9,14,19,7,-1,-4
1529288075192207,-6,-2,-4,2,7,9,1,0
1529288075192207,0,5,3,3,12,-5,-7,-4
1529288075206576,-1,-1,-3,-12,-4,-2,1,-3
1529288075206576,1,6,0,-1,-8,-1,1,0
1529288075213638,-7,-11,-10,-6,-16,-6,-3,-3
1529288075213638,-1,-1,-2,2,-7,-4,0,-3
1529288075229136,2,-2,-3,-3,-1,-1,-1,-2
1529288075229136,-7,-5,-6,-4,-5,-2,-3,-4
1529288075236060,-2,-8,-7,-7,-2,3,-3,-3
1529288075236060,3,6,1,2,-8,3,4,0
1529288075242854,0,3,5,1,11,3,4,-1
1529288075242854,0,-4,-1,-4,2,-2,-2,0
1529288075252009,-2,-1,-1,-7,-11,-9,-2,-2
1529288075252009,3,3,-1,-8,-10,0,-1,-1
1529288075265969,1,6,7,21,15,7,1,5
1529288075265969,-4,0,-1,4,-5,1,0,1
1529288075274981,0,1,1,1,1,6,1,4
1529288075274981,1,0,2,1,0,-5,-4,-1
1529288075289095,1,-8,-8,-17,-6,-4,1,-1
1529288075289095,-3,0,-1,-3,5,-7,-6,-2
1529288075296061,-4,-3,-1,0,2,12,-1,-2
1529288075296061,-1,0,0,3,16,2,-2,4
1529288075303052,-3,-2,-5,-7,-24,2,-1,3
1529288075303052,0,3,0,11,6,-3,1,-2
1529288075311847,-1,1,-5,-4,2,-6,1,1
1529288075311847,-4,7,8,1,0,-8,2,0
1529288075325026,0,1,4,2,3,3,0,-6
1529288075325026,1,-6,-7,-16,-24,-2,0,-2
1529288075334005,-1,-5,6,25,30,11,0,-2
1529288075334005,1,4,2,-5,-3,-3,-1,0
1529288075348969,0,6,-1,-7,-5,-3,-5,-4
1529288075348969,4,2,-6,-3,3,6,4,-5
1529288075355961,2,-2,-5,-12,-20,-4,-3,-4
1529288075355961,1,-5,0,5,-3,-4,-1,1
1529288075371924,0,-5,1,2,-3,-3,0,3
1529288075371924,1,-4,-1,-1,7,-2,0,1
1529288075377910,2,-13,-4,-6,7,-6,-3,-3
1529288075377910,6,9,7,3,-2,2,-2,-1
1529288075385889,-3,4,1,-4,-15,-8,-5,-2
1529288075385889,-3,-2,0,3,4,0,0,4
1529288075392871,-4,0,-1,0,-10,-3,-2,-3
1529288075392871,0,-2,-7,-1,1,4,2,0
1529288075409123,0,-6,-4,3,12,9,3,-2
1529288075409123,2,5,7,1,-8,0,-2,-2
1529288075415806,-1,-4,-1,0,10,-2,2,6
1529288075415806,-1,-4,-3,-3,5,1,-2,-2
1529288075431765,6,3,2,4,9,2,0,5
1529288075431765,-2,-3,-6,-2,-2,1,-1,-1
1529288075433758,-1,7,1,-6,-4,-2,-1,-6
1529288075433758,-3,0,0,3,-5,-6,0,-2
1529288075446026,1,5,2,2,-3,-7,1,-4
1529288075446026,-5,-4,-4,-3,-2,-4,-3,-4
1529288075455274,-5,-6,-9,-8,-8,3,-4,5
1529288075455274,-1,5,5,3,-2,-6,-1,6
1529288075469258,-4,-12,-6,-11,-2,-2,0,0
1529288075469258,4,6,8,7,1,-5,1,5
1529288075476187,3,-2,-2,0,-6,-4,-1,-1
1529288075476187,-1,-5,-11,0,4,7,1,1
1529288075492287,4,6,2,4,7,5,2,2
1529288075492287,-2,-3,-1,-4,-7,-2,1,-4
1529288075494145,-2,2,5,-9,-7,-1,2,0
1529288075494145,-6,-11,0,-5,0,-2,-2,-5
1529288075506660,-2,3,-5,-4,-14,-2,-3,1
1529288075506660,-1,1,-2,2,2,1,-4,0
1529288075512688,-2,2,-2,2,0,-2,0,-2
1529288075512688,2,3,-3,-2,-4,-1,-2,-5
1529288075528785,-4,-6,-9,1,8,0,-1,-5
1529288075528785,2,-1,-4,3,10,-1,1,-1
1529288075535588,7,4,3,-1,-8,-5,4,1
1529288075535588,-2,-7,2,-6,2,-3,2,5
1529288075552295,-2,-2,6,-3,4,-3,0,0
1529288075552295,-4,-3,4,-2,-11,-6,-6,-2
1529288075553331,-4,2,2,5,6,1,0,-6
1529288075553331,-4,0,0,1,-4,0,-4,-4
1529288075574279,-3,-5,-4,-2,-2,0,-6,-1
1529288075574279,3,0,1,6,-5,6,3,6
1529288075576274,-3,-2,-6,-8,-16,3,1,0
1529288075576274,6,0,-4,8,1,4,3,6
1529288075588640,4,-2,-1,6,4,0,0,2
1529288075588640,-3,-1,-2,-3,12,3,1,1
1529288075595845,-3,-2,-4,-4,2,-4,0,-3
1529288075595845,-1,-3,-6,-16,-15,-6,1,-4
1529288075611912,-4,1,2,3,9,-1,3,-2
1529288075611912,-5,-12,-7,-6,-1,-3,-4,-7
1529288075613739,7,27,24,8,5,1,-1,-1
1529288075613739,2,6,2,-1,-5,-5,-1,1
1529288075625710,1,-1,1,-2,-7,1,-5,2
1529288075625710,3,3,1,-6,-2,3,-5,0
1529288075634685,0,-12,-8,-3,-8,-2,-3,1
1529288075634685,2,-2,-1,8,7,1,3,-1
1529288075657424,3,-1,-2,-5,-12,0,5,0
1529288075657424,-1,-4,-2,5,2,-1,6,0
1529288075659283,-7,-11,-4,1,4,-3,0,-5
1529288075659283,-6,5,8,-3,5,-4,-5,-6
1529288075672049,-4,-1,-3,-6,-11,0,-6,-1
1529288075672049,6,3,-1,-5,0,4,-6,0
1529288075674044,8,-2,-1,1,0,-5,-5,4
1529288075674044,4,-3,0,5,1,-2,4,3
1529288075686299,-1,-4,-1,-3,-3,-6,2,1
1529288075686299,-2,2,-2,3,3,-2,0,-3
1529288075694448,-3,7,1,-4,9,3,4,1
1529288075694448,-2,0,-6,-10,-8,-3,-1,1
1529288075709407,1,-2,4,6,2,1,0,2
1529288075709407,3,1,0,-5,-3,-4,0,-3
1529288075715377,-1,-3,-1,-2,-10,1,-2,-4
1529288075715377,-7,-7,-10,1,10,2,-5,-6
1529288075731543,-2,14,9,3,-7,3,1,6
1529288075731543,-6,-5,0,4,4,-2,0,1
1529288075733538,-3,-7,0,3,12,-2,0,1
1529288075733538,1,-6,1,-4,-11,-1,2,3
1529288075745505,0,-2,-4,0,2,0,-1,-4
1529288075745505,1,5,4,8,5,5,0,-1
1529288075754482,4,4,-1,-2,8,1,1,-1
1529288075754482,-1,3,-2,1,5,2,-1,-2
1529288075768837,-8,-5,-4,-4,-6,1,-3,-5
1529288075768837,-4,3,4,-3,-11,1,-3,-4
1529288075775845,2,-3,1,2,-3,-4,-2,-3
1529288075775845,4,-2,0,1,2,-3,-3,0
1529288075791776,0,-5,-8,-7,-2,-2,0,-2
1529288075791776,-3,-1,-4,-7,2,-4,0,2
1529288075793770,-8,-6,-2,-7,-3,-1,-3,-1
1529288075793770,6,11,4,1,1,-1,-2,1
1529288075805773,4,0,0,6,6,5,6,5
1529288075805773,1,3,2,1,-2,-6,-14,-4
1529288075814762,0,4,3,3,1,4,4,10
1529288075814762,-4,-6,0,2,-2,3,-2,0
1529288075828677,-3,-2,-7,-1,5,10,1,-11
1529288075828677,-2,1,-10,-8,-12,-11,5,1
1529288075835692,-4,-6,-12,-2,11,27,-1,-7
1529288075835692,1,3,2,5,11,10,7,4
1529288075851616,0,-2,3,-3,-5,-11,-4,-1
1529288075851616,0,-5,4,3,19,10,3,-3
1529288075853610,-3,-2,-3,-10,-33,-42,-12,-8
1529288075853610,-1,-11,-1,2,25,47,9,2
1529288075865580,-5,-6,-1,1,0,0,-10,-9
1529288075865580,-2,1,-1,-1,3,5,0,-3
1529288075874555,-1,3,-1,5,-3,-8,2,1
1529288075874555,-3,-4,-4,-1,-13,-16,-8,-6
1529288075888570,-6,-4,-8,-11,-14,-19,-13,-10
1529288075888570,2,0,2,6,17,10,9,11
1529288075895678,4,2,2,-4,8,4,5,11
1529288075895678,4,3,3,0,16,17,13,4
1529288075912040,5,2,8,3,2,-3,3,-1
1529288075912040,0,-8,-7,-4,-6,7,-3,-8
1529288075913856,-2,-2,-5,-3,-8,-9,-4,-1
1529288075913856,-1,0,-4,-2,-7,-3,-8,-5
1529288075925991,0,-5,-4,-2,6,0,13,4
1529288075925991,-3,-9,-4,-3,-10,-21,-25,-4
1529288075934800,11,14,11,8,11,10,13,12
1529288075934800,-5,-3,-3,-8,-14,-23,-11,-10
1529288075948761,-3,1,2,3,7,13,2,2
1529288075948761,6,5,1,-3,-6,-1,5,3
1529288075955744,2,-5,1,0,4,9,3,4
1529288075955744,-2,0,2,3,-4,-13,-7,0
1529288075971704,0,-1,0,0,-4,-2,-8,-8
1529288075971704,-5,-1,0,0,-4,-6,7,-3
1529288075973695,-2,-3,-2,-1,1,-1,-4,-6
1529288075973695,0,3,3,-2,-2,-7,6,5
1529288075986185,-1,-3,0,-2,-2,-5,-4,3
1529288075986185,-1,2,-2,-3,-16,-10,4,1
1529288075994824,2,1,-3,0,5,15,11,2
1529288075994824,2,-5,-2,-3,-2,0,-1,1
1529288076008968,-2,3,-1,-2,-1,2,-1,2
1529288076008968,1,3,0,-4,-3,-3,0,-3
1529288076015985,-5,-2,3,0,-5,-8,-9,-13
1529288076015985,-5,-5,1,0,0,-11,3,0
1529288076031930,1,-5,0,0,-2,-4,-2,1
1529288076031930,2,4,5,4,0,7,8,8
1529288076033889,-4,2,-2,1,-6,-2,-9,-5
1529288076033889,-1,2,-7,5,-4,-1,-3,-1
1529288076046030,2,2,-1,6,-2,-2,-2,3
1529288076046030,-5,-3,-3,5,4,9,-3,-8
1529288076055077,-5,-1,-3,-2,-6,-1,5,0
1529288076055077,-3,2,1,-4,-9,-6,-3,3
1529288076068973,-2,3,0,3,0,1,4,9
1529288076068973,0,0,-2,1,-4,3,0,3
1529288076074957,-1,-3,2,-1,-3,2,1,-3
1529288076074957,-3,-5,-3,0,-1,-1,-1,-2
1529288076090915,0,-3,-2,-6,-20,-10,0,1
