timestamp,emg1,emg2,emg3,emg4,emg5,emg6,emg7,emg8
1529306542317802,-2,-1,-1,0,7,1,-9,-4
1529306542317802,0,-3,2,-1,-7,-8,1,-1
1529306542333746,-6,-1,-6,-8,-10,-6,-13,-7
1529306542333746,-3,1,-3,-5,-10,-4,-1,-2
1529306542340714,0,2,-1,1,1,-1,0,2
1529306542340714,0,-5,0,3,7,11,2,0
1529306542348719,-2,1,-5,-2,-1,-9,-3,1
1529306542348719,5,4,4,7,16,30,17,4
1529306542358666,-4,-6,-1,-5,-5,-1,-2,-1
1529306542358666,0,5,-1,-4,-21,-18,-6,0
1529306542370635,3,-1,0,4,15,17,7,3
1529306542370635,-2,-6,-2,-3,-3,-24,-20,-8
1529306542378613,4,4,-1,5,7,20,17,5
1529306542378613,0,0,-1,-1,1,-2,0,-1
1529306542393574,-2,0,1,-5,-6,-16,-13,-5
1529306542393574,1,2,4,6,10,19,3,3
1529306542408535,-1,-3,1,-4,-9,-12,4,-2
1529306542408535,-3,-2,-8,-4,-7,3,-2,0
1529306542415514,0,1,4,5,9,3,3,0
1529306542415514,-3,-2,-3,-4,4,0,-1,-3
1529306542432470,-1,-1,1,-1,-7,-4,-1,-3
1529306542432470,0,0,-1,-1,4,6,3,2
1529306542438453,-3,-6,-7,-12,-21,-24,-16,-7
1529306542438453,-2,0,-1,3,7,11,10,2
1529306542454410,2,2,2,11,10,14,4,1
1529306542454410,-2,-5,-3,-7,-6,-12,-2,-3
1529306542460395,0,0,2,1,4,19,5,1
1529306542460395,-3,-3,-3,-3,-7,-17,-6,-5
1529306542475354,-1,1,0,-1,-11,-13,-8,-5
1529306542475354,-3,-4,0,4,2,0,-2,-3
1529306542490315,0,-4,-1,0,7,6,-1,2
1529306542490315,3,5,4,-2,-8,-2,8,3
1529306542498295,-1,-5,-6,-6,-1,-11,0,-1
1529306542498295,0,0,3,1,4,12,3,1
1529306542513253,-5,-8,-13,-13,-4,-8,-3,-4
1529306542513253,-2,0,0,-4,-3,-2,-3,-1
1529306542520235,0,-2,-2,5,-2,-4,-3,-4
1529306542520235,-1,1,-4,0,0,1,3,3
1529306542535195,2,2,1,-5,1,10,2,2
1529306542535195,-3,-3,0,10,2,-7,-6,-4
1529306542552175,-3,-1,-3,-2,-4,-7,-5,-3
1529306542552175,2,2,3,-2,2,4,1,2
1529306542558133,-3,-5,-1,1,-3,-6,-4,-3
1529306542558133,-1,-2,-4,0,5,2,4,1
1529306542581087,-1,-1,-5,-8,-5,-3,-4,0
1529306542581087,-2,-7,-3,-4,-3,-3,0,-2
1529306542588055,1,3,3,6,-1,-3,-6,-1
1529306542588055,1,5,2,-3,0,1,3,1
1529306542596031,-5,-9,-3,1,-3,-4,0,-4
1529306542596031,1,2,1,-1,1,4,6,2
1529306542611006,-2,-1,7,7,-1,-3,-5,-5
1529306542611006,-4,-1,-10,-8,1,1,0,-1
1529306542618023,0,1,6,7,1,1,-2,1
1529306542618023,2,-3,-1,0,3,4,-1,0
1529306542632934,-2,-5,0,4,3,12,3,-2
1529306542632934,-4,-2,-4,1,-2,-2,-3,-2
1529306542647893,2,5,3,4,4,6,1,2
1529306542647893,-1,-1,-3,-6,-6,-6,-5,-2
1529306542655905,0,-2,-1,-8,-2,-5,0,-2
1529306542655905,-3,-2,-5,-2,-3,0,-1,-1
1529306542670831,4,6,5,2,2,2,1,1
1529306542670831,-3,-5,-1,2,-1,-1,-5,-3
1529306542677812,-1,0,-5,-5,1,2,4,2
1529306542677812,1,1,3,-5,-4,-3,-3,-1
1529306542692772,-1,-2,-5,-4,0,0,0,-1
1529306542692772,1,-1,-1,2,1,2,-2,-1
1529306542700764,0,3,-5,-5,-5,-3,-6,-2
1529306542700764,-1,-2,-1,0,-2,0,-3,-1
1529306542715729,-3,-6,-8,-3,-1,-2,0,-3
1529306542715729,-3,-3,-4,-1,-1,-4,-3,-1
1529306542730674,-2,-2,-1,-4,-3,-3,-2,-5
1529306542730674,0,-1,-2,-3,-1,0,-5,0
1529306542738652,-2,-1,-2,-1,-1,-4,-4,-1
1529306542738652,0,-1,-1,-5,0,3,1,0
1529306542753612,-1,-2,1,10,0,-6,-3,1
1529306542753612,1,1,1,5,2,5,8,1
1529306542760592,0,-1,5,1,0,-1,-2,-1
1529306542760592,-2,-1,-1,-1,-1,-3,-1,-1
1529306542775552,0,0,-1,-3,-1,-5,-2,0
1529306542775552,-3,-2,0,6,1,-3,-5,-3
1529306542790512,2,4,4,1,5,13,5,2
1529306542790512,1,-1,0,-2,-4,-2,-2,-1
1529306542798490,-3,-2,-6,-9,-5,-3,1,-1
1529306542798490,-3,1,8,9,2,-8,-7,-4
1529306542813450,-2,-6,-13,-9,-9,-3,4,-2
1529306542813450,0,2,-1,-4,5,-3,-12,-1
1529306542820432,-2,-1,1,4,-4,2,6,-1
1529306542820432,0,1,8,7,1,-2,-1,-1
1529306542835392,-5,-2,-1,-6,-4,-15,-9,-8
1529306542835392,3,3,-4,1,13,25,9,13
1529306542850351,-1,1,7,5,-3,0,0,0
1529306542850351,2,-1,-4,-6,-4,-1,2,0
1529306542858330,2,1,2,4,-2,-7,1,2
1529306542858330,-1,-3,0,1,3,9,4,-3
1529306542873290,0,-2,2,-2,-1,-6,-8,-3
1529306542873290,-3,-4,-3,-1,-3,3,3,-3
1529306542880271,1,0,3,1,-2,-7,-7,-1
1529306542880271,-1,-4,-7,-5,-1,6,3,-3
1529306542895252,-2,0,-3,-7,0,-4,-2,-1
1529306542895252,-1,1,-2,-2,0,-3,-1,0
1529306542910191,-1,-2,-2,-3,-3,-7,-5,-1
1529306542910191,-3,-2,2,4,3,5,5,0
1529306542918170,1,-2,-1,4,3,5,7,4
1529306542918170,-1,0,-6,-4,-5,-7,-5,-1
1529306542933130,-2,2,4,5,6,5,5,0
1529306542933130,-4,-6,-9,-9,-7,-10,-6,-3
1529306542941108,0,2,3,5,5,8,0,0
1529306542941108,-2,-5,-5,-7,-5,-10,-3,-4
1529306542956068,-3,-2,-3,-5,2,7,-3,-3
1529306542956068,-3,-1,-1,1,-6,-8,-4,-2
1529306542971029,-5,-3,-7,-5,-1,-4,-2,-1
1529306542971029,0,2,3,1,1,3,4,3
1529306542978013,1,2,3,6,0,2,-2,-2
1529306542978013,-2,0,0,-7,-1,-5,-1,-3
1529306542992971,-1,0,4,10,0,-3,-2,-2
1529306542992971,-2,1,-2,-3,1,1,-1,-3
1529306543000949,0,0,-1,-1,-2,1,-2,0
1529306543000949,-2,-2,-3,-3,1,-1,0,-1
1529306543015909,0,1,3,1,-4,-4,-2,-2
1529306543015909,0,-2,-3,-1,1,1,0,0
1529306543030868,-2,-1,-2,-2,-4,-5,-2,-2
1529306543030868,-1,2,0,0,1,0,-3,-2
1529306543037862,-2,-2,0,-1,-6,-2,-4,-1
1529306543037862,0,1,2,0,-3,-3,5,-1
1529306543052811,1,0,-6,-3,1,2,0,-1
1529306543052811,-3,-5,-3,1,0,-3,-3,-3
1529306543060788,1,-1,-2,-4,1,2,0,0
1529306543060788,-3,-4,-1,-1,-7,-4,-4,-3
1529306543075748,-3,-3,-7,-6,-3,-2,-3,-3
1529306543075748,0,-1,0,4,0,-1,-2,0
1529306543097690,-1,-1,-3,-3,0,2,4,0
1529306543097690,1,1,3,1,-4,-2,-3,0
1529306543105677,-3,-3,0,-6,0,-1,-1,-1
1529306543105677,-2,-1,-4,2,-2,5,7,2
1529306543120629,-3,-1,1,-1,-4,-3,-8,-3
1529306543120629,0,1,0,1,0,-2,0,1
1529306543128607,-3,-2,-5,-1,-1,0,3,0
1529306543128607,-2,-4,-2,-4,-4,-11,-21,-6
1529306543143567,-1,-2,-1,1,1,4,5,-1
1529306543143567,1,-2,-1,-4,-3,-4,-3,-1
1529306543158528,-1,0,-2,-1,1,1,4,0
1529306543158528,-3,2,2,1,-2,-1,1,-4
1529306543173487,2,0,-1,-3,-1,-2,0,2
1529306543173487,-2,-2,1,1,-1,-1,1,-1
1529306543180469,-7,-2,-4,-1,-2,-6,-10,-12
1529306543180469,1,0,-1,1,-3,-6,-1,3
1529306543195429,15,0,-1,-2,-6,-4,-2,16
1529306543195429,-16,-4,2,0,2,3,-1,-8
1529306543210390,1,-2,0,-2,-6,-13,-11,-1
1529306543210390,-3,0,-2,1,0,-2,3,-2
1529306543218368,5,1,0,-2,1,4,-1,2
1529306543218368,0,-3,-2,-2,2,2,3,-1
1529306543233600,-4,-3,-2,0,-2,-2,-11,-6
1529306543233600,-3,-2,0,0,-2,-1,0,-2
1529306543241359,-3,-1,-4,-4,-4,-8,0,-3
1529306543241359,3,2,1,1,4,13,2,4
1529306543255826,-3,-3,2,-1,-4,-1,1,-3
1529306543255826,-3,-5,-2,-2,-4,-11,-11,-5
1529306543263824,-2,1,1,3,0,1,-2,-1
1529306543263824,1,-1,-2,-2,-3,-2,3,0
1529306543278779,-5,0,-3,-5,-5,-8,-6,-5
1529306543278779,-1,2,1,0,-6,-12,-8,-4
1529306543293926,0,0,-1,-2,7,12,5,2
1529306543293926,0,-2,2,3,3,-1,-5,-1
1529306543301042,-2,-2,-5,-4,4,8,5,-1
1529306543301042,0,-1,-3,-3,-6,-9,-4,-2
1529306543316046,-2,-1,0,2,-5,-8,-3,-2
1529306543316046,-2,0,-2,-2,-2,0,1,-1
1529306543323923,-1,-4,0,-1,-2,-1,-1,-3
1529306543323923,0,-2,-2,-2,-2,-1,1,-1
1529306543339072,-2,-2,-2,0,-2,-1,2,-1
1529306543339072,-1,0,-1,0,3,5,0,1
1529306543353419,-1,-1,2,-1,-1,1,1,0
1529306543353419,0,-1,-2,-4,-2,-7,-4,-1
1529306543361546,-1,1,2,1,-1,-1,-3,-1
1529306543361546,0,0,-1,-1,-2,-2,3,-1
1529306543375692,-2,-3,-4,-2,2,1,-3,-1
1529306543375692,-1,0,-2,-4,-7,-6,-7,-2
1529306543383657,-1,-1,0,2,0,2,6,0
1529306543383657,0,-3,-2,-1,5,6,1,2
1529306543398574,0,-2,0,-1,0,3,4,0
1529306543398574,-1,0,1,1,-1,2,2,0
1529306543413591,-1,-2,0,1,-3,-7,-8,-4
1529306543413591,-1,-1,-4,-5,1,2,5,1
1529306543421557,-1,0,3,4,2,7,-2,-2
1529306543421557,-1,-2,-2,-2,-1,-9,1,1
1529306543435199,-1,-2,-2,-2,-1,8,-1,-1
1529306543435199,0,-2,1,-2,-2,2,0,0
1529306543443390,-4,-3,-3,-3,-6,-10,-9,-5
1529306543443390,-2,-3,-1,-2,-3,-8,-7,-5
1529306543458138,-3,-2,-1,-3,-2,-3,-4,-1
1529306543458138,0,-1,-2,-2,-1,0,-7,-3
1529306543473098,0,1,-1,1,1,-2,1,-1
1529306543473098,-4,-2,-2,-2,0,3,1,-2
1529306543481080,-2,-2,-1,-1,-1,-3,-3,-1
1529306543481080,0,0,1,2,-1,-2,-1,0
1529306543496043,-2,-1,0,-2,-2,-1,-3,-1
1529306543496043,-2,0,0,-2,-2,0,-1,1
1529306543503019,-3,-2,-4,-3,2,0,0,-1
1529306543503019,-2,0,-3,-3,-2,-2,-3,-2
1529306543518486,-3,-1,2,4,-1,-5,-2,-3
1529306543518486,0,1,-3,-6,4,6,0,2
1529306543534003,0,0,-1,0,2,8,6,1
1529306543534003,0,1,-1,-1,-3,-6,-5,1
1529306543540988,1,1,0,2,4,4,0,-2
1529306543540988,0,-1,0,-1,2,4,3,2
1529306543555954,-5,-4,-1,-4,-4,-5,-5,-4
1529306543555954,0,-3,-2,1,-2,-5,-3,-2
1529306543563926,1,1,-4,-4,0,3,2,0
1529306543563926,-1,0,0,-1,-3,-5,-1,-4
1529306543578939,-1,-2,-2,-2,-1,-1,0,-1
1529306543578939,-1,-1,-3,-2,-3,-1,-2,0
1529306543585582,1,1,2,1,0,-3,6,1
1529306543585582,1,0,1,5,4,5,2,1
1529306543600769,1,-2,-3,-3,2,6,6,3
1529306543600769,-2,-1,-2,-3,-5,-5,-3,-1
1529306543615717,-1,0,-2,-1,-5,-11,-2,-1
1529306543615717,0,1,1,1,8,10,3,1
1529306543623823,-1,1,0,0,-3,-3,0,-2
1529306543623823,-2,-1,-1,3,-4,-1,0,-2
1529306543638761,-1,-2,-2,-7,-4,-4,-4,0
1529306543638761,-1,-1,-2,-3,-5,-9,-6,-4
1529306543646483,0,-1,-1,-1,-3,-4,-3,0
1529306543646483,0,0,0,1,2,3,0,0
1529306543661502,-4,-3,-3,-5,-8,-12,-8,-4
1529306543661502,1,0,0,2,3,3,3,-1
1529306543676104,-2,-1,-1,0,-1,-3,-3,-1
1529306543676104,2,1,-1,-2,5,6,6,3
1529306543683816,-1,-1,0,-1,2,6,-4,0
1529306543683816,-2,-2,-2,-5,-6,-6,-1,-1
1529306543698819,-1,1,-1,1,2,-1,-7,-2
1529306543698819,0,3,2,1,-6,-5,0,-2
1529306543705919,-2,-6,-6,-4,-7,-11,-6,-3
1529306543705919,2,2,0,0,7,13,3,2
1529306543720890,-2,-1,1,0,-2,1,3,1
1529306543720890,-3,-4,-2,-2,-1,-7,-6,-3
1529306543735629,-2,-2,-2,-2,-1,-2,1,-2
1529306543735629,-1,0,0,1,0,-4,-2,0
1529306543742886,0,-1,-1,0,4,7,0,0
1529306543742886,-2,-1,-4,-3,-4,-1,2,1
1529306543758918,0,1,1,1,0,1,3,0
1529306543758918,-2,-2,-2,-3,-7,-8,-6,-3
1529306543766332,-1,1,0,2,5,5,1,0
1529306543766332,-4,-4,-1,-1,-4,-5,-6,-2
1529306543781428,0,-3,-1,-2,-2,-2,-1,-1
1529306543781428,0,1,-2,-1,-3,0,1,1
1529306543788709,-1,0,1,-1,-1,-2,-3,-1
1529306543788709,0,1,0,0,-4,-3,-1,0
1529306543803324,1,-1,0,0,-5,-6,-5,-2
1529306543803324,0,0,-2,-1,2,1,0,1
1529306543818457,-1,0,0,0,1,5,0,0
1529306543818457,-2,-4,-3,-3,-2,1,1,-3
1529306543825266,-1,-3,-3,-3,-4,-5,-3,-2
1529306543825266,-1,-1,-1,-2,-3,-6,-3,-2
1529306543841222,0,-1,0,0,-1,-6,-1,-2
1529306543841222,1,0,1,0,4,8,4,-1
1529306543848206,-2,-2,-2,0,0,-1,-2,-1
1529306543848206,-2,-1,-1,-1,-2,-1,0,0
1529306543863202,-2,0,-1,-1,-1,1,-1,-2
1529306543863202,2,0,0,-1,0,-2,0,0
1529306543878154,-1,-1,0,-1,-1,2,-2,-1
1529306543878154,-1,-2,-2,-2,0,-2,-3,0
1529306543886119,-2,-3,0,-1,0,3,1,-1
1529306543886119,-2,-3,-3,-1,-1,-2,-2,-1
1529306543901271,-1,-2,-1,-2,-1,-1,-1,0
1529306543901271,-1,0,0,0,-2,1,0,-2
1529306543908239,0,-1,0,1,-2,-3,0,0
1529306543908239,0,0,-1,1,-2,-1,0,-1
1529306543923423,-1,1,-2,-1,-1,-2,0,0
1529306543923423,-2,-2,-2,-2,-2,0,-3,-1
1529306543938399,0,-1,-1,0,-1,1,-1,0
1529306543938399,-2,-2,1,-1,-1,-1,-2,-1
1529306543946311,-1,1,-1,-2,-1,-1,-2,-1
1529306543946311,-1,-1,0,0,-1,1,-1,-1
1529306543961311,-2,-2,1,-1,-1,1,-2,2
1529306543961311,-1,-1,-1,-2,0,-2,0,-1
1529306543968585,0,0,0,-3,-3,-2,0,0
1529306543968585,-1,-3,-2,-1,0,-2,-2,-2
1529306543983925,-1,-1,0,-1,-1,-1,-2,-1
1529306543983925,-1,-1,-1,-2,-1,-1,-1,-1
1529306543998777,-2,-1,0,0,-2,1,-1,-1
1529306543998777,-1,-2,-1,-2,0,0,0,-2
1529306544005451,-3,-1,-1,0,-1,0,-1,-2
1529306544005451,-1,-2,-1,-1,-2,-2,0,0
1529306544020373,0,-1,-3,-2,-1,-2,0,0
1529306544020373,-2,-1,-1,-2,-2,-2,-1,0
1529306544028350,-2,-2,0,-2,-1,-1,-1,-1
1529306544028350,-1,0,-1,-2,0,-1,-1,-1
1529306544043797,-1,0,-1,-2,-2,-1,0,0
1529306544043797,-1,-1,0,-1,-2,-1,0,-3
1529306544058864,0,-1,-1,0,-2,-3,0,0
1529306544058864,-1,-1,-1,-3,-1,-1,-1,-1
1529306544066258,-1,-2,-2,-1,1,-2,-2,-3
1529306544066258,-1,0,-1,-1,0,-2,1,0
1529306544081120,-3,-1,-1,0,-2,-2,-1,-1
1529306544081120,-2,0,-1,0,-2,-1,-1,-1
1529306544088355,-1,-1,-1,-1,-1,-2,-3,0
1529306544088355,0,-2,-2,-2,-1,0,-1,-2
1529306544103357,-2,-1,-1,0,0,1,-1,-1
1529306544103357,-1,-5,0,-1,-2,-2,0,0
1529306544118531,-1,-1,0,-1,-1,0,0,0
