timestamp,emg1,emg2,emg3,emg4,emg5,emg6,emg7,emg8
1528878192246583,-2,-3,0,1,-1,0,-1,-2
1528878192246583,-1,1,-1,-2,0,-1,0,-2
1528878192247580,-2,-2,-2,-1,-1,-1,-2,-3
1528878192247580,0,-1,-2,-2,-1,-1,-3,0
1528878192250571,-1,-1,-2,-1,1,-1,0,0
1528878192250571,-1,-1,-1,-2,-3,-2,-1,-1
1528878192255560,-1,0,-1,-1,-1,-1,-2,-1
1528878192255560,-1,-2,-2,-2,-1,0,-1,0
1528878192257555,0,-1,-1,-2,-1,0,-2,-1
1528878192257555,-3,-1,0,2,0,-1,-1,0
1528878192268525,-1,0,-1,-3,-2,-1,0,0
1528878192268525,-3,0,1,-1,-1,0,0,-1
1528878192281489,-1,0,-1,-1,2,1,-1,-1
1528878192281489,1,-1,0,-1,0,-1,0,0
1528878192288472,-2,-2,-2,0,-1,0,-2,0
1528878192288472,-1,-1,2,0,-1,-2,-1,-3
1528878192296489,-1,1,4,-2,-2,-1,-2,-2
1528878192296489,1,-2,-5,-2,-1,0,1,2
1528878192318448,-1,-2,4,-2,-3,-3,0,-2
1528878192318448,-1,1,-3,-10,-12,-4,-3,-1
1528878192319398,-1,1,-3,0,7,2,-1,-2
1528878192319398,1,3,16,9,2,2,2,0
1528878192364268,0,0,30,8,4,0,-2,0
1528878192364268,-4,-6,-48,-18,-11,-6,-3,-4
1528878192365265,0,2,6,2,-4,-4,-2,-3
1528878192365265,-3,-5,3,0,-2,-2,-3,-2
1528878192366262,1,6,20,27,14,5,3,2
1528878192366262,2,7,22,6,0,0,0,2
1528878192370253,-6,-11,-18,-17,1,0,-2,-2
1528878192370253,0,4,11,1,0,0,0,0
1528878192378238,-2,-4,-12,-15,-7,-4,-2,-2
1528878192378238,1,2,11,10,2,-1,0,-1
1528878192386211,-1,-1,1,-3,-4,0,-1,-1
1528878192386211,0,-2,-3,-2,-3,0,-2,-2
1528878192391196,-3,-4,-8,-10,-6,0,-2,-2
1528878192391196,2,0,-5,-2,0,0,0,0
1528878192408150,0,2,21,2,-3,0,0,-1
1528878192408150,-2,-5,-37,-4,-1,-2,0,1
1528878192414135,2,1,3,3,0,0,1,0
1528878192414135,-3,0,24,7,5,-2,0,-1
1528878192437073,-3,-8,-39,-6,-2,-1,-1,-1
1528878192437073,-1,2,18,4,1,-1,-2,1
1528878192438070,-6,-6,-21,-12,-6,-2,-2,-3
1528878192438070,-2,-1,10,3,0,-1,0,-1
1528878192452121,2,3,-9,1,-2,-7,-6,-1
1528878192452121,-2,-2,-11,-1,-2,3,2,-1
1528878192459247,1,4,27,5,-1,-3,-2,-1
1528878192459247,-1,-7,-5,-8,0,4,3,1
1528878192474972,-3,-4,3,6,1,-1,-1,-2
1528878192474972,-1,-1,-23,-5,-3,-2,-1,-1
1528878192475970,-1,-2,7,1,-2,-2,-3,-1
1528878192475970,1,-3,-24,-10,-4,-4,-5,-1
1528878192496914,0,1,18,7,-1,-1,-3,-3
1528878192496914,0,-3,-27,-8,3,7,8,0
1528878192497911,-1,1,16,2,0,-5,-2,1
1528878192497911,-1,3,11,7,2,-1,-4,0
1528878192512871,-5,-7,-26,-9,-7,-3,0,-4
1528878192512871,1,2,13,5,-1,0,-3,2
1528878192518854,1,1,-10,7,11,2,2,0
1528878192518854,0,2,2,-5,1,2,-1,-1
1528878192534812,2,2,-14,1,-2,-3,-3,1
1528878192534812,-2,2,35,-3,-6,-6,-5,-4
1528878192535810,0,0,-34,-14,-14,-6,-3,-2
1528878192535810,-4,-9,-18,-4,-3,-2,-2,-1
1528878192557752,-1,-6,-2,2,6,2,2,2
1528878192557752,1,2,1,3,3,3,1,-1
1528878192557752,2,4,-11,-7,-4,-1,0,0
1528878192557752,-2,-1,5,1,-3,-6,0,-3
1528878192571713,-3,2,19,0,1,2,-1,0
1528878192571713,0,-4,-34,-2,-3,1,-5,-2
1528878192578697,-2,-1,-4,-1,5,4,3,0
1528878192578697,1,-2,-2,-3,-8,-5,-3,-3
1528878192594653,-1,-11,-47,-10,-6,-3,-1,0
1528878192594653,-4,-10,6,4,5,-2,0,-1
1528878192595650,-3,-4,0,1,-2,-2,-3,-5
1528878192595650,1,2,9,0,3,4,2,1
1528878192617629,0,12,10,-1,0,0,-1,-1
1528878192617629,0,-8,-13,-7,-7,-5,-4,-3
1528878192618612,-2,-3,-26,-13,-9,-3,-2,0
1528878192618612,0,-3,4,2,3,0,-1,0
1528878192631592,2,11,16,12,7,-1,3,1
1528878192631592,0,6,38,1,-2,-2,-1,-1
1528878192639533,-2,-12,-37,0,4,3,0,1
1528878192639533,-3,-2,20,-10,-7,-2,-2,-3
1528878192654493,-2,1,18,7,-6,-3,-3,-3
1528878192654493,-3,0,28,0,-2,-7,-3,1
1528878192655490,2,0,23,-6,-3,-1,-3,2
1528878192655490,-1,-8,-42,8,6,2,2,-2
1528878192677479,-1,-2,35,1,-2,-2,-3,-3
1528878192677479,-5,-15,-22,-7,-1,-1,-1,-3
1528878192678429,3,5,3,4,4,-2,-1,-2
1528878192678429,-5,-11,-6,-6,-2,-1,-2,-3
1528878192691422,2,4,21,6,-2,0,-1,2
1528878192691422,0,7,-4,-8,-3,-3,-1,-1
1528878192699425,-2,0,11,3,-3,-3,-1,-3
1528878192699425,2,2,16,6,-1,2,0,0
1528878192714351,1,-3,-38,-13,1,1,1,0
1528878192714351,-1,2,15,5,-2,0,0,0
1528878192715329,1,3,22,1,0,1,1,-2
1528878192715329,-6,-1,7,2,-3,-3,-4,0
1528878192737271,-3,-11,-46,-10,-1,0,-1,-2
1528878192737271,-1,0,31,6,-1,-3,-2,-3
1528878192738269,-3,-6,-16,-8,-3,-2,-1,-1
1528878192738269,1,4,0,-1,-1,-1,0,-2
1528878192751234,-1,-3,13,1,1,0,1,1
1528878192751234,-3,-4,-1,-5,-2,-4,-4,-3
1528878192759213,0,0,-6,2,3,3,-1,0
1528878192759213,1,3,-4,1,-3,-2,-2,1
1528878192775224,-1,-1,17,1,0,0,1,0
1528878192775224,4,8,3,9,1,1,0,1
1528878192775224,-2,-1,-9,0,-2,-1,-3,-4
1528878192775224,1,4,-11,-2,-1,0,0,3
1528878192797137,-1,-4,-10,-7,-4,-1,-2,-4
1528878192797137,-1,-7,-29,-6,-3,-1,-1,4
1528878192798109,-2,1,-1,-2,-3,-1,-2,-6
1528878192798109,2,2,15,0,1,-3,-2,4
1528878192812073,-5,10,2,3,0,-1,0,-15
1528878192812073,-9,-26,-14,-3,1,0,0,-3
1528878192819054,1,-12,8,-1,-2,-1,-2,0
1528878192819054,2,13,27,-3,-5,-1,0,-3
1528878192835056,7,-3,-22,1,0,-1,0,11
1528878192835056,-9,6,-25,0,3,2,2,-6
1528878192836036,-5,9,38,5,2,0,-2,-23
1528878192836036,0,-24,-20,0,-1,-1,-1,-2
1528878192856952,-1,1,42,-5,-9,-6,-4,1
1528878192856952,1,6,9,-3,-1,0,-1,-7
1528878192857949,-4,-1,9,-7,-5,-6,-5,3
1528878192857949,6,11,34,23,11,6,4,3
1528878192879891,-4,-8,20,-4,-3,-2,-2,-6
1528878192879891,10,15,-9,8,6,0,0,7
1528878192880888,0,-7,-76,-8,-7,-4,3,15
1528878192880888,-8,8,38,-3,-2,0,-2,-9
1528878192894852,2,-3,-24,-2,0,6,2,5
1528878192894852,4,-5,1,-8,-4,-3,-2,-2
1528878192895849,-3,1,12,6,0,-7,0,4
1528878192895849,-2,-3,-46,-9,-3,6,2,6
1528878192917790,-3,0,-1,-3,-3,-4,-4,-3
1528878192917790,1,1,7,-1,0,0,-2,9
1528878192917790,-1,2,18,1,0,-3,-8,-23
1528878192917790,-8,-7,-49,-3,0,-3,-3,-1
1528878192939731,11,-3,23,-4,1,1,-1,-2
1528878192939731,-2,6,-46,0,-5,-2,0,1
1528878192940728,-5,-13,-24,-6,-6,-2,-2,3
1528878192940728,0,-1,15,-1,0,-1,-2,-5
1528878192954727,-4,0,-7,-8,-4,-3,-2,2
1528878192954727,-3,0,10,4,4,2,2,-5
1528878192955692,2,-1,1,0,5,6,3,8
1528878192955692,-1,-4,-34,-10,-7,-6,-8,-1
1528878192977629,-4,2,11,0,-1,-7,-5,-2
1528878192977629,-1,-1,14,-3,-2,-4,1,-4
1528878192977629,-1,-3,-6,-3,-1,19,1,4
1528878192977629,1,-3,10,-3,-4,-12,3,-1
1528878192999570,-3,5,1,3,4,0,-13,-1
1528878192999570,6,0,8,6,1,15,14,2
1528878193000567,2,-3,2,-1,4,-6,-1,1
1528878193000567,1,4,1,-3,-6,-9,0,-3
1528878193014576,1,5,6,4,0,0,0,0
1528878193014576,0,-5,-26,-8,1,-7,-4,-4
1528878193015528,1,-2,-8,0,-1,-1,0,3
1528878193015528,-2,-6,4,-1,1,0,-1,-2
1528878193037468,-3,1,-12,-3,0,8,3,-2
1528878193037468,0,-2,15,-1,-1,-3,-8,-1
1528878193038466,-1,4,-5,6,-2,-3,0,-1
1528878193038466,0,3,14,7,8,3,-1,0
1528878193059437,-2,-8,-17,2,0,7,7,1
1528878193059437,-2,0,8,-6,-8,-9,-11,-2
1528878193060407,-3,-5,1,-6,-4,-6,2,-3
1528878193060407,-1,-2,-16,-1,2,15,4,0
1528878193074370,-3,-8,0,-4,-4,-5,-3,-1
1528878193074370,-1,-3,-6,0,5,17,6,0
1528878193075368,-2,4,17,6,3,-10,-6,-3
1528878193075368,-2,-2,1,-4,-3,-5,-3,-1
1528878193097364,2,9,4,-2,-3,-5,1,1
1528878193097364,-3,-2,-16,-2,-7,-9,-5,-3
1528878193098367,0,-2,-1,-2,1,6,1,2
1528878193098367,-1,-1,-7,-8,0,1,-1,-2
1528878193120283,0,1,-9,5,-3,-1,-1,-2
1528878193120283,-1,2,8,1,-2,-7,-2,0
1528878193120283,-1,-1,-19,-6,-4,-1,-1,0
1528878193120283,-2,-1,48,14,3,1,-1,-2
1528878193135265,-3,-9,-54,-10,2,-2,-1,0
1528878193135265,-1,-3,35,-9,0,0,-1,0
1528878193135265,2,4,10,25,0,2,2,0
1528878193135265,-3,-6,-3,-20,-4,-3,-3,-2
1528878193157175,-1,-4,14,-1,-3,-1,-2,-3
1528878193157175,0,-1,-9,0,-1,1,-1,1
1528878193158148,-1,-5,-12,-12,-4,-3,-3,0
1528878193158148,1,9,6,-1,-4,-4,-3,0
1528878193180088,-1,2,27,12,6,-1,0,-1
1528878193180088,-3,-5,-4,-6,-6,-3,-2,-4
1528878193181107,-1,3,9,2,0,-2,-2,-1
1528878193181107,-2,-2,-7,-2,-5,-3,-2,-1
1528878193195107,0,7,15,-2,0,2,2,0
1528878193195107,1,5,-7,12,6,-1,-3,0
1528878193196080,-2,0,2,-9,-2,-1,-1,-1
1528878193196080,-1,-5,-25,-2,0,0,0,-1
1528878193216989,0,-4,-25,-4,-2,-3,-1,0
1528878193216989,-1,-1,24,7,1,-2,-1,0
1528878193217987,-1,1,18,-2,-1,0,-1,-2
1528878193217987,-1,0,-19,1,-2,-2,0,-2
1528878193239987,-2,-6,6,-8,-2,-1,-2,-2
1528878193239987,-3,-4,-53,-7,0,-2,-1,1
1528878193240984,-3,-2,47,3,0,-2,-1,-3
1528878193240984,2,3,24,6,-1,-1,-2,0
1528878193254932,0,-3,-3,-1,0,0,0,-1
1528878193254932,-3,0,-5,-4,-3,-2,0,-4
1528878193255886,1,3,11,-2,-3,-2,0,5
1528878193255886,0,-3,2,-1,-1,0,1,3
1528878193277213,-4,4,15,6,0,-2,-2,-15
1528878193277213,-7,2,0,-7,-3,2,0,-1
1528878193278213,18,-8,-47,-7,-2,-1,2,11
1528878193278213,-2,2,12,1,0,-1,-3,-4
1528878193300429,6,-3,-14,1,3,2,0,9
1528878193300429,-15,1,21,2,-2,-3,-2,-7
1528878193301152,0,-2,3,-3,-2,-5,-7,-7
1528878193301152,-6,-4,-17,-3,-2,-4,-1,-5
1528878193315477,-2,0,-15,-3,1,10,5,15
1528878193315477,-3,-1,-9,-1,-3,-1,2,-13
1528878193315477,-6,-1,0,1,-1,0,2,-9
1528878193315477,-1,-3,-17,-6,-6,-7,-9,2
1528878193337491,2,0,-4,-2,1,13,8,-4
1528878193337491,2,-1,7,-2,-7,-10,-9,-2
1528878193344676,-3,3,-26,-3,2,-7,4,-3
1528878193344676,-15,-5,-4,-2,-3,-7,-15,-13
1528878193360564,10,8,20,4,2,-6,1,-12
1528878193360564,10,-2,-16,4,5,2,-10,22
1528878193360564,7,-2,17,-2,-1,3,12,1
1528878193360564,-11,4,-7,-2,-1,8,11,6
1528878193383537,-4,1,10,-3,-7,-14,-21,-7
1528878193383537,21,1,45,3,-6,-16,5,4
1528878193383537,-22,-13,-64,-15,-9,-8,-15,-9
1528878193383537,5,-10,-17,-2,3,18,7,5
1528878193405811,-5,-4,-6,-3,0,-3,-9,-1
1528878193405811,1,5,9,2,2,-22,-10,-5
1528878193406556,11,6,31,7,5,2,-1,4
1528878193406556,9,7,-1,-2,-4,7,2,8
1528878193420655,-3,-5,-7,-2,-7,-17,15,0
1528878193420655,-3,-7,-40,-11,2,18,-12,-6
1528878193420655,-3,10,65,10,-3,-17,-5,-3
1528878193420655,-3,-7,-51,-10,-3,-14,-8,-6
1528878193443740,-1,-2,-2,5,-3,-13,-11,2
1528878193443740,-7,-5,-1,-7,0,-2,3,13
1528878193444639,-3,6,25,-4,-2,6,2,-19
1528878193444639,-2,-24,-71,-21,-10,-2,-5,-4
1528878193465441,1,8,5,9,6,9,1,4
1528878193465441,-2,0,26,8,-2,6,8,0
1528878193467436,-8,-12,-21,-3,0,13,-1,5
1528878193467436,3,6,26,-11,-3,-4,1,-3
1528878193479419,-1,-6,-27,-1,2,-1,1,-8
1528878193479419,-7,-3,37,0,-5,2,2,-8
1528878193480412,-1,-3,-50,-6,-5,-4,-5,3
1528878193480412,3,5,22,9,2,-4,1,-2
1528878193503674,-4,-7,0,-11,-3,3,3,1
1528878193503674,-2,2,-4,1,3,2,0,-1
1528878193503674,-1,4,-1,1,-1,-1,-2,3
1528878193503674,1,4,18,13,2,0,2,1
1528878193533755,-5,-11,-1,-5,0,5,-2,0
1528878193533755,-1,0,-8,-4,0,-1,0,-7
1528878193533755,2,-2,-16,-3,-1,2,1,1
1528878193533755,0,-1,27,6,1,2,-1,-1
1528878193539919,-1,-1,1,1,0,-2,-2,3
1528878193539919,-1,2,-22,-5,-2,0,-2,-3
1528878193540916,-1,-4,3,8,4,3,2,1
1528878193540916,2,4,10,-6,-1,-2,0,1
1528878193562856,-2,1,4,1,-1,0,-2,-1
1528878193562856,-1,5,2,-2,-2,3,2,-1
1528878193563853,0,3,6,9,6,3,-1,1
1528878193563853,2,7,7,0,1,-1,-2,-3
1528878193586037,-1,2,-4,2,-2,-1,0,1
1528878193586037,-2,-2,-11,-5,-2,0,1,-1
1528878193586992,-2,-2,0,-3,-5,-3,-4,0
1528878193586992,-2,-4,14,3,-1,-4,-1,-2
1528878193599333,0,0,-7,-5,-1,0,0,1
1528878193599333,-2,-1,-6,2,2,2,-1,-6
1528878193608213,1,-4,-6,-5,-3,-1,-2,2
1528878193608213,-2,-1,25,3,2,-2,0,-1
1528878193623028,-2,2,5,-3,-2,-1,-1,0
1528878193623028,-1,-1,-5,-1,-2,-2,-3,-3
1528878193625234,-2,-4,-3,-6,-3,-1,-2,1
1528878193625234,0,-1,-16,-3,0,-1,0,0
1528878193646285,-1,-3,12,0,-2,2,0,-2
1528878193646285,-1,-2,5,2,-1,-1,-1,2
1528878193647943,-2,0,-4,-7,-1,0,0,-3
1528878193647943,-1,-1,-2,1,-2,-2,-1,0
1528878193659224,1,2,4,-1,-2,-2,0,-2
1528878193659224,-1,-4,-13,-1,2,-1,2,0
1528878193668202,2,0,5,-1,-1,0,-3,-2
1528878193668202,-2,-2,-5,0,-2,-1,-3,-1
1528878193683426,-3,-2,-1,-3,-4,-3,-3,-2
1528878193683426,1,-1,7,2,3,0,2,1
1528878193685384,-4,-3,-6,-5,-2,-2,-2,1
1528878193685384,4,1,2,9,4,-1,2,3
1528878193705369,4,0,7,-1,-2,-1,1,0
1528878193705369,1,-1,3,-2,-4,-1,-1,0
1528878193707099,-2,0,8,0,-1,0,1,-3
1528878193707099,-1,-3,-11,-3,-1,0,0,0
1528878193719695,-3,-4,-25,-3,-3,-2,-2,-1
1528878193719695,-1,-2,-5,-1,-2,0,0,-1
1528878193728354,0,1,1,-2,-2,-1,-2,2
1528878193728354,0,-1,-5,4,3,1,1,-3
1528878193743687,2,1,32,2,2,0,-1,5
1528878193743687,-4,-6,-8,-4,-3,-2,-2,-4
1528878193745429,-2,-3,-14,-5,-2,-2,-1,-2
1528878193745429,-1,1,-7,-2,-1,-2,-5,-2
1528878193765308,-2,-3,-8,-4,-4,-1,-1,-3
1528878193765308,1,0,7,1,-2,-2,-1,1
1528878193767296,-2,-1,3,-1,-2,1,1,0
1528878193767296,1,0,2,1,1,-4,-2,0
1528878193779770,-1,-1,-10,1,2,1,2,1
1528878193779770,-3,-2,-5,-6,-6,-5,-7,-3
1528878193788594,1,-4,-15,0,0,0,0,-2
1528878193788594,-3,-1,14,-4,-2,0,-3,-3
1528878193803726,-2,-1,-2,2,3,1,-2,-3
1528878193803726,0,-3,-3,0,1,-2,-1,-2
1528878193804551,0,1,6,1,0,0,-1,-1
1528878193804551,0,1,-13,-4,-6,-1,-1,-3
1528878193825759,-3,0,31,-3,-6,-5,-4,-1
1528878193825759,-3,-2,-9,1,2,1,1,-1
1528878193827502,0,0,3,3,4,0,-2,-1
1528878193827502,0,0,4,-1,2,2,-1,-1
1528878193839026,-1,-1,-2,0,-3,-4,-3,-1
1528878193839026,-1,-4,-4,-3,-1,-1,-1,-1
1528878193848724,-1,3,-2,2,2,-1,0,-2
1528878193848724,-3,-6,-3,-4,-2,-1,-1,-1
1528878193862902,-1,3,-4,0,-1,-2,1,-2
1528878193862902,0,0,6,-1,-2,-1,-1,0
1528878193864591,-2,0,-10,-2,-2,-2,-1,-3
1528878193864591,1,3,5,0,-2,-3,0,-1
1528878193885684,-2,-6,-9,-1,2,2,0,-2
1528878193885684,0,3,7,0,-1,1,1,0
1528878193887665,1,3,6,2,0,1,0,-1
1528878193887665,-3,-10,12,-2,-4,-3,-3,-2
1528878193899791,0,0,-7,-4,-2,-2,-2,-1
1528878193899791,-1,1,2,2,0,-1,0,0
1528878193908403,-2,-2,13,-4,-3,-2,-2,-2
1528878193908403,-3,0,-22,-2,-4,-4,-1,1
1528878193923444,-1,-2,-8,2,-1,-1,-1,-2
1528878193923444,-2,-1,6,1,0,0,-1,-2
1528878193924582,0,1,0,2,2,0,0,1
1528878193924582,-1,0,7,-2,-1,-1,-2,0
1528878193946260,0,-2,-5,-1,-1,-2,-1,-2
1528878193946260,0,-1,-5,-3,-1,1,0,-1
1528878193947948,-2,-4,-4,-3,-5,-2,-2,0
1528878193947948,0,3,3,2,0,1,0,-3
1528878193959590,-3,-8,-6,-9,-2,-1,-2,-2
1528878193959590,-1,-1,-9,-1,0,-2,-1,1
1528878193968133,0,-3,-1,-3,0,-2,-2,-1
1528878193968133,-2,-3,10,0,0,-3,-1,-1
1528878193983302,0,4,7,2,0,1,0,-1
1528878193983302,-1,-1,-1,-3,-2,-2,-2,-2
1528878193984943,-1,-3,-41,-3,1,0,0,-1
1528878193984943,0,2,43,7,3,0,0,1
1528878194005527,-3,-6,-35,-8,-3,-3,-3,-2
1528878194005527,0,0,12,-1,-2,-1,1,0
1528878194007183,0,0,-15,-3,-2,-1,-1,0
1528878194007183,0,0,-20,-2,-1,1,-1,-1
1528878194019613,2,9,19,10,3,1,-1,0
1528878194019613,-5,-15,-21,-12,-5,-3,-2,-3
1528878194028221,0,1,28,2,0,-1,0,-1
1528878194028221,0,3,-3,5,1,-1,0,0
1528878194043923,-1,-1,18,-3,-3,-1,1,0
1528878194043923,2,6,5,8,4,0,-1,-2
1528878194044879,-2,-3,-6,-6,-4,0,-2,-3
1528878194044879,-3,-6,-34,-7,-5,-4,-2,-3
1528878194066086,0,2,15,6,1,-1,0,0
1528878194066086,0,0,-8,-2,-1,1,-2,0
1528878194067087,1,-1,26,4,-1,-2,-1,0
1528878194067087,1,-6,-47,-10,-5,-1,-1,-1
1528878194079926,-1,-3,-15,-8,-2,0,0,-1
1528878194079926,0,-1,3,-1,0,-1,-1,0
1528878194088057,-1,1,19,5,-1,0,-1,-1
1528878194088057,-1,2,-6,2,1,1,-2,2
1528878194102842,0,1,5,3,0,1,0,2
1528878194102842,-1,0,19,-1,0,-3,0,-3
1528878194109815,-3,-7,-34,-3,-1,-3,-1,-1
1528878194109815,1,2,39,3,-1,-2,-2,-1
1528878194125787,-4,-4,-20,-7,-2,-3,-1,-3
1528878194125787,1,1,-39,-2,-1,1,0,1
1528878194127400,-1,0,10,2,-3,-2,-2,-1
1528878194127400,-3,-2,-8,-3,-2,-1,0,-1
1528878194139271,-1,-2,6,5,-1,-2,-3,-1
1528878194139271,0,2,0,-1,-1,-3,0,-1
1528878194148205,0,-2,-15,-4,-1,-1,0,-3
1528878194148205,-1,-2,2,-3,-1,-1,-1,-1
1528878194163204,-1,-3,-3,-4,-2,-1,-2,-1
1528878194163204,-4,-2,-4,0,-2,-2,-2,-1
1528878194177415,-1,-1,4,-1,-2,0,-1,0
1528878194177415,-2,1,11,3,2,0,0,-2
1528878194186258,-1,-3,-10,-3,-3,0,-1,-1
1528878194186258,-2,-2,5,0,-3,-1,-2,-1
1528878194187131,-1,1,6,0,-1,-3,0,0
1528878194187131,-1,-2,-6,-2,-1,-2,1,-1
1528878194199334,-2,-1,-1,-3,-1,-1,-1,1
1528878194199334,1,-2,1,0,0,1,-1,0
1528878194208253,-1,-1,2,-1,-2,0,-1,1
1528878194208253,2,-1,-11,-6,-1,1,-1,2
1528878194222331,-5,-1,20,2,-2,-2,-2,-7
1528878194222331,1,-1,-2,1,1,0,-1,0
1528878194229558,0,-2,-10,-5,0,-1,0,-2
1528878194229558,-1,-5,13,-2,-2,-2,-2,-2
1528878194245819,3,-1,-33,-2,-2,0,0,-1
1528878194245819,-3,-3,5,1,-1,0,-2,-2
1528878194247779,-1,3,-3,-4,-3,0,-2,-1
1528878194247779,0,-1,3,-1,-2,-2,-1,-1
1528878194259520,0,1,2,-1,-1,-1,2,-1
1528878194259520,-3,1,-3,0,0,-2,-1,-1
1528878194268720,-1,-3,2,0,-1,0,0,0
1528878194268720,-3,-1,2,-2,-2,0,-1,-2
1528878194282459,2,-1,5,1,0,-3,0,2
1528878194282459,1,1,1,-2,-1,-2,-1,0
1528878194296421,-2,-2,5,0,-1,-3,-1,-2
1528878194296421,-1,0,-17,-4,-1,0,-1,0
1528878194305397,-2,-2,-4,-2,-2,0,-1,0
1528878194305397,0,0,4,1,-2,0,-1,-3
1528878194307439,0,0,2,-1,1,1,-3,3
1528878194307439,-2,-1,6,1,-1,0,-1,-2
1528878194328391,-2,-3,-12,-6,-3,-2,-2,1
1528878194328391,0,-1,-7,1,-1,-1,-1,-2
1528878194329334,-2,0,15,3,-1,-2,0,-3
1528878194329334,-2,0,-1,1,-2,-2,-2,0
1528878194342355,0,0,5,0,1,-1,-3,-2
1528878194342355,0,-1,0,-2,-1,-1,-1,0
1528878194349335,0,-1,-10,-2,-1,-1,-2,-2
1528878194349335,-2,-1,3,-2,-1,-1,0,-2
1528878194365292,1,-1,7,2,-1,1,-1,-2
1528878194365292,-3,-3,3,-2,-2,-1,-1,1
1528878194367233,1,-2,-21,-2,1,0,0,0
1528878194367233,-1,0,-1,0,-1,-2,-1,-1
1528878194388176,-3,-1,-1,0,-1,0,0,0
1528878194388176,0,0,4,0,1,0,-1,-2
1528878194389175,-2,0,3,-2,-2,0,-1,0
1528878194389175,-2,-2,-3,1,-1,-1,-1,0
1528878194403191,0,-1,-5,0,-1,1,-1,-2
1528878194403191,-2,-1,2,0,0,-2,0,1
1528878194409176,-2,-2,-1,-3,0,-3,0,-1
1528878194409176,0,-3,-8,-2,-1,-2,0,-3
1528878194425133,-1,2,11,1,0,-2,-2,-1
1528878194425133,-2,-1,-9,-1,-3,-2,-1,-2
1528878194427073,-1,0,1,-1,-2,-1,-1,-1
1528878194427073,0,-2,-2,-1,-2,0,-1,-1
1528878194448071,-2,0,-2,0,1,-1,0,-1
1528878194448071,1,-1,1,-1,-2,-1,-3,-1
1528878194450066,0,-1,-2,-1,1,-2,-1,-2
1528878194450066,-1,0,1,1,0,0,-1,-1
1528878194461981,0,-1,-4,-2,-2,0,0,-1
1528878194461981,-2,-1,-7,-2,-2,1,0,-1
1528878194470955,-3,-2,5,1,-1,0,0,0
1528878194470955,-1,0,0,-1,-1,-1,-1,-1
1528878194485984,-2,-1,-1,-3,-1,-1,0,0
1528878194485984,1,-1,0,-1,0,-2,-2,-1
1528878194486913,-1,-2,-4,-1,-2,1,-1,-1
1528878194486913,-1,-1,-1,-1,0,0,-1,-1
1528878194507911,-2,-2,-2,-1,-1,-1,-1,-1
1528878194507911,-1,-2,-2,-2,-1,-1,-1,0
1528878194509852,-1,0,0,0,-2,-1,-1,-2
1528878194509852,0,-3,-1,-1,0,-3,-1,0
1528878194521874,1,-3,-3,1,-2,-3,-2,-2
1528878194521874,-1,-2,3,-2,0,0,0,-2
1528878194530796,0,-2,-2,0,-1,1,-1,0
1528878194530796,-1,-1,0,-1,-2,-1,0,-1
1528878194545816,-1,-1,-1,1,0,0,-4,0
1528878194545816,-1,0,0,-1,-1,-2,-1,0
1528878194546807,-1,-2,-2,0,-1,-1,-1,0
1528878194546807,0,-2,2,1,0,0,-2,-1
1528878194567751,-2,-2,0,-1,-1,-2,1,-1
1528878194567751,-1,0,0,-2,-1,-1,-1,0
1528878194569693,-1,0,-5,-2,-2,-1,-1,0
1528878194569693,0,-1,0,0,0,-1,-2,-1
1528878194581718,0,-1,-2,-1,0,-1,-2,-2
1528878194581718,-1,-1,-1,1,0,-1,-1,-2
1528878194590635,0,-1,-1,0,-1,-2,-1,-2
1528878194590635,-2,-2,-3,0,-2,-2,0,-1
1528878194605816,1,1,-1,-1,-3,-1,0,0
1528878194605816,-1,-3,-1,-1,-1,0,-1,-2
1528878194607043,-1,-2,0,-1,-1,-2,-3,-2
1528878194607043,0,0,-1,-2,-1,-2,-1,-1
1528878194628279,0,-2,-1,-2,0,0,-1,-1
1528878194628279,-1,0,-2,0,0,0,-1,0
1528878194629489,-3,-1,-1,0,-1,0,-1,0
1528878194629489,-2,-1,-4,-1,-2,-1,-1,0
1528878194642428,0,0,7,0,0,1,-2,2
1528878194642428,0,-3,-3,0,-3,-1,0,-1
1528878194651201,-2,-1,1,-2,-1,-1,0,0
1528878194651201,-1,-2,-8,-2,-2,-1,-1,-2
1528878194665163,-1,-1,-1,0,-1,-2,0,-1
1528878194665163,-3,-2,1,-1,-3,0,0,-1
1528878194667159,0,0,0,-2,-1,-2,-1,-2
1528878194667159,-1,-1,1,0,-1,0,-2,-2
1528878194687785,0,-1,-4,-3,0,0,0,-1
1528878194687785,-1,0,7,0,-2,-1,-2,-1
1528878194689700,-1,0,1,1,-1,1,-1,-1
1528878194689700,0,-4,-13,-3,-2,0,-1,-1
1528878194702928,-2,-1,-4,-1,0,-1,0,-3
1528878194702928,0,0,-5,-1,-1,-2,-1,-1
1528878194709910,-2,-1,3,-1,-2,0,1,-1
1528878194709910,-1,1,4,-1,1,-1,-1,-1
1528878194725863,-1,-1,-2,-1,-2,0,-2,-1
1528878194725863,-2,-3,-3,-2,0,-1,-2,0
1528878194727884,-1,-2,-2,0,-2,-2,-1,-1
1528878194727884,0,1,0,-2,-1,1,-1,3
1528878194748752,-1,-1,-5,-2,0,-2,-3,-2
1528878194748752,0,0,17,-1,2,-1,0,-1
1528878194749683,-1,-1,-21,-3,-2,0,-1,-1
1528878194749683,-2,-2,3,0,0,-2,-2,-1
1528878194762340,-2,-2,2,-2,-1,0,-1,0
1528878194762340,1,-1,-5,-1,-1,-2,0,-1
1528878194769704,-1,-1,4,1,0,-1,-1,-2
1528878194769704,0,-1,2,-2,-1,-1,0,-2
1528878194785728,-1,1,-3,0,-4,-2,-1,0
1528878194785728,-1,-2,-5,1,-1,-1,-1,-1
1528878194787386,-1,-2,1,0,-1,-1,0,0
1528878194787386,-2,-1,-1,-1,0,0,-3,-1
1528878194808582,-2,-2,9,0,-1,-1,-3,0
1528878194808582,-1,-2,-3,-2,-1,0,1,-1
1528878194809740,0,1,-6,-4,-2,-1,0,-2
1528878194809740,-2,-2,0,0,0,-2,-1,0
1528878194821984,-1,-1,-3,-2,0,-1,0,1
1528878194821984,-2,-1,0,-1,0,0,-3,1
1528878194830639,-1,0,1,-2,-1,-2,-2,1
1528878194830639,1,-2,0,0,-1,1,0,-1
1528878194846063,-2,-1,0,0,1,-2,0,-1
1528878194846063,-1,0,-5,-2,-2,-2,-1,0
1528878194847091,1,-1,1,-1,-1,0,-2,1
1528878194847091,-1,-2,0,-2,-2,0,0,-1
1528878194868044,-1,0,-6,-1,-1,-1,-2,-2
1528878194868044,-1,-2,-4,-2,0,0,-1,-2
1528878194870051,-1,-3,2,0,-1,-1,-2,-1
1528878194870051,0,1,28,3,0,-2,0,-1
1528878194882267,-1,-7,-58,-11,-3,-2,0,0
1528878194882267,-1,-1,-2,0,-2,-1,-2,-1
1528878194890982,-1,-1,-4,0,-1,0,0,-1
1528878194890982,0,1,2,0,-1,-1,-2,1
1528878194905987,-1,2,13,1,0,0,-1,0
1528878194905987,-1,-1,-4,0,0,0,0,-3
1528878194906923,1,-3,2,0,-1,-1,-1,-1
1528878194906923,-1,0,-4,0,0,0,-1,2
