timestamp,emg1,emg2,emg3,emg4,emg5,emg6,emg7,emg8
1528883241382971,-9,-3,-5,1,-1,-1,-2,-8
1528883241382971,0,1,7,1,0,-1,-1,-1
1528883241383968,2,-1,-6,0,1,-1,-1,1
1528883241383968,-7,1,-1,-3,-3,-4,-1,-1
1528883241386960,-1,-2,5,3,-2,1,0,0
1528883241386960,-3,-3,-9,-3,-2,-3,0,-1
1528883241390950,0,5,9,1,0,-1,-3,-6
1528883241390950,-2,-1,-2,0,-1,0,-1,-7
1528883241393941,-3,-12,-17,-2,0,-2,-4,2
1528883241393941,1,-4,-8,-4,-2,-1,-1,3
1528883241402918,-2,7,10,2,-1,-3,-1,4
1528883241402918,1,-2,-5,-1,1,0,1,5
1528883241417878,4,6,6,0,0,0,-2,-8
1528883241417878,4,0,-1,-1,-2,0,-2,-1
1528883241422864,-6,-12,-5,-2,-5,-1,-1,-5
1528883241422864,-8,-2,3,1,-4,-4,-4,-4
1528883241434833,1,1,-1,-2,0,-1,-1,-2
1528883241434833,6,8,10,0,-3,-3,-1,5
1528883241453781,1,-3,-11,-2,0,1,0,-1
1528883241453781,-3,-3,-1,-3,-1,-1,-3,1
1528883241455776,2,2,-3,-3,-2,-1,2,4
1528883241455776,-4,0,5,2,0,1,1,-1
1528883241500657,-1,-3,-2,0,-2,-1,-1,0
1528883241500657,-4,2,3,-1,1,-1,-2,-3
1528883241502651,0,0,4,-1,-1,0,0,1
1528883241502651,-2,0,-8,-5,-2,-2,0,1
1528883241503649,2,10,7,5,2,0,2,-5
1528883241503649,-2,-19,-7,-3,-1,-1,-3,4
1528883241505643,3,2,-3,3,-1,0,-1,3
1528883241505643,-7,-6,3,0,-3,-2,-5,-11
1528883241512625,1,-5,-3,-1,-2,0,1,-2
1528883241512625,5,5,-3,0,1,-1,1,-2
1528883241520605,-4,-2,0,-1,0,-1,0,-2
1528883241520605,2,-4,-1,1,-2,-1,0,2
1528883241529581,-3,-1,-5,-4,-4,-1,-4,-3
1528883241529581,-1,2,-2,0,-1,2,0,1
1528883241544540,3,0,2,3,-3,-2,-3,2
1528883241544540,3,9,1,4,2,1,0,-1
1528883241551520,1,8,-3,-19,-3,-3,-1,-3
1528883241551520,-5,-14,-5,1,-3,0,0,0
1528883241574458,-16,-8,12,4,0,-1,-2,-11
1528883241574458,2,1,-1,3,1,-1,-1,6
1528883241575456,0,-12,2,3,1,-3,-2,-7
1528883241575456,2,10,-10,-13,-10,-7,0,-1
1528883241588421,-7,-6,-10,-6,-15,-4,-4,-5
1528883241588421,1,12,4,-11,5,1,0,1
1528883241595403,-5,-17,-19,1,14,4,-2,3
1528883241595403,3,8,23,13,9,11,2,1
1528883241611360,11,10,0,7,17,6,1,9
1528883241611360,-2,-7,-5,2,2,1,-1,-4
1528883241613356,3,5,-9,-12,-7,-4,-2,1
1528883241613356,-7,-9,-13,-10,-13,-10,-5,-6
1528883241634299,-6,-7,3,-4,-21,-8,-1,-3
1528883241634299,-2,-3,-7,-1,-10,-8,-5,-2
1528883241635296,-8,-2,3,-3,-8,-5,-2,-4
1528883241635296,4,6,2,2,-2,0,0,0
1528883241647264,3,2,6,-1,-3,1,0,0
1528883241647264,2,5,0,10,19,5,3,2
1528883241657237,-4,-12,-6,10,7,0,-3,-5
1528883241657237,3,9,15,3,12,-1,-1,1
1528883241671227,-2,-7,-26,-16,-9,5,1,-1
1528883241671227,-4,-8,5,2,7,2,-5,-1
1528883241673197,0,8,9,-1,-11,-5,-4,2
1528883241673197,-6,0,-7,-12,-27,-8,-3,-5
1528883241694140,-3,-8,-4,1,18,-2,-1,-3
1528883241694140,-4,-4,-1,2,-3,-3,-1,-2
1528883241696160,4,9,10,-7,-16,-5,-2,2
1528883241696160,6,6,1,2,2,2,0,4
1528883241708103,0,3,7,15,24,12,7,0
1528883241708103,0,-3,7,12,15,6,1,-3
1528883241717078,-5,-2,-10,-6,-1,-3,-4,-3
1528883241717078,-1,-6,-8,-6,-10,-9,-3,-5
1528883241731042,5,7,-1,-9,-17,-6,-2,-1
1528883241731042,-3,-5,-2,-8,-14,-2,0,-1
1528883241733035,-1,-5,2,4,1,0,3,6
1528883241733035,-7,-14,-8,5,4,-4,-2,-11
1528883241753980,0,-2,-5,-1,5,-3,-4,-3
1528883241753980,1,1,-2,-6,-9,-9,-5,-5
1528883241755976,2,2,3,3,-8,2,1,0
1528883241755976,-3,1,-2,0,0,2,3,2
1528883241767943,3,2,6,2,19,6,0,-1
1528883241767943,-6,-2,-4,-7,-11,-6,-1,-1
1528883241776928,-2,0,0,3,16,-5,-3,-2
1528883241776928,4,9,14,0,-7,12,3,4
1528883241791879,-5,-12,-7,4,14,1,1,-2
1528883241791879,-1,3,-3,-2,-25,3,0,1
1528883241792876,-3,-1,-5,-3,7,-7,-6,-9
1528883241792876,-5,-10,-1,-1,3,-9,-3,-3
1528883241813819,-3,0,-1,-8,-33,-6,-4,-1
1528883241813819,1,6,-2,-3,14,4,0,-2
1528883241815814,-1,-2,5,4,14,7,2,-1
1528883241815814,4,1,-3,5,-6,-4,-1,2
1528883241827782,1,4,0,3,3,-2,-1,0
1528883241827782,-5,2,-1,-2,4,2,-1,-4
1528883241836775,-2,-10,0,-2,-10,-6,-2,1
1528883241836775,-2,-3,-1,-7,-6,0,-1,0
1528883241851720,4,5,2,-2,-7,-1,-1,1
1528883241851720,5,3,-4,-2,6,-5,-2,0
1528883241852715,-14,2,-2,2,-4,5,1,0
1528883241852715,-2,-17,-15,-3,0,-6,-5,-2
1528883241873685,-8,2,3,-9,-16,-16,-9,-4
1528883241873685,-1,-9,-8,-5,-7,-1,-1,-4
1528883241875673,3,-1,0,-1,-4,8,3,3
1528883241875673,0,2,0,-2,-6,-1,-1,-2
1528883241887651,3,-2,-6,-2,-3,0,1,1
1528883241887651,0,-2,4,14,20,1,1,-1
1528883241896600,2,-1,-2,-4,-18,-15,-6,-2
1528883241896600,-3,2,2,-7,14,3,0,0
1528883241911558,1,-3,-2,-10,-28,5,-2,-2
1528883241911558,1,0,4,19,45,14,6,4
1528883241913553,5,9,7,2,-2,9,2,2
1528883241913553,-2,-9,-5,4,14,-2,-2,-2
1528883241934512,-4,-2,2,-3,-13,-14,-5,-3
1528883241934512,-3,-3,-6,-18,-28,-12,-3,-2
1528883241935506,3,3,-3,-3,-10,0,-3,-3
1528883241935506,-2,0,2,4,5,0,2,-2
1528883241947463,-3,-4,5,0,8,2,1,0
1528883241947463,-2,-15,-5,-4,-9,-7,-2,0
1528883241956439,-1,0,-7,-2,7,-1,1,-2
1528883241956439,-5,3,1,-5,-14,-8,-8,-5
1528883241971397,1,1,-3,0,-9,-15,-5,-4
1528883241971397,1,0,2,-3,-58,-7,-3,1
1528883241973392,3,2,1,-12,47,8,7,5
1528883241973392,7,10,8,13,4,24,6,5
1528883241994338,0,9,4,28,87,24,8,2
1528883241994338,-5,-13,-5,-1,5,2,-4,-3
1528883241995343,-6,-5,-2,4,-25,-14,-6,-3
1528883241995343,-3,-9,-16,-20,-41,-21,-6,-3
1528883242007302,0,0,11,-7,-12,-8,-3,-1
1528883242007302,3,4,-1,-4,-6,-3,0,3
1528883242016278,-5,-3,9,10,-7,1,0,-2
1528883242016278,-6,-5,-6,5,22,1,0,-4
1528883242031238,-1,-2,-9,-6,-10,-9,-2,-2
1528883242031238,-1,0,-10,-15,6,-1,0,-4
1528883242033233,1,-5,-9,-8,-24,2,1,-1
1528883242033233,3,4,10,7,15,5,0,2
1528883242054228,1,-2,-2,2,6,2,2,1
1528883242054228,-2,0,0,2,7,1,-2,-2
1528883242056203,1,0,-3,-14,-24,-8,-4,-2
1528883242056203,-2,2,8,16,27,4,0,-1
1528883242076118,2,3,1,16,7,10,2,1
1528883242076118,1,1,3,-14,-3,-5,-4,-2
1528883242078114,-5,-13,-8,-11,-26,-12,-5,-4
1528883242078114,-2,-1,-17,8,-8,-2,0,-2
1528883242091079,-2,0,0,-8,15,8,0,0
1528883242091079,-2,9,22,20,11,2,-2,-1
1528883242098061,4,8,3,1,13,7,1,1
1528883242098061,-2,1,5,-15,-23,-15,-7,-4
1528883242114275,-6,-19,-23,-14,-29,-12,-5,-4
1528883242114275,-2,6,-10,-7,-13,-4,1,0
1528883242115274,0,-6,-1,13,20,9,6,-1
1528883242115274,-2,-1,17,-6,11,8,0,-2
1528883242127239,1,-2,-14,-11,0,0,-1,-3
1528883242127239,-1,1,41,17,-12,-8,-4,-2
1528883242137216,1,0,3,17,4,-12,-4,1
1528883242137216,-3,7,2,2,1,10,4,-6
1528883242152231,3,-3,-20,-5,17,6,2,6
1528883242152231,-4,3,-18,-41,-26,-14,-9,-11
1528883242158427,3,6,20,32,17,5,4,-1
1528883242158427,-1,-2,5,30,3,1,0,1
1528883242174114,1,4,30,-4,-8,1,1,-1
1528883242174114,0,1,-19,4,15,2,3,2
1528883242176109,-3,-3,-20,-21,-1,0,-2,3
1528883242176109,-2,-6,-14,-22,-18,-7,-4,-9
1528883242188078,-1,2,3,1,-10,-5,-2,-4
1528883242188078,-1,-13,-12,-1,-1,0,-8,3
1528883242197054,1,4,-17,-7,5,5,9,0
1528883242197054,-9,-8,2,-13,10,-1,-5,-8
1528883242211047,-4,-14,-3,7,-13,-12,-11,0
1528883242211047,-7,-4,14,19,11,-1,-13,-27
1528883242217998,3,1,-6,-6,0,13,16,9
1528883242217998,9,15,-9,-7,-1,2,7,13
1528883242233955,-1,2,-3,-10,-7,1,-2,0
1528883242233955,-4,0,-1,-8,0,-1,4,-3
1528883242235955,6,-10,-25,1,-2,-7,-13,-3
1528883242235955,1,7,33,22,3,-3,0,-3
1528883242247929,-3,13,12,1,-6,-1,0,5
1528883242247929,0,-14,-15,6,14,4,3,12
1528883242256893,3,20,25,-1,-1,-1,0,-4
1528883242256893,2,-18,-28,-9,-2,0,-1,4
1528883242270891,-10,-10,2,4,1,-1,-3,-8
1528883242270891,8,20,6,12,-6,-3,3,4
1528883242277838,-11,-12,-8,-13,3,-3,-2,-5
1528883242277838,-4,-6,-9,-13,-16,-5,-5,0
1528883242294018,-2,-12,-2,-8,5,1,3,-2
1528883242294018,1,-8,-2,2,1,5,7,3
1528883242295790,2,8,6,-12,-14,-4,-7,2
1528883242295790,3,8,6,19,27,2,-2,2
1528883242315737,-3,-29,-24,-4,-8,0,2,-2
1528883242315737,6,27,19,-18,-12,1,3,3
1528883242323715,-10,-17,-8,22,16,0,-8,-4
1528883242323715,-2,0,2,3,-7,-6,-1,-3
1528883242330725,1,15,-6,-16,-19,-4,-2,-5
1528883242330725,-2,-10,-2,7,16,4,5,4
1528883242337726,3,8,12,14,12,7,1,1
1528883242337726,1,3,-2,-23,0,3,1,1
1528883242353635,0,-1,-15,-1,-6,-7,-2,-3
1528883242353635,-4,-12,-7,1,-15,-8,-4,-1
1528883242355631,-2,-2,-4,-12,-12,-6,-4,-3
1528883242355631,0,-7,-6,4,0,-1,-1,1
1528883242377140,3,3,2,-11,-8,1,0,2
1528883242377140,-3,-9,-9,-9,-6,-7,-5,-4
1528883242378885,-4,-4,2,13,13,4,1,-2
1528883242378885,0,-8,6,-9,4,0,2,0
1528883242390840,10,31,6,2,1,0,-1,2
1528883242390840,-14,-15,-20,14,17,6,1,-3
1528883242397224,-5,-19,-22,-17,2,-3,-4,-2
1528883242397224,-6,-5,12,-4,-14,-10,-7,-4
1528883242414701,-5,-10,-14,-10,-21,-12,-4,-5
1528883242414701,0,-4,5,-10,-11,-1,1,0
1528883242415539,3,11,17,28,28,16,6,1
1528883242415539,-2,-4,-14,-11,-8,-1,-2,-6
1528883242436824,6,5,32,29,15,5,3,2
1528883242436824,1,-4,-21,-29,-4,1,-1,2
1528883242438473,3,15,12,-12,-20,-10,-5,-3
1528883242438473,-3,6,-15,-1,6,2,-1,0
1528883242449767,-5,6,11,4,-7,-2,-3,0
1528883242449767,-6,-4,-10,-18,-23,-10,-5,-6
1528883242459113,-2,-10,1,9,-3,1,1,1
1528883242459113,4,-6,-3,-25,-24,-8,-3,1
1528883242472966,-5,-3,-2,41,23,4,0,-4
1528883242472966,7,8,5,5,10,7,4,3
1528883242481999,-4,-1,4,-6,-4,-6,-3,-3
1528883242481999,-3,-5,5,1,-4,-1,1,-2
1528883242496650,-4,-22,-13,-11,-8,-3,-1,-2
1528883242496650,4,8,9,0,-2,-1,-1,1
1528883242498296,0,0,-16,-25,-12,0,1,-1
1528883242498296,-1,9,-6,18,24,6,0,0
1528883242519446,-1,-1,7,-10,-2,0,-1,-2
1528883242519446,3,-4,-10,14,-2,2,0,0
1528883242521294,4,7,38,-7,-2,-7,-4,0
1528883242521294,3,18,-12,6,5,4,4,4
1528883242532267,-12,-18,-17,-15,-1,0,-3,-3
1528883242532267,-2,-7,-9,2,-4,-6,-4,-1
1528883242542403,-7,-8,-6,-1,-32,-16,-3,-7
1528883242542403,7,1,5,6,37,20,5,1
1528883242556587,7,9,-24,-8,10,9,3,3
1528883242556587,-8,4,45,8,-3,-5,-3,-3
1528883242558942,1,-5,-16,-5,-4,-2,-1,0
1528883242558942,-4,-2,0,-3,-18,-14,-5,-4
1528883242579859,3,4,5,-16,-15,-5,-2,1
1528883242579859,0,-9,-21,17,24,8,3,0
1528883242581562,0,5,-3,1,13,4,0,2
1528883242581562,-3,-11,-8,-2,-11,-5,-2,-1
1528883242593557,-2,4,21,9,2,-1,-2,-2
1528883242593557,-1,1,-11,-16,-11,-2,0,2
1528883242601749,-3,-1,-12,-10,-1,1,0,-2
1528883242601749,-5,-12,-8,3,-11,-3,-2,-1
1528883242615712,4,6,19,17,12,1,1,1
1528883242615712,3,8,10,-1,-2,-5,-4,-2
1528883242622707,-4,-7,-7,1,-1,6,-1,-2
1528883242622707,0,-2,-10,-21,3,6,2,3
1528883242639777,1,9,-3,9,15,-1,-1,0
1528883242639777,-1,-4,12,3,-4,-2,-1,-1
1528883242640664,-1,-4,-18,-11,-6,-4,-6,-3
1528883242640664,-1,1,-6,-6,-15,-12,-4,-3
1528883242652876,-1,1,19,-4,-19,-3,0,-2
1528883242652876,0,4,0,10,22,9,2,-1
1528883242661892,-2,-2,10,18,15,1,0,1
1528883242661892,-4,5,9,5,-5,-4,-5,-4
1528883242675894,-3,-13,-31,-19,-5,-9,-7,-4
1528883242675894,-2,4,3,-19,-19,-5,0,-1
1528883242682837,2,2,12,21,14,5,3,1
1528883242682837,3,-1,13,12,26,12,3,6
1528883242698798,0,1,-5,-8,-8,-5,-3,-6
1528883242698798,1,-4,-15,-4,1,1,0,-1
1528883242700789,-2,-3,18,3,-9,-4,-2,-2
1528883242700789,0,8,8,0,-10,-7,-3,0
1528883242712766,-2,0,-2,-4,-5,2,3,0
1528883242712766,1,-5,-5,3,10,0,-1,2
1528883242721745,-4,-7,-19,-14,-14,-7,-3,-1
1528883242721745,-2,-6,-4,1,3,-4,-2,-4
1528883242735696,-2,0,8,-5,-19,-1,-1,-3
1528883242735696,1,7,4,13,24,10,6,6
1528883242744672,4,-5,-9,6,23,6,-1,-2
1528883242744672,-8,4,5,2,-4,-5,-5,-8
1528883242758635,-2,-10,-9,-16,-13,-11,-7,-4
1528883242758635,-4,-1,-7,-5,-14,-7,-2,-5
1528883242760646,-1,-2,-2,-20,-31,-16,-1,0
1528883242760646,2,-6,-3,7,1,11,5,2
1528883242772635,4,2,4,13,45,21,6,7
1528883242772635,4,12,5,-4,1,0,-3,-6
1528883242781574,-4,5,3,-4,-6,-5,-4,-2
1528883242781574,-11,-33,-14,-1,-9,-8,2,4
1528883242795536,-8,-8,-8,3,7,2,0,-11
1528883242795536,-1,-7,-4,-2,-2,0,-1,-5
1528883242802518,2,9,5,2,-14,-4,-2,-1
1528883242802518,8,3,2,-3,-13,-1,-1,3
1528883242826453,-2,4,-9,-12,6,2,-1,1
1528883242826453,0,2,-4,-9,3,0,-1,-1
1528883242828449,-1,-4,-12,6,3,5,0,-6
1528883242828449,0,-5,-6,-9,-14,-8,-5,1
1528883242841413,2,2,16,18,-6,-4,3,7
1528883242841413,1,8,15,19,0,3,4,8
1528883242843408,1,-3,-7,-19,14,7,-1,2
1528883242843408,-4,-1,-16,-10,8,6,1,-3
1528883242856373,8,7,6,9,-9,-10,-5,0
1528883242856373,-11,-12,-10,-13,-28,-11,-2,2
1528883242862357,0,-1,0,7,2,1,4,-1
1528883242862357,3,10,9,6,13,6,2,1
1528883242879312,-5,-3,-6,-7,4,0,-3,-2
1528883242879312,-2,-8,1,4,9,0,-4,2
1528883242880309,-4,0,4,-1,-9,-1,-1,-9
1528883242880309,0,2,-25,-12,-13,-9,-5,-7
1528883242909232,2,-4,-3,5,-3,-5,-6,7
1528883242909232,6,0,-1,-1,-1,5,7,0
1528883242910229,-2,6,-3,-10,3,-2,-3,-4
1528883242910229,-4,-1,22,5,-3,7,0,0
1528883242916213,5,25,14,7,4,5,-2,-1
1528883242916213,6,-2,-13,-16,-3,-11,-1,0
1528883242923209,-7,-1,-7,4,-5,4,8,5
1528883242923209,5,-5,9,6,2,2,7,-5
1528883242939151,-8,-7,-5,-6,-2,-1,-5,-6
1528883242939151,2,-2,-5,4,-4,-9,-13,0
1528883242940149,-2,0,10,1,-1,2,5,-1
1528883242940149,1,-6,-12,-5,1,-1,-7,1
1528883242961093,0,-3,-14,1,1,-2,4,2
1528883242961093,-6,2,7,-9,-9,-10,-13,-8
1528883242963088,8,-5,-7,8,0,-3,-2,7
1528883242963088,-9,8,26,-5,-3,4,2,-6
1528883242975056,2,-4,8,6,0,0,2,-4
1528883242975056,0,-1,-8,-9,-1,4,3,-3
1528883242984048,-1,2,6,11,1,-3,-6,2
1528883242984048,-1,1,-1,-4,-2,-7,-6,-2
1528883242998998,-10,-4,-9,0,3,-4,-2,4
1528883242998998,-2,2,2,4,-1,9,8,-4
1528883243001024,-4,-3,3,-4,-3,-1,-3,0
1528883243001024,-4,-10,-11,-2,-2,-2,0,-3
1528883243022201,16,1,1,-6,-5,-2,-1,3
1528883243022201,-8,22,-1,7,2,-1,-3,0
1528883243023976,-10,-16,0,-4,0,-4,-1,-5
1528883243023976,2,6,-11,-4,-1,-1,0,-1
1528883243035957,-7,-14,3,-8,-7,-1,-2,-5
1528883243035957,1,-1,-5,4,-1,-1,-2,-1
1528883243044188,8,3,1,1,1,3,-1,14
1528883243044188,-6,6,2,0,-4,-5,-1,-12
1528883243059413,1,-1,-2,-4,3,4,3,5
1528883243059413,-4,-12,-7,-8,-9,-5,-1,-2
1528883243061410,3,0,-3,-3,-1,-3,-1,1
1528883243061410,4,-1,-4,7,13,5,-1,8
1528883243081555,-6,6,4,0,-10,-3,0,-8
1528883243081555,3,0,2,-1,-7,-3,-3,-1
1528883243083554,-4,-9,-2,2,8,2,-2,-5
1528883243083554,-2,-8,10,5,6,-1,-4,0
1528883243104737,-2,2,-3,2,-1,-1,1,-3
1528883243104737,2,1,1,-7,4,-3,-3,0
1528883243105657,-9,-16,-7,-15,-12,-2,0,-6
1528883243105657,4,10,3,8,9,1,3,1
1528883243119466,-11,-19,-10,-14,-20,-3,-3,0
1528883243119466,-12,-18,-6,-10,-10,-3,0,-5
1528883243120629,-1,24,12,15,7,0,-1,-4
1528883243120629,2,8,-4,-24,-12,-6,-4,4
1528883243140402,-3,-6,-3,19,8,-2,-1,-1
1528883243140402,-7,-16,-8,1,8,3,0,-3
1528883243141400,-1,-9,-8,-2,-5,0,-2,-3
1528883243141400,2,2,-2,-16,-11,-2,-4,0
1528883243171629,9,7,8,8,-11,-6,0,-1
1528883243171629,-6,20,24,-3,31,9,4,1
1528883243172317,7,2,-16,8,0,0,-2,2
1528883243172317,-14,-13,3,2,-4,0,-1,-3
1528883243187366,5,10,-2,-13,-9,0,2,3
1528883243187366,3,6,19,10,-1,1,0,-1
1528883243187366,1,4,-4,-10,-7,-5,-3,1
1528883243187366,-11,6,14,3,-5,-2,0,-3
1528883243201141,-5,-15,3,11,16,5,1,-3
1528883243201141,3,-3,-18,-9,-10,-3,-2,-2
1528883243202520,-4,-3,-7,-11,-6,-1,-1,-3
1528883243202520,6,-9,2,3,2,-2,-3,2
1528883243223807,-4,10,-16,-10,2,-1,0,-3
1528883243223807,5,2,13,-3,-7,-4,-3,2
1528883243224464,-5,-13,-36,-21,-6,-3,-3,-8
1528883243224464,-2,-14,10,14,3,4,4,2
1528883243238682,2,-6,-25,-18,4,2,0,-2
1528883243238682,5,-1,-4,1,-8,-1,-3,3
1528883243239713,1,13,26,23,7,-2,-4,-5
1528883243239713,-2,-8,-28,-7,0,-2,-1,-2
1528883243261681,-10,-30,4,-5,-1,-2,-1,-4
1528883243261681,11,1,-22,-1,0,1,2,7
1528883243261681,-7,-6,1,-1,0,-2,-1,1
1528883243261681,-6,-11,1,0,-5,-4,-3,-7
1528883243283755,5,15,9,0,0,-2,-1,1
1528883243283755,3,1,-8,4,1,-1,0,-3
1528883243283755,9,7,15,1,2,2,2,1
1528883243283755,8,22,0,3,-1,0,2,3
1528883243298605,-4,-24,-3,3,0,0,1,3
1528883243298605,-15,1,6,2,-2,-2,-3,-9
1528883243299809,0,9,5,-5,-5,-3,-6,-3
1528883243299809,-1,-8,-13,-2,1,2,8,2
1528883243321583,12,15,1,10,7,1,3,5
1528883243321583,-2,6,20,1,1,2,0,-8
1528883243321583,-8,-28,-15,-4,-1,-1,-3,5
1528883243321583,7,16,14,3,-2,-3,-4,2
1528883243343515,-3,1,-2,-3,-4,0,0,-4
1528883243343515,0,-23,-21,0,0,0,3,5
1528883243344721,-7,-1,7,-3,1,-1,0,-6
1528883243344721,8,23,12,-1,0,-1,-3,-2
1528883243358444,-9,20,-1,-5,-3,-2,-1,-2
1528883243358444,-7,-32,-20,-5,-6,-3,-4,-5
1528883243359442,10,26,36,6,0,1,3,4
1528883243359442,-11,-25,-17,-1,1,1,1,-2
1528883243380626,-8,9,3,-8,-7,-4,-7,-5
1528883243380626,2,14,5,4,1,1,0,-3
1528883243381437,4,6,5,14,9,3,4,0
1528883243381437,0,-2,-4,-6,-6,-3,-4,0
1528883243404585,4,0,-10,-7,-9,-1,0,1
1528883243404585,-10,-19,-14,11,19,3,1,1
1528883243405320,1,-13,8,-10,-11,-5,0,1
1528883243405320,-7,-2,-37,-1,1,-3,0,-7
1528883243418284,-1,-18,-18,-7,-2,-1,2,2
1528883243418284,-14,-12,0,-3,-5,1,-1,-4
1528883243419282,1,8,-11,-2,0,-1,-2,-4
1528883243419282,1,2,8,7,2,-2,0,1
1528883243441223,-2,2,14,2,-5,-1,-1,0
1528883243441223,3,7,8,1,2,2,0,5
1528883243441223,-14,-8,-14,-10,-4,-7,-9,-14
1528883243441223,0,-8,6,-5,-10,-14,-3,1
1528883243464528,7,33,16,6,1,6,0,1
1528883243464528,-10,-20,-26,-3,8,13,2,-3
1528883243465166,-1,-3,-2,13,43,13,4,2
1528883243465166,11,18,9,-1,-8,-3,-6,-2
1528883243479207,-12,-15,-2,-8,-20,-14,-4,-7
1528883243479207,-1,-8,-6,-22,-31,-19,-5,-1
1528883243479207,0,0,3,-1,-38,-8,0,-1
1528883243479207,-2,1,2,-3,18,6,2,0
1528883243501612,5,-2,3,15,33,13,1,2
1528883243501612,3,9,10,6,-2,-1,-2,0
1528883243501612,-6,-19,-18,-8,-8,-7,-3,0
1528883243501612,-1,-1,8,-2,-6,-6,-4,-2
1528883243524523,-3,-3,0,3,-9,-2,0,-1
1528883243524523,2,4,6,-1,2,4,1,0
1528883243525620,-4,-1,-4,6,12,1,-1,-4
1528883243525620,0,-10,-3,0,-9,-1,-1,0
1528883243538312,3,-2,-6,-5,-1,-4,-2,-2
1528883243538312,-3,6,8,-4,-6,-7,-1,-4
1528883243539309,3,-2,-11,-8,-9,1,3,2
1528883243539309,-3,-5,-2,-7,-2,4,0,-2
1528883243561250,-1,-5,0,-2,4,1,0,3
1528883243561250,5,4,6,3,-4,-6,-3,-8
1528883243561250,-4,4,4,-4,-3,-1,0,2
1528883243561250,-5,-4,1,12,1,0,-3,-1
1528883243584190,-2,-5,-5,-10,-3,0,2,-2
1528883243584190,9,10,13,7,5,2,3,21
1528883243585188,-12,-15,-34,-16,4,1,-9,-18
1528883243585188,-2,-4,-8,-3,-4,-2,-3,-2
1528883243598152,-1,4,7,0,-2,-3,-3,-2
1528883243598152,-1,-1,-18,-2,-1,0,-1,6
1528883243599149,-2,1,9,-10,-10,-5,-3,-9
1528883243599149,-2,-2,3,-1,-3,1,2,-1
1528883243621351,1,-3,-4,7,1,-2,-3,-2
1528883243621351,3,12,14,-3,2,0,-1,-3
1528883243622088,0,-18,-13,9,3,0,1,1
1528883243622088,1,16,21,12,2,-1,2,-1
1528883243644289,-20,-19,-43,-28,-7,-4,-5,-10
1528883243644289,0,-1,-3,1,-3,-1,-1,-6
1528883243645026,3,-5,-3,1,-2,-1,2,5
1528883243645026,-1,-9,0,-1,0,0,0,-2
1528883243659107,4,5,34,28,7,2,1,4
1528883243659107,-2,-5,-25,-16,-5,-2,-2,6
1528883243660043,-9,-2,-27,-28,-11,-4,-5,-15
1528883243660043,0,-2,1,6,5,3,-1,1
1528883243681229,0,-3,-7,1,2,0,-1,-2
1528883243681229,-1,0,19,6,-1,0,-2,-3
1528883243681964,6,12,21,12,4,3,3,12
1528883243681964,-1,-1,-4,-2,-2,-3,-3,-2
1528883243696025,-5,-11,-32,-21,-7,-3,-2,-3
1528883243696025,-1,1,3,3,0,0,1,-5
1528883243704045,4,5,9,2,0,0,0,3
1528883243704045,-3,-1,4,1,0,-2,-2,-5
1528883243719003,4,6,10,0,3,0,1,0
1528883243719003,-1,1,-5,6,0,-4,-5,-2
1528883243719003,-4,-8,0,-16,-10,-5,-2,0
1528883243719003,1,-3,-15,-4,-1,0,-1,2
1528883243741663,3,8,30,13,4,2,-3,-1
1528883243741663,-5,-13,-25,-5,-1,-1,0,-2
1528883243741663,5,12,18,8,-8,-3,0,3
1528883243741663,-3,-3,-4,0,9,1,-2,-4
1528883243763474,1,-6,1,-8,-1,1,0,0
1528883243763474,2,8,13,3,2,0,0,-1
1528883243764417,0,-5,-5,2,1,0,-2,1
1528883243764417,0,0,3,-4,-7,-2,-1,-2
1528883243778381,2,3,8,13,-2,-2,0,6
1528883243778381,0,1,-11,-19,-6,-2,-3,-8
1528883243779379,0,5,5,0,1,1,0,2
1528883243779379,-1,-1,-4,0,-1,0,-2,0
1528883243801107,1,1,-2,1,0,0,0,-1
1528883243801107,-2,-4,7,1,-2,0,0,0
1528883243802108,2,4,6,10,4,1,1,2
1528883243802108,0,-3,-12,-7,-4,0,1,0
1528883243824421,-2,-10,-14,-9,-3,-3,-1,-5
1528883243824421,-2,2,-8,1,-2,-2,-2,-2
1528883243825044,4,8,11,3,-1,-2,-3,-1
1528883243825044,0,-2,-9,-2,1,1,-1,0
1528883243839061,-1,1,-12,-5,2,1,1,-3
1528883243839061,-3,-1,23,12,-2,-5,-4,-7
1528883243839061,-1,-7,-2,12,4,0,0,1
1528883243839061,-4,0,1,-10,-5,-2,-2,-1
1528883243861540,0,-5,-3,-4,-7,-4,-3,-3
1528883243861540,-2,-5,-6,-6,-3,-2,-2,-2
1528883243861540,4,16,25,14,5,2,2,4
1528883243861540,-6,-30,-28,-4,1,1,-2,-4
1528883243884750,0,6,7,-6,1,2,1,-3
1528883243884750,0,-2,-13,-2,-1,1,0,1
1528883243884750,-2,-3,-2,1,-5,-2,-4,-8
1528883243884750,4,8,12,-7,-5,-3,1,2
1528883243898445,0,-1,-4,4,1,-1,-2,0
1528883243898445,1,0,4,-1,-1,-3,-2,-1
1528883243899735,-1,2,-4,-2,-3,-1,-2,0
1528883243899735,-2,-1,-7,-8,0,0,-2,-3
1528883243921399,-1,1,18,8,4,1,-2,-1
1528883243921399,-1,-2,-9,-1,3,1,2,2
1528883243922040,-1,-7,-6,-2,3,-2,-2,0
1528883243922040,-2,-1,-2,-2,-7,-1,1,1
1528883243944375,-2,-6,-3,0,-8,-2,0,0
1528883243944375,-1,4,8,5,1,0,-1,0
1528883243945049,-3,-13,-11,-8,1,1,3,-1
1528883243945049,1,4,10,3,6,1,-1,2
1528883243967029,0,-2,-5,1,2,1,0,0
1528883243967029,1,0,19,0,-7,-3,-3,1
1528883243968043,2,16,-18,-9,-6,0,1,2
1528883243968043,-5,-3,-1,3,3,-1,0,-2
1528883243980564,-3,1,-5,-6,-1,-2,-2,-1
1528883243980564,-2,-5,-2,-1,-1,-2,0,-2
1528883243981562,-2,1,23,0,-7,0,-1,3
1528883243981562,1,-6,-27,-9,-4,1,-1,-2
1528883244004351,2,9,12,3,0,-2,1,1
1528883244004351,-2,-6,-7,-1,4,-2,-2,-1
1528883244005009,-3,-6,-4,-3,-2,-3,-3,-2
1528883244005009,1,7,16,9,0,-1,0,-1
1528883244018664,-2,-14,-11,1,5,-1,-2,-3
1528883244018664,-1,3,-3,-3,-2,1,0,-1
1528883244019293,-4,-2,-3,-4,6,-1,-1,-6
1528883244019293,1,3,8,5,-4,-3,-5,-1
1528883244041745,0,0,-6,-4,-11,0,0,1
1528883244041745,1,-2,6,4,12,6,1,1
1528883244041745,-3,-1,-8,-4,1,-3,-2,-3
1528883244041745,-3,0,4,-1,-3,-2,-2,-2
1528883244064687,1,-1,4,0,-2,-2,-1,0
1528883244064687,-7,-8,-17,-9,-8,-3,-1,-5
1528883244064687,1,2,4,1,-5,1,0,-1
1528883244064687,1,-1,-1,-1,0,-3,-1,-2
1528883244078912,0,2,0,-3,-3,-3,-3,-2
1528883244078912,0,-7,-3,-4,-1,-2,-2,-1
1528883244079885,2,2,0,0,2,1,-1,1
1528883244079885,-1,0,1,-1,0,1,-1,0
1528883244100853,0,-4,-4,-1,-1,-1,-1,1
1528883244100853,1,2,2,1,0,-1,-2,-2
1528883244101597,-2,-8,-7,-3,1,0,0,-1
1528883244101597,-2,-1,0,1,-1,0,-1,0
1528883244124116,-3,3,-2,-4,-3,-4,-1,-3
1528883244124116,-2,-8,-7,-5,0,-2,0,-1
1528883244124834,0,-1,-1,1,-1,-1,-1,-1
1528883244124834,3,1,2,1,0,-1,0,1
1528883244138797,-7,-5,0,-1,4,2,-2,-1
1528883244138797,-5,-17,-4,-2,-6,-4,-3,-5
1528883244139876,-3,-8,-7,-2,0,-1,-2,-3
1528883244139876,0,-5,-5,-4,-4,-2,-2,-1
1528883244161318,-5,4,4,0,1,0,1,-1
1528883244161318,4,11,5,-2,-4,2,0,1
1528883244162319,-11,-11,-3,-6,-7,-4,-3,-5
1528883244162319,0,-9,-11,-3,-2,-3,-2,-2
1528883244183994,-3,1,4,2,-1,-2,0,-1
1528883244183994,3,11,4,1,-3,-2,0,3
1528883244184984,5,-4,-1,-3,-2,-2,-1,-1
1528883244184984,-8,-4,4,1,2,0,1,-2
1528883244197964,1,-10,-10,-6,-3,-1,-1,-1
1528883244197964,-1,-2,-1,1,-1,0,-1,-1
1528883244198946,3,-5,-4,0,-1,-2,0,2
1528883244198946,2,11,5,0,-2,-2,-2,-1
1528883244220399,-3,1,1,2,-1,-2,-1,-3
1528883244220399,1,-1,-6,-3,-2,-3,-2,-2
1528883244222461,-2,-6,-4,4,0,1,0,0
1528883244222461,12,8,5,-3,2,2,1,1
1528883244244919,-7,5,8,2,0,-1,-2,-4
1528883244244919,-5,16,5,-20,-7,-6,-2,-1
1528883244244919,0,-1,-3,1,1,0,-1,-1
1528883244244919,-4,-1,4,8,-1,-3,-2,1
1528883244259000,8,1,-5,-1,-1,-3,0,2
1528883244259000,3,1,7,10,5,2,0,1
1528883244259000,-2,-9,-10,-12,-3,-3,-3,0
1528883244259000,0,4,-5,1,0,-1,-3,-2
1528883244280951,5,1,4,4,0,-1,-2,1
1528883244280951,-1,-9,-5,4,1,1,2,1
1528883244281707,-4,2,-1,1,-1,-2,-1,-2
1528883244281707,-7,-12,-9,-3,-2,-3,-3,-6
1528883244304766,2,4,-1,-1,-1,-2,-2,0
1528883244304766,-6,-8,-6,-2,1,1,0,-2
1528883244304766,3,7,5,3,1,-1,2,4
1528883244304766,3,1,-4,-5,-3,-1,1,2
1528883244319074,-10,-11,-9,-6,-5,-4,-3,-5
1528883244319074,10,2,-5,-3,-2,-1,0,0
1528883244319074,-4,-2,1,-2,2,-1,0,-1
1528883244319074,-5,-7,-6,-5,0,0,-1,2
1528883244340947,2,6,-1,-3,-2,1,-1,-3
1528883244340947,-2,-4,-2,7,1,0,-1,1
1528883244342533,-3,-8,-2,1,-3,-2,-2,-2
1528883244342533,-1,8,9,1,0,-3,0,3
1528883244364107,-1,-13,-8,-2,0,0,0,2
1528883244364107,-1,8,3,0,-1,-3,-1,-1
1528883244364766,3,11,4,1,1,2,1,0
1528883244364766,-2,-2,4,3,-2,0,-1,-2
1528883244378169,2,3,-6,-2,-5,-1,-2,-1
1528883244378169,-3,-3,4,2,0,2,1,-2
1528883244385708,3,8,6,3,1,-3,-3,-1
1528883244385708,8,16,12,13,4,-1,-1,1
1528883244400971,-1,-11,-7,-6,-1,1,-3,0
1528883244400971,3,3,-2,1,2,2,2,2
1528883244401933,-5,-9,-6,-5,-2,0,-1,0
1528883244401933,-1,-1,-3,-4,-2,-2,-1,-1
1528883244424120,-7,0,4,0,1,-2,1,0
1528883244424120,16,11,2,-2,-1,-2,-1,3
1528883244424872,3,30,2,-1,-3,-2,-1,-3
1528883244424872,-25,-79,-14,-7,-3,-1,-1,-8
1528883244438146,-3,1,-2,-3,-1,1,-1,-2
1528883244438146,-11,-13,-5,-4,1,0,0,-1
1528883244446404,4,6,-4,1,1,-1,-1,-1
1528883244446404,2,6,-4,-8,-4,-2,-1,-1
1528883244460678,2,2,1,2,0,-4,0,0
1528883244460678,-5,-3,0,1,-3,-3,-4,-3
1528883244461691,2,-2,4,2,-4,0,0,1
1528883244461691,-3,6,-3,-2,-2,-2,0,-2
1528883244484696,2,-2,3,2,1,1,0,-1
1528883244484696,3,10,-1,-1,-2,-1,-2,-2
1528883244485370,-6,-11,-4,-2,-1,-1,0,-3
1528883244485370,2,-1,-2,-1,-2,2,1,-1
1528883244497993,3,7,1,-2,-3,-2,-1,-1
1528883244497993,-3,-7,-2,-2,-1,-3,0,-2
1528883244506520,-5,-12,-2,-2,-2,-3,-2,-2
1528883244506520,-4,18,7,-2,0,0,2,-2
1528883244520962,8,-1,5,2,1,-1,1,5
1528883244520962,-11,-15,-9,-1,-3,-3,-2,-6
1528883244521642,-1,-1,0,1,1,0,0,0
1528883244521642,4,3,-7,-1,-1,-3,-3,0
1528883244544399,-5,-4,1,-1,1,1,0,-2
1528883244544399,-1,-1,-1,-3,-2,-1,0,1
1528883244545664,3,-9,-3,0,-4,-4,-1,-1
1528883244545664,8,15,6,0,-2,-2,-2,0
1528883244557628,-4,-2,-11,-11,-4,-1,0,-3
1528883244557628,0,-1,9,-1,-3,-2,-2,0
1528883244565638,-4,-3,-11,-3,-2,1,-1,-4
1528883244565638,-1,-7,-11,0,0,0,1,1
1528883244580603,1,4,10,5,3,-1,0,0
1528883244580603,5,21,25,13,3,-1,-1,2
1528883244581608,-4,-6,-10,-7,1,-1,0,1
1528883244581608,2,-2,8,-6,-4,-2,-4,-2
1528883244604599,-4,-1,-8,-5,-3,-3,-3,-2
1528883244604599,0,-8,5,-1,1,1,0,-2
1528883244605623,-5,4,4,3,-4,-1,-3,-4
1528883244605623,7,7,6,2,2,3,1,2
1528883244617502,-4,-2,3,12,2,3,3,2
1528883244617502,-13,-27,-13,-11,-8,-6,-5,-8
1528883244626644,1,2,8,-11,-4,-3,-3,-2
1528883244626644,-3,-10,-23,-1,0,0,0,-1
1528883244641031,-1,-10,-1,-7,-2,-2,-3,-5
1528883244641031,-11,-21,-7,-14,-11,-6,-5,-5
1528883244641607,-7,-20,-25,-1,1,-1,-2,-1
1528883244641607,4,14,12,4,3,-1,-1,0
1528883244664619,2,-16,-13,-5,-2,1,-2,3
1528883244664619,6,9,-18,3,3,1,-1,-2
1528883244664619,-4,-2,9,-8,-2,-2,-3,-3
1528883244664619,-4,-4,-6,4,-3,-3,0,0
1528883244678567,3,13,8,-3,-2,-1,0,2
1528883244678567,-1,6,2,3,2,2,0,0
1528883244686158,10,12,1,5,-2,-3,-2,-1
1528883244686158,-5,-4,-2,6,5,3,2,7
1528883244701367,5,6,0,9,-1,-1,0,-5
1528883244701367,1,7,-14,-14,-3,-2,-2,6
1528883244702042,-7,-27,-8,4,1,1,0,-1
1528883244702042,2,3,17,3,-1,-4,-3,-3
1528883244724286,-6,5,-2,-4,-3,-3,-2,-2
1528883244724286,-1,7,8,11,4,2,2,3
1528883244725023,1,-7,-8,-7,-1,0,-2,0
1528883244725023,-2,7,5,-6,-4,-3,-4,-7
1528883244747235,0,-2,6,7,0,-2,-2,2
1528883244747235,-1,0,-5,-3,2,0,0,-2
1528883244747235,-7,-3,-5,-3,-3,-2,1,-1
1528883244747235,-2,-3,-9,-7,-6,-1,-3,-3
1528883244761190,0,-6,-3,-1,0,-1,-2,-1
1528883244761190,3,17,24,-1,-4,-1,0,1
1528883244762182,3,11,-2,0,0,1,-1,-3
1528883244762182,-2,4,3,-3,-3,0,-1,-3
1528883244784109,-6,-10,5,12,0,-3,-1,0
1528883244784109,2,-5,-12,-14,-2,0,-1,-1
1528883244785865,2,6,10,0,-1,1,1,2
1528883244785865,1,1,-4,0,1,0,-2,-2
1528883244807298,0,5,-2,-8,0,0,-2,-2
1528883244807298,-1,5,9,10,-1,-2,-2,-1
1528883244808164,-12,-12,-15,-2,-4,-2,-2,-4
1528883244808164,1,-7,-5,-6,-1,-2,-3,1
1528883244820980,4,3,0,-2,-1,1,1,-3
1528883244820980,0,-6,-5,2,0,0,1,-2
1528883244829617,3,10,9,4,3,0,0,1
1528883244829617,-3,-2,-1,-1,-4,-1,1,-1
1528883244844741,-3,1,-4,-8,-1,-2,-4,-2
1528883244844741,2,1,-3,1,0,-1,-2,-1
1528883244845580,2,-4,-5,0,0,0,-3,-2
1528883244845580,-2,-2,-1,-1,-1,-1,-1,0
1528883244867145,0,-4,-2,1,0,-2,0,-1
1528883244867145,-6,-6,-10,-1,-1,-3,0,-1
1528883244868144,0,-1,10,2,0,-1,0,0
1528883244868144,-1,3,-1,-2,0,-2,-3,-3
1528883244880556,1,4,0,1,0,0,0,1
1528883244880556,-2,-7,0,-5,0,0,0,-3
1528883244889168,2,4,5,4,-2,-2,-1,0
1528883244889168,-2,0,0,2,-1,-1,1,0
1528883244904090,-2,1,2,5,-2,0,-1,-3
1528883244904090,-4,-11,-11,-14,-3,-1,-2,0
1528883244906485,1,8,8,-3,-4,-1,-3,-3
1528883244906485,-1,-3,-7,-6,-1,-1,-1,-2
1528883244934791,-3,-3,7,7,-1,-2,0,2
1528883244934791,1,1,9,13,2,0,-2,-6
1528883244936443,-1,-3,-9,-7,-1,-1,0,0
1528883244936443,-2,-5,-2,-1,0,1,-1,-1
1528883244940662,-3,-2,-13,-21,-5,-2,0,0
1528883244940662,-1,0,2,-1,0,-2,1,0
1528883244949373,-1,-2,-1,1,-3,-1,-2,-2
1528883244949373,1,4,7,11,0,1,-2,-2
1528883244964016,-1,1,-5,-3,-1,0,-2,-1
1528883244964016,-1,-6,-14,-19,-6,-2,-1,0
1528883244965676,1,-2,6,6,0,-2,-1,0
1528883244965676,0,-2,-2,-1,-2,-2,-1,-1
1528883244986880,-1,1,6,13,0,-2,-1,-2
1528883244986880,-2,-2,-1,5,0,1,-2,-2
1528883244988885,-1,3,-9,-23,-1,-1,-2,3
1528883244988885,1,-2,3,2,-4,-2,0,2
1528883245000662,-1,-1,-2,-5,-2,0,-3,-1
1528883245000662,-2,-3,3,13,1,0,-2,-2
1528883245009649,1,1,0,3,-1,0,0,0
1528883245009649,-3,-2,0,-1,-1,-1,-1,-2
1528883245023603,-2,-4,-15,-23,-9,-3,-1,-3
1528883245023603,1,0,-1,5,-2,0,0,2
1528883245025599,-1,-1,6,4,1,-1,-1,0
1528883245025599,-2,-3,-3,-3,1,0,-1,-1
1528883245046593,-2,-1,2,4,1,0,-1,-1
1528883245046593,-2,-1,-3,-5,-3,2,-3,-1
1528883245048555,-3,-1,0,3,-2,-1,0,0
1528883245048555,-3,-2,-4,-3,-2,1,0,-3
1528883245060771,1,-1,-2,-2,1,-1,-1,-1
1528883245060771,0,0,0,-3,-1,-2,-1,-1
1528883245069480,0,0,2,4,0,-1,-1,-4
1528883245069480,-2,-2,2,0,-1,-3,-2,-2
1528883245083998,0,-2,-6,-4,-1,0,-2,-1
1528883245083998,-1,-1,8,3,-2,-2,-1,-1
1528883245085746,1,-1,3,3,0,0,1,4
1528883245085746,-1,-4,-15,-4,-2,-2,-1,-6
