timestamp,emg1,emg2,emg3,emg4,emg5,emg6,emg7,emg8
1528879426541506,-6,-15,-59,-31,-3,25,1,-3
1528879426541506,0,8,10,14,42,2,-4,-1
1528879426549485,0,4,67,38,-49,11,2,1
1528879426549485,3,6,23,-12,6,-9,-1,-1
1528879426557463,9,10,10,11,-6,-7,0,3
1528879426557463,1,-3,-23,-15,4,2,3,2
1528879426567437,2,1,-19,-9,-10,-4,2,3
1528879426567437,1,-8,-20,1,18,3,-3,-4
1528879426579441,-9,-23,-56,-32,0,-2,-3,-3
1528879426579441,-5,-11,-20,-36,-20,-9,-6,-4
1528879426587384,-3,11,32,53,51,3,-3,-1
1528879426587384,1,10,52,6,-59,-2,3,0
1528879426602345,0,6,4,21,45,1,0,0
1528879426602345,1,-1,16,13,-32,-2,5,3
1528879426609325,1,-3,-11,-37,-10,-5,-2,1
1528879426609325,2,-2,-50,-11,33,5,0,0
1528879426632265,-6,-23,-34,-66,-28,-7,-4,-1
1528879426632265,-2,19,53,52,-27,-4,-3,-1
1528879426639245,-2,13,53,17,36,2,2,1
1528879426639245,14,20,20,32,25,16,7,4
1528879426647224,-1,-15,-51,-12,30,4,-1,0
1528879426647224,0,1,54,-5,-8,-5,-1,-1
1528879426654205,-8,-12,-43,-58,-52,-8,-5,-3
1528879426654205,0,-7,11,36,-1,-6,-3,-2
1528879426662184,-10,-5,-47,-13,-11,-1,0,-2
1528879426662184,-6,-19,-38,-10,10,-2,-2,-3
1528879426677143,-7,-17,-91,-98,-19,-6,-2,-4
1528879426677143,-2,23,85,77,16,11,3,1
1528879426684151,23,47,-4,14,2,6,6,5
1528879426684151,5,-11,-67,-30,10,4,5,4
1528879426699085,-9,-24,-59,-16,14,1,-3,-4
1528879426699085,-5,-13,19,-52,-31,-10,-4,-2
1528879426707066,-5,3,19,22,5,-4,-4,-3
1528879426707066,-2,-2,-5,9,20,2,0,0
1528879426722023,5,25,115,123,10,6,3,1
1528879426722023,9,2,-52,-65,43,11,7,6
1528879426736983,0,5,76,73,10,-5,-2,-2
1528879426736983,-1,5,-27,-38,-24,3,-1,-3
1528879426743966,-4,-15,-20,-44,-7,-8,-3,-3
1528879426743966,-6,-3,-10,-6,-3,4,0,-1
1528879426759923,4,0,-15,9,51,8,-2,0
1528879426759923,-1,0,-24,-15,-5,-9,-3,0
1528879426766904,-3,-4,37,10,-34,0,-2,-3
1528879426766904,2,8,-7,21,28,9,0,-3
1528879426781905,-7,-19,-52,-39,15,-2,-4,-3
1528879426781905,-8,0,64,26,28,3,-5,-5
1528879426796875,4,16,14,22,10,12,4,1
1528879426796875,1,-3,0,17,14,5,5,3
1528879426804837,2,-2,-34,-24,-23,-11,-1,0
1528879426804837,-3,-2,2,-17,-48,-15,-5,-3
1528879426819802,-2,4,14,2,-12,1,2,2
1528879426819802,-2,-8,-29,0,-3,-1,-4,-7
1528879426826743,0,-1,16,6,35,12,0,3
1528879426826743,0,-6,-19,-8,-26,-8,-1,0
1528879426841723,-4,-1,5,0,8,-2,-1,-8
1528879426841723,4,3,3,2,-27,-6,-1,1
1528879426856666,-1,-5,-9,-6,-8,-3,-1,1
1528879426856666,-3,-3,-8,-2,5,-5,-3,-3
1528879426864643,1,0,12,6,12,2,3,4
1528879426864643,-2,-2,-5,-3,-13,-2,1,-1
1528879426879604,-3,-2,0,-4,10,-4,-3,-2
1528879426879604,0,-1,-5,0,37,5,0,0
1528879426886586,-1,-4,-1,0,-46,-4,-4,0
1528879426886586,-3,-1,1,-2,-1,-9,-1,-1
1528879426901546,-1,-1,0,-2,5,-2,1,0
1528879426901546,0,1,3,5,-12,2,0,-1
1528879426916508,-2,-5,-1,2,9,7,1,0
1528879426916508,-2,-3,-11,-5,2,5,2,-1
1528879426924482,1,-1,6,-3,-7,-13,-4,3
1528879426924482,-2,1,0,2,18,-5,-6,-4
1528879426939443,-2,-5,-2,1,-8,8,0,-1
1528879426939443,-3,-4,-2,-12,-48,-6,0,-2
1528879426947422,3,6,5,1,23,18,2,0
1528879426947422,6,1,2,5,-25,-14,-2,6
1528879426962407,-4,-5,-3,-1,-15,-17,-8,-2
1528879426962407,-2,1,-1,3,16,29,1,-2
1528879426977342,-1,-2,6,6,-13,-27,-1,1
1528879426977342,1,7,7,9,19,-5,6,2
1528879426984323,2,-1,-2,-6,-11,2,6,-2
1528879426984323,-10,-2,-3,-2,20,5,-2,-2
1528879426999319,-11,-23,-13,-12,-55,9,-2,-4
1528879426999319,1,7,1,-1,-7,-9,-4,1
1528879427007317,6,20,-4,0,39,-5,3,11
1528879427007317,-8,-13,-2,-5,-13,-39,-8,-13
1528879427022223,-13,-24,-12,-13,-25,10,1,-8
1528879427022223,3,31,8,6,-13,-10,-2,0
1528879427037221,8,9,4,11,3,-3,0,1
1528879427037221,-20,-6,-15,-13,-14,-6,0,-2
1528879427045219,11,11,31,20,49,15,0,3
1528879427045219,-2,-11,9,1,-17,14,5,2
1528879427059123,-7,-8,-28,-16,-46,-34,-7,-5
1528879427059123,4,1,2,0,-3,15,-4,3
1528879427067128,-5,-17,-22,-25,-21,-5,-2,-3
1528879427067128,-6,-3,-5,15,18,0,-1,-6
1528879427082109,-3,-3,-8,-3,0,-12,-2,-3
1528879427082109,6,-9,-3,-7,-15,6,2,3
1528879427097022,-6,-4,-14,-4,25,-1,2,-2
1528879427097022,-8,-2,-3,3,3,-15,-7,-5
1528879427104040,-5,-1,5,-4,-3,10,1,2
1528879427104040,3,2,-9,-11,-14,-1,2,-2
1528879427119960,-1,-1,10,13,-18,-13,-4,-4
1528879427119960,5,10,12,-1,-10,27,1,1
1528879427126977,-1,0,-2,5,20,-22,-1,1
1528879427126977,1,-8,-16,-13,7,4,-6,-4
1528879427141940,-1,1,-1,3,-6,16,3,-1
1528879427141940,0,-1,-1,-5,25,-7,-3,1
1528879427156898,-7,-4,-6,-11,-41,-9,-5,-8
1528879427156898,4,3,2,4,-3,1,0,5
1528879427164880,4,5,1,2,7,7,2,-1
1528879427164880,1,0,-2,-7,-11,1,-5,3
1528879427179849,2,4,-1,1,28,-2,-2,2
1528879427179849,-10,-10,-3,-1,-26,6,1,-2
1528879427186783,9,16,3,1,-38,-11,2,-2
1528879427186783,4,3,9,2,25,10,5,11
1528879427201743,-4,-9,-6,-8,-42,-11,-5,-7
1528879427201743,-15,-14,-5,-11,20,-10,-5,-17
1528879427209722,-3,-4,-5,-8,-19,0,-1,-1
1528879427209722,6,17,7,14,-10,16,7,0
1528879427216705,17,1,7,12,73,-16,1,10
1528879427216705,3,5,-1,-3,-20,-15,-1,0
1528879427224719,-3,-7,-12,-2,-6,-7,0,-3
1528879427224719,-3,-9,-2,-10,-2,-1,-1,-1
1528879427239678,-2,1,-1,-4,-24,14,-3,2
1528879427239678,-3,2,2,3,1,-19,-1,-2
1528879427247733,0,3,12,11,0,15,0,-3
1528879427247733,-3,-3,6,3,15,3,5,5
1528879427261632,-4,0,-6,-7,8,-8,-1,0
1528879427261632,11,2,-3,-5,-30,-2,-2,1
1528879427269562,-10,-9,1,9,30,2,-1,6
1528879427269562,4,3,-3,0,-6,3,-1,-11
1528879427277671,-1,-4,-2,-1,26,12,1,-2
1528879427277671,-7,-12,-5,-2,-19,-4,-2,-1
1528879427284547,5,-9,1,-8,-20,-8,-3,0
1528879427284547,19,39,0,12,9,-2,3,6
1528879427299784,-3,0,5,0,14,8,-1,-6
1528879427299784,5,3,5,8,-17,-4,-3,-3
1528879427306776,0,-11,-2,-2,25,-7,-6,-10
1528879427306776,-17,-19,-22,-18,-19,-6,0,-3
1528879427321759,-2,6,9,5,-15,-1,1,2
1528879427321759,3,1,14,13,27,7,0,6
1528879427329760,2,6,0,0,29,2,-4,3
1528879427329760,-5,-10,-5,-9,-80,-25,-1,-3
1528879427337713,-6,-4,-17,-11,36,-4,0,-3
1528879427337713,-6,-4,0,-2,6,10,0,-1
1528879427344930,5,12,9,9,-4,-5,1,3
1528879427344930,-13,-10,-5,1,23,3,-1,-5
1528879427359884,0,-3,6,1,-7,5,-1,2
1528879427359884,21,26,2,-1,-16,0,0,-8
1528879427366606,-12,-6,-10,-5,-2,-4,2,-1
1528879427366606,3,-1,9,7,9,4,-4,7
1528879427381564,-7,-6,6,5,-28,0,2,-1
1528879427381564,6,-2,-2,2,43,24,2,7
1528879427389599,-4,-4,-6,-7,-24,8,-2,-12
1528879427389599,-1,-2,-2,-3,20,8,-2,1
1528879427397727,5,0,1,11,30,-26,-1,0
1528879427397727,-7,1,-3,-4,-20,0,2,5
1528879427404764,2,3,4,3,-26,-10,-4,-2
1528879427404764,-6,-9,0,-2,2,7,-3,-4
1528879427419721,3,6,-1,-2,43,2,-3,-1
1528879427419721,-5,-9,-10,-12,-7,7,-1,0
1528879427427005,-6,-7,-1,-3,-11,-8,0,1
1528879427427005,5,11,6,4,-12,0,2,-1
1528879427449680,3,4,0,4,9,21,2,2
1528879427449680,0,-5,-7,-4,-2,-14,1,-2
1528879427456661,-4,-2,13,0,-5,-4,-4,1
1528879427456661,-3,-7,-4,2,33,15,1,-3
1528879427464641,4,3,-9,-11,-39,-14,0,3
1528879427464641,-9,-2,-2,-5,11,11,-3,2
1528879427471623,-1,1,-6,2,-1,8,2,-9
1528879427471623,5,1,6,1,-13,6,3,6
1528879427486616,-1,-2,-2,1,3,-4,-6,-9
1528879427486616,-3,0,0,2,-14,-3,-1,-4
1528879427494594,1,2,-1,-5,-2,-12,1,11
1528879427494594,-1,-3,0,0,32,-5,-2,0
1528879427501596,-5,-4,-9,-5,-14,5,-5,-2
1528879427501596,-8,-12,3,-1,-10,1,3,-7
1528879427509574,12,20,5,10,17,-2,-5,2
1528879427509574,-1,-4,-2,-7,-33,-20,-4,-2
1528879427516501,-3,-4,-6,-14,16,8,3,0
1528879427516501,5,1,2,7,-36,-6,-3,1
1528879427524481,-4,-4,-4,1,-8,18,3,-2
1528879427524481,-4,-4,-5,-3,22,-26,-5,-4
1528879427539497,1,-1,4,4,-28,26,5,0
1528879427539497,3,8,5,3,33,-40,1,5
1528879427547446,-1,-3,4,6,-2,14,-2,-9
1528879427547446,10,14,6,-1,-17,-6,0,8
1528879427562434,-7,-10,-6,2,12,-15,-16,-9
1528879427562434,-6,-7,-10,-15,0,14,-3,-8
1528879427569418,-12,-14,-4,-4,-3,3,2,6
1528879427569418,17,23,7,10,21,20,-4,-5
1528879427577393,0,-3,-13,-8,-4,-6,-1,1
1528879427577393,2,1,10,0,-17,8,-3,5
1528879427584375,-6,-12,-15,-3,36,-28,-7,-9
1528879427584375,-4,-1,12,9,-17,9,0,1
1528879427599291,6,6,10,12,-12,-7,10,8
1528879427599291,2,2,-2,-8,21,4,-3,-5
1528879427607314,1,1,-2,0,-40,38,11,5
1528879427607314,-9,-14,-19,-23,-30,-45,-8,-7
1528879427622274,-2,-3,1,-1,16,-15,-4,-1
1528879427622274,-4,-3,-8,1,13,-1,-4,-3
1528879427629253,10,5,17,11,-5,-7,-2,2
1528879427629253,0,4,-5,3,9,1,2,3
1528879427637233,-5,-6,0,-13,-23,1,1,-1
1528879427637233,-4,-7,-7,7,23,-2,1,4
1528879427644215,0,9,-7,-2,20,-2,0,-1
1528879427644215,-3,-5,10,5,-3,10,-6,-8
1528879427659120,-6,-10,7,5,4,2,7,16
1528879427659120,17,29,-5,-3,-22,-9,-6,-10
1528879427667099,-6,-12,-3,-11,-8,0,-5,-3
1528879427667099,-4,-6,-7,-1,0,-5,-2,-9
1528879427682112,6,3,4,-3,-12,-1,-1,-3
1528879427682112,-11,-6,-6,2,5,-11,4,2
1528879427689077,4,6,6,4,-8,-8,-2,1
1528879427689077,1,-7,-8,-16,-6,10,4,8
1528879427697056,1,8,-6,6,20,4,-3,-2
1528879427697056,-2,-2,5,-2,-12,-3,-5,-4
1528879427704053,1,-1,-3,2,32,-3,0,-2
1528879427704053,-6,-14,-2,-6,-12,-16,-2,1
1528879427719015,-1,11,-1,0,8,13,2,-3
1528879427719015,13,6,9,6,-73,2,4,6
1528879427726939,-3,-3,1,-2,35,15,2,-3
1528879427726939,-8,-20,-3,1,10,8,0,2
1528879427741953,-10,14,-4,-6,-10,-9,-5,-7
1528879427741953,10,0,6,6,20,13,5,9
1528879427749885,-3,-2,-5,-2,6,-8,1,-5
1528879427749885,-6,-9,-8,-2,8,11,-1,-6
1528879427756859,-5,-6,4,0,-16,-7,-4,-5
1528879427756859,-3,-13,-5,2,26,-2,2,1
1528879427764870,8,10,-4,-11,-31,-8,-1,3
1528879427764870,3,-6,1,5,14,28,0,-1
1528879427780215,1,4,11,0,21,-15,-5,0
1528879427780215,-1,5,-7,-1,10,2,-2,-1
1528879427787443,1,3,10,4,-23,-10,2,2
1528879427787443,0,0,-5,-1,7,1,1,-3
1528879427802453,9,4,-10,-5,-9,13,4,5
1528879427802453,-7,-9,7,4,16,-1,-1,-5
1528879427810340,-6,-2,-4,0,22,-1,-1,-1
1528879427810340,-3,4,8,2,-73,-9,4,-2
1528879427817479,7,0,-8,-7,28,10,-4,-3
1528879427817479,-2,-5,-7,-7,6,-8,0,6
1528879427825201,-2,-4,-2,1,-8,9,-1,-5
1528879427825201,4,12,12,15,21,0,1,6
1528879427840151,-1,-6,-7,-6,-37,-7,1,1
1528879427840151,-5,-3,-2,-5,-10,4,-4,-12
1528879427847241,2,-3,-2,-2,19,-10,-4,2
1528879427847241,-1,0,-3,-7,1,1,-1,-3
1528879427862577,-6,-7,-11,-8,-21,-7,-1,-4
1528879427862577,-3,-7,-3,2,34,2,0,0
1528879427869556,5,13,8,0,-21,2,0,2
1528879427869556,0,4,2,3,7,-8,-2,-1
1528879427877536,4,-4,2,6,-10,2,2,2
1528879427877536,-2,-5,-2,-4,-7,-6,-2,-1
1528879427885250,0,3,2,-1,10,1,-1,-4
1528879427885250,2,3,-3,-3,10,4,3,9
1528879427899213,3,-6,2,3,9,-3,1,-4
1528879427899213,-2,-3,-6,-2,-21,5,0,0
1528879427906772,1,-1,-12,-10,-19,-4,-2,1
1528879427906772,0,4,5,0,8,1,-1,-1
1528879427922579,-2,2,5,7,16,2,1,-1
1528879427922579,-3,-1,-1,1,16,-8,-2,-3
1528879427929563,0,-1,1,-4,-16,-7,1,3
1528879427929563,-2,-1,-1,4,3,-1,-3,-5
1528879427936861,0,-4,-2,-3,9,6,-1,1
1528879427936861,1,4,3,-1,-8,-4,0,1
1528879427944585,-1,-3,-3,7,9,6,1,2
1528879427944585,0,0,1,3,6,-2,1,0
1528879427959779,-4,-4,-2,1,0,12,1,-1
1528879427959779,1,7,9,-2,-9,-16,-2,0
1528879427966801,-1,-3,-5,-3,-4,5,3,4
1528879427966801,-1,1,5,2,17,-5,1,-5
1528879427982018,3,1,-3,-4,-28,9,0,8
1528879427982018,-1,-2,-4,-2,11,-4,0,-1
1528879427990061,-2,-2,-2,-2,-7,-1,-3,-2
1528879427990061,-2,-2,-6,-3,-2,-19,-3,-2
1528879427997068,-3,-2,0,5,11,1,1,-2
1528879427997068,0,-1,0,-3,1,5,0,0
1528879428005047,1,-2,0,0,-7,-4,-2,-4
1528879428005047,4,-1,-6,-6,-1,6,2,5
1528879428019914,0,4,4,4,-5,-8,-2,-4
1528879428019914,0,-1,3,5,-7,-2,-4,-2
1528879428026641,-2,0,1,-7,-28,-9,-2,-1
1528879428026641,-2,-1,-1,-1,-5,0,2,-1
1528879428042765,1,-2,-1,-2,-1,-3,-4,-3
1528879428042765,-1,-3,-4,-3,13,9,2,0
1528879428049580,-3,-1,-1,4,13,-3,-3,-2
1528879428049580,-1,1,-1,1,-6,-1,-2,0
1528879428056864,0,0,-9,-6,6,-8,1,1
1528879428056864,-1,1,13,6,-4,3,3,-2
1528879428065262,-3,-6,-8,-6,-4,-1,3,-1
1528879428065262,0,1,6,6,3,-4,-5,-4
1528879428080242,-1,-2,1,4,8,3,4,0
1528879428080242,-2,-1,-2,-7,-7,-5,-2,1
1528879428087340,4,4,0,0,3,1,0,1
1528879428087340,-2,-5,-3,-1,3,-1,-1,0
1528879428102304,0,-1,-1,-3,-1,0,1,-2
1528879428102304,-1,-3,-5,0,-5,1,1,0
1528879428117259,1,5,8,5,-16,-5,-4,-4
1528879428117259,-1,0,3,-2,10,5,1,0
1528879428131961,0,-1,2,-1,8,3,0,-3
1528879428131961,3,5,2,1,-15,-3,0,0
1528879428139946,-2,-2,0,-4,8,3,2,1
1528879428139946,1,-2,-36,-17,-31,-6,-2,-3
1528879428154897,0,-1,24,6,19,-6,1,3
1528879428154897,-3,2,4,16,-5,13,1,-3
1528879428162152,1,2,6,-3,-35,-16,-2,3
1528879428162152,-1,-3,0,5,45,21,2,0
1528879428176951,1,-1,-2,0,-3,1,1,3
1528879428176951,0,-5,-19,-9,-20,-5,1,0
1528879428192736,-4,-1,26,-4,-10,-2,-3,-2
1528879428192736,-2,-1,-5,-2,10,1,-1,-1
1528879428199515,6,13,10,13,7,1,-2,-6
1528879428199515,-1,4,13,7,8,-1,1,3
1528879428215031,-2,-4,-15,1,4,4,1,0
1528879428215031,-6,-10,-6,-14,3,-3,-1,0
1528879428221749,-5,-6,-27,-22,4,-2,-1,-2
1528879428221749,-2,-4,20,13,0,0,-2,1
1528879428236949,-4,-9,-3,0,4,1,0,0
1528879428236949,-2,-4,1,-9,-6,-4,-1,-1
1528879428251921,-7,-11,-61,-27,-16,-4,2,-1
1528879428251921,2,7,60,-2,5,-1,-3,-2
1528879428260244,1,13,39,52,9,4,2,-1
1528879428260244,1,4,6,-2,3,0,0,1
1528879428275157,0,-10,-21,-8,0,1,1,0
1528879428275157,-8,-23,-96,-53,-10,-8,-7,-6
1528879428282282,3,6,28,0,4,0,-2,2
1528879428282282,2,22,74,51,7,0,2,0
1528879428297322,-6,-14,-30,-29,-25,-2,-2,-1
1528879428297322,-5,-7,-51,-34,-11,-7,-6,-3
1528879428312294,1,-4,17,9,0,1,-1,-1
1528879428312294,2,11,43,30,4,0,0,1
1528879428320209,-1,-2,-19,4,10,-1,1,-1
1528879428320209,0,-3,8,2,-5,2,1,0
1528879428335230,-1,-3,-9,-16,4,0,-1,-1
1528879428335230,-5,-5,-18,-2,2,-1,-1,-1
1528879428342211,2,3,22,10,6,6,2,0
1528879428342211,1,-2,-14,-11,-8,-3,-2,-2
1528879428357536,-4,-6,0,-5,4,0,4,0
1528879428357536,-2,-9,-44,-17,-8,-4,-4,-3
1528879428372365,-1,-8,-34,-17,-4,-3,-2,-2
1528879428372365,-1,16,96,47,5,-3,-3,0
1528879428380000,1,9,3,10,5,2,1,-1
1528879428380000,2,-2,3,1,5,-1,-1,0
1528879428394962,-4,-10,-34,-20,-7,-2,1,-1
1528879428394962,-3,-14,-50,-44,-12,-8,-4,-1
1528879428401942,-4,-7,5,18,-1,-1,-2,-4
1528879428401942,3,8,-20,-8,6,1,2,4
1528879428417154,-1,-6,-38,-35,-2,-1,1,0
1528879428417154,-3,-2,9,20,3,-1,-3,-4
1528879428432130,-2,-1,0,-2,-3,-1,-1,-1
1528879428432130,2,2,8,9,1,2,0,-2
1528879428440099,-1,-7,-38,-20,-4,-2,-3,-1
1528879428440099,-3,-7,-15,-21,-7,-1,0,-2
1528879428455292,-1,-1,24,20,-1,0,-2,-2
1528879428455292,0,10,31,25,6,1,1,-1
1528879428461997,4,5,-9,-9,3,-1,-1,0
1528879428461997,-1,-4,3,1,0,1,2,1
1528879428477219,-2,9,101,47,-7,0,0,1
1528879428477219,2,13,25,20,10,1,1,1
1528879428492178,3,3,1,0,10,2,-1,1
1528879428492178,-1,-2,-14,-4,0,0,-1,-1
1528879428500893,-4,-7,-29,-29,6,1,-1,0
1528879428500893,-2,-5,1,7,-7,-3,-2,-3
1528879428515096,0,-1,-30,-8,-9,-5,-2,-2
1528879428515096,2,4,49,16,-1,1,1,0
1528879428521847,-2,-7,-14,0,-3,-3,-1,-1
1528879428521847,0,4,7,-9,-3,-2,1,-1
1528879428537034,0,-2,10,14,1,0,0,-1
1528879428537034,-1,-3,-5,0,-1,0,-1,-1
1528879428551995,-1,-2,-3,-7,-5,1,2,2
1528879428551995,-3,-1,1,-2,11,-2,-2,-1
1528879428559998,-1,-1,-7,-4,16,0,-2,-2
1528879428559998,1,-3,-12,-7,-7,1,0,1
1528879428574699,-1,1,14,2,-10,0,-2,-1
1528879428574699,1,2,4,3,-4,-2,-2,0
1528879428581681,0,0,-15,-9,-5,-2,-1,-1
1528879428581681,-1,-3,3,1,-2,2,-1,0
1528879428596637,0,1,-7,-6,-2,-1,-1,-1
1528879428596637,-1,-1,5,1,-1,0,0,0
1528879428612712,-2,-1,4,4,0,0,0,0
1528879428612712,0,0,-9,-5,-1,-1,-1,2
1528879428619596,-1,0,2,-2,0,5,2,2
1528879428619596,-1,-2,3,2,0,-6,-4,-2
1528879428634536,1,0,-2,0,2,-1,-1,-1
1528879428634536,-1,1,0,1,-1,-1,-1,-1
1528879428642719,0,1,0,-1,-1,7,3,-1
1528879428642719,1,0,-1,0,-1,-6,-4,-2
1528879428658472,0,2,-2,-2,-5,-3,-1,-1
1528879428658472,0,1,-2,-2,0,2,1,1
1528879428672668,0,-1,2,2,0,3,2,3
1528879428672668,-2,-1,0,-3,-4,-6,-2,0
1528879428679648,0,-3,-3,-3,-2,-7,-4,0
1528879428679648,-1,-1,0,1,1,-2,-1,-2
1528879428694379,0,0,3,2,0,1,-1,0
1528879428694379,-1,0,-3,0,-3,-3,-1,-3
1528879428702650,-4,-2,0,-5,-1,-4,-3,0
1528879428702650,0,-2,1,-2,-1,-2,-1,1
1528879428717592,-1,-1,-1,-2,-1,-3,-2,0
1528879428717592,0,0,1,0,-3,1,1,-1
1528879428732250,-2,-1,-2,0,1,0,0,0
1528879428732250,2,1,-1,0,-2,2,2,1
1528879428740236,-1,-1,0,1,-1,-1,-1,-2
1528879428740236,-1,0,-1,-2,2,0,0,1
1528879428754798,0,1,-1,0,-2,-4,-3,-2
1528879428754798,-1,-1,-2,0,-2,1,0,-1
1528879428762624,0,0,0,-2,1,-1,-1,0
1528879428762624,-1,1,0,-2,-2,-1,1,1
1528879428777473,0,0,0,0,0,-1,0,0
1528879428777473,-1,1,0,-1,1,-1,-3,-4
1528879428792431,0,-2,0,-1,-1,-2,-2,-1
1528879428792431,-1,-2,-1,1,0,-2,-3,0
1528879428799413,1,-4,-1,-1,-2,1,3,1
1528879428799413,-1,-1,-1,0,-1,-1,-1,-2
1528879428815085,-1,-2,-1,0,-1,-2,-1,0
1528879428815085,1,-3,-1,-2,0,0,1,-2
1528879428822071,0,-1,1,0,-2,-3,-4,-2
1528879428822071,-1,-1,1,1,-1,1,0,1
1528879428837466,0,-1,-3,-2,-1,-1,1,1
1528879428837466,0,-2,-3,-1,-1,-1,0,-2
1528879428852124,0,-1,1,2,1,1,-3,-1
1528879428852124,0,2,1,-2,1,0,-1,0
1528879428860153,-1,0,0,-1,0,-1,-1,-1
1528879428860153,-1,-2,-3,-2,-4,-3,5,2
1528879428874076,-1,-1,0,0,-1,-2,-4,-2
1528879428874076,-1,1,1,0,0,1,1,1
1528879428882206,1,2,1,1,0,-1,-1,-1
1528879428882206,1,0,-1,-2,-2,0,3,0
1528879428897442,-3,-1,-1,0,-1,0,0,0
1528879428897442,-3,-1,1,3,2,0,-3,-2
1528879428912670,0,-1,-1,0,-1,-1,1,0
1528879428912670,2,-2,2,-1,-1,-1,0,-1
1528879428919648,-2,-2,-2,-1,-2,0,-2,-1
1528879428919648,-2,0,0,1,-1,0,-2,0
1528879428935185,-2,-1,-2,0,-1,1,1,0
1528879428935185,-2,-2,-2,-2,1,-3,-1,-2
1528879428941897,0,0,-2,-2,0,0,-1,0
1528879428941897,1,0,-1,0,2,2,-3,0
1528879428957103,0,1,2,1,0,-1,0,-1
1528879428957103,-1,-1,-1,0,0,-2,-1,-1
1528879428971814,0,-1,-1,-1,-2,0,0,-1
1528879428971814,-1,-1,1,-2,-2,2,-2,-2
1528879428979792,-1,0,-2,0,0,0,0,-1
1528879428979792,-1,-1,1,1,-2,-4,2,-1
1528879428994312,0,0,-1,-1,-1,0,0,1
1528879428994312,-2,0,0,0,0,-1,0,1
1528879429002543,1,-1,-1,0,1,-1,-1,-1
1528879429002543,-2,-1,0,-1,0,1,-1,0
1528879429017505,1,0,-1,-1,-2,1,-1,-1
1528879429017505,0,0,-3,-2,-1,0,-1,-1
1528879429032212,0,0,-2,-2,-1,0,-1,-1
1528879429032212,1,-1,1,1,0,-2,-1,0
1528879429039235,0,-3,-2,0,1,-1,0,0
1528879429039235,-2,0,-1,-1,0,-1,-2,-1
1528879429054413,-2,1,-1,0,0,1,0,1
1528879429054413,-1,-2,-1,1,-2,0,0,-1
1528879429062390,-1,0,2,0,0,-3,-1,-3
1528879429062390,-1,-1,-1,0,-1,1,1,1
1528879429077656,0,0,1,2,-2,-3,0,0
1528879429077656,-2,-2,0,1,0,-1,-1,0
1528879429092684,-2,0,-1,-3,0,0,1,-1
1528879429092684,-2,-2,0,-1,0,-2,-5,-3
1528879429099848,-1,1,-2,-1,0,0,0,-1
1528879429099848,0,-1,0,-1,-1,-3,0,-1
1528879429115363,-1,-3,0,0,-1,-2,-1,0
1528879429115363,-2,0,-2,-2,-2,1,1,-4
1528879429122562,-1,-1,-1,-1,-1,0,1,-1
