timestamp,emg1,emg2,emg3,emg4,emg5,emg6,emg7,emg8
1529304862229669,-6,-7,-1,-2,3,-1,0,-3
1529304862229669,-1,3,10,3,-5,-3,-1,0
1529304862235652,1,0,-3,2,0,-3,1,0
1529304862235652,2,2,-5,-3,5,-6,0,1
1529304862250615,0,-1,10,1,-20,8,-3,-3
1529304862250615,-3,-5,-6,2,13,8,2,-1
1529304862257594,0,-2,-2,-10,-4,-2,0,-1
1529304862257594,3,6,-2,3,2,-1,-3,-2
1529304862272554,1,-1,-10,-8,-2,-4,-1,2
1529304862272554,-1,-10,-14,-3,-4,-7,-2,-2
1529304862280533,-4,-12,-12,1,-2,1,-2,-4
1529304862280533,2,19,29,0,-3,4,1,1
1529304862289511,2,12,19,6,10,-6,0,0
1529304862289511,2,1,-4,10,5,-3,0,0
1529304862295543,-3,-5,20,6,18,5,0,1
1529304862295543,-2,-7,-17,-20,-33,-2,2,-1
1529304862310452,0,7,-8,-8,-16,-12,-5,-1
1529304862310452,-3,-12,-20,-6,13,3,0,-4
1529304862317435,-8,-15,-7,6,13,3,-2,-3
1529304862317435,1,3,17,19,21,5,1,1
1529304862332394,2,5,-10,-14,-16,0,-1,-1
1529304862332394,1,2,14,14,23,1,-2,-3
1529304862340375,-2,1,-33,-22,-30,-5,-3,-1
1529304862340375,-5,-11,-19,-18,-8,-4,-4,-4
1529304862349349,-2,-1,37,16,19,2,1,1
1529304862349349,2,9,11,9,3,4,1,3
1529304862355374,5,8,30,24,16,6,4,4
1529304862355374,1,-11,-24,-16,-9,-6,-1,1
1529304862370344,-2,2,-15,6,-3,-2,-2,-2
1529304862370344,-5,-8,1,-6,-7,-2,-2,-3
1529304862378271,-2,0,-9,-25,-27,-7,-5,-4
1529304862378271,-4,-9,-28,0,6,0,-4,-5
1529304862393268,-2,-7,0,-16,1,2,0,0
1529304862393268,0,-12,0,25,13,2,-1,1
1529304862400216,6,31,31,-6,-27,-8,2,1
1529304862400216,5,14,51,29,20,2,2,2
1529304862409249,2,-2,-17,16,20,12,0,0
1529304862409249,-3,-7,-19,-38,-27,-2,-3,-1
1529304862423203,-2,-7,-5,-5,-4,-4,-2,-1
1529304862423203,-2,-9,-8,-4,2,-2,-3,-1
1529304862430183,-3,-12,-14,3,-5,-2,0,-2
1529304862430183,-1,-2,-9,-10,5,-3,1,-1
1529304862438193,-1,-7,-6,10,17,4,0,-1
1529304862438193,3,11,6,0,1,1,1,3
1529304862453123,1,2,1,-6,-4,0,2,1
1529304862453123,1,-2,-4,-10,-19,-4,0,-1
1529304862460310,0,6,6,4,-8,-2,-1,-1
1529304862460310,-5,0,16,3,5,1,-2,-1
1529304862469427,1,5,12,16,14,1,-1,1
1529304862469427,6,22,15,0,-11,-4,-1,3
1529304862483334,2,-7,-9,7,25,6,2,1
1529304862483334,-4,-16,-34,-19,-33,-6,-3,-2
1529304862490424,-3,-14,-5,4,29,0,-4,-4
1529304862490424,-3,1,16,4,0,1,1,-1
1529304862498280,1,-5,-11,-4,-11,-3,-2,-1
1529304862498280,1,5,1,3,19,3,0,0
1529304862513240,-1,4,0,-10,-27,-5,0,-2
1529304862513240,2,4,2,6,17,1,-2,0
1529304862520222,1,4,5,-3,-11,-4,0,0
1529304862520222,-2,-6,4,-6,-16,-7,-1,0
1529304862529198,-2,-2,0,-7,-2,-9,0,2
1529304862529198,-3,-11,-15,1,8,24,-5,-8
1529304862543161,-2,0,3,-6,11,-8,-4,-3
1529304862543161,-1,2,-3,-1,-13,-5,1,-4
1529304862550142,0,-3,-1,-3,1,5,14,8
1529304862550142,-2,-1,12,1,-11,-11,-2,-2
1529304862566099,-2,-2,-5,0,-1,0,0,1
1529304862566099,-1,7,4,11,14,4,0,6
1529304862573081,-4,-11,-20,-19,-21,-6,-6,-11
1529304862573081,-4,2,1,8,6,-2,-1,-11
1529304862580116,7,9,11,4,-5,8,2,19
1529304862580116,-1,0,3,4,13,1,0,-2
1529304862589038,0,-10,-9,-9,-10,-1,-3,2
1529304862589038,0,-4,-3,1,4,-1,6,8
1529304862604339,-4,10,0,-7,-14,-4,-12,-22
1529304862604339,3,-1,5,5,-4,6,4,4
1529304862611196,-1,0,3,2,14,-2,-5,-3
1529304862611196,0,1,1,-6,-15,-20,-1,2
1529304862617998,-1,-5,-4,2,10,17,1,1
1529304862617998,-2,-7,-10,16,38,3,0,0
1529304862633214,-2,1,-3,-23,-55,1,-3,-4
1529304862633214,2,3,7,-1,3,1,2,5
1529304862641202,-2,-6,-5,-1,4,-5,-4,-4
1529304862641202,1,0,2,-9,-21,-10,-3,-2
1529304862649311,0,-1,2,11,22,4,-7,-3
1529304862649311,-3,1,-5,-16,-17,-8,1,0
1529304862664441,1,-3,-1,1,6,-4,2,0
1529304862664441,-3,-6,-6,-1,8,1,-3,-2
1529304862670389,1,2,1,3,6,-16,-4,3
1529304862670389,1,2,6,-1,4,2,-2,2
1529304862678352,-2,-2,-4,0,-12,21,0,-1
1529304862678352,-1,0,4,-9,-20,-10,-2,-2
1529304862693065,-2,4,2,13,42,14,3,4
1529304862693065,-2,-1,-5,-10,-51,-10,-1,3
1529304862700349,-3,-4,1,9,23,8,-8,-20
1529304862700349,3,1,4,5,-5,-6,-5,13
1529304862709324,1,1,-1,-13,-5,7,2,-5
1529304862709324,0,-2,-4,5,12,-7,-5,-1
1529304862723832,-2,-3,-3,-4,-3,4,-1,5
1529304862723832,-3,-2,-4,0,1,-7,0,-10
1529304862730635,3,4,8,5,-5,3,7,0
1529304862730635,0,3,1,-1,2,-2,-3,4
1529304862737839,0,-2,-1,2,0,-2,3,3
1529304862737839,-2,-2,-5,-11,-5,10,-1,-10
1529304862752578,4,2,7,11,-9,-1,5,7
1529304862752578,-7,-3,-3,-4,12,13,-3,-8
1529304862760557,0,-3,1,1,-1,-12,-5,4
1529304862760557,-1,-4,-4,-4,1,6,0,-4
1529304862769531,3,2,3,10,7,-23,-5,7
1529304862769531,2,0,-8,-9,2,21,7,-3
1529304862783493,0,-1,-1,0,10,-5,4,1
1529304862783493,-1,0,-2,5,-3,-5,-1,3
1529304862790721,-1,3,2,-7,-23,-13,-4,2
1529304862790721,-2,1,2,6,11,-23,-17,-20
1529304862797987,-3,1,-1,3,8,-9,-1,-2
1529304862797987,1,2,-1,1,-2,-2,5,-1
1529304862812938,-3,0,3,10,27,25,9,-3
1529304862812938,4,1,0,4,4,-3,-1,5
1529304862820677,2,-2,-10,-9,19,1,8,4
1529304862820677,-1,1,14,1,-8,-1,-8,0
1529304862836262,-2,-6,-14,-20,-15,2,6,1
1529304862836262,-2,-1,2,-5,-15,0,4,-8
1529304862843826,0,-2,-4,6,10,-7,-5,-1
1529304862843826,1,-2,1,-2,1,6,0,4
1529304862859183,1,2,0,4,-3,4,-1,-1
1529304862859183,4,1,4,14,16,8,3,9
1529304862859183,2,2,0,-20,-41,-17,-2,1
1529304862859183,-5,1,-3,8,26,0,2,-6
1529304862872807,-10,-10,-6,-8,-7,-6,-6,2
1529304862872807,0,0,2,9,14,12,-1,-1
1529304862881115,2,2,5,7,5,-1,0,1
1529304862881115,0,-3,-11,-25,-36,2,-3,1
1529304862895754,0,1,6,10,50,12,2,1
1529304862895754,-2,-2,-4,-7,-39,-15,-7,0
1529304862903733,0,-5,-5,-3,11,6,4,1
1529304862903733,-1,-7,-3,5,-8,5,-2,-3
1529304862918693,2,0,4,6,6,-20,-4,-6
1529304862918693,-2,-1,0,-2,10,18,0,0
1529304862919691,2,2,-2,3,7,-2,1,2
1529304862919691,0,2,4,-2,9,-7,0,0
1529304862932692,-3,0,1,0,-9,4,0,-5
1529304862932692,-5,-2,-4,-5,-40,-1,-11,-13
1529304862940692,-3,-1,-3,-10,-27,5,7,-2
1529304862940692,0,-3,-6,5,26,-2,0,10
1529304862955647,4,1,-1,8,5,-6,2,-1
1529304862955647,2,-1,0,-7,-4,-9,7,9
1529304862963628,-3,-4,-1,8,10,-5,-13,-11
1529304862963628,-4,1,1,-11,-16,16,4,-7
1529304862978533,5,-1,-5,-8,-12,3,-1,0
1529304862978533,-3,0,-3,9,20,-18,-6,5
1529304862979530,-7,-9,-4,-4,-3,-2,10,1
1529304862979530,-3,1,10,9,-8,-22,1,-5
1529304862992495,-2,2,-2,-17,-35,-1,-9,-2
1529304862992495,0,1,4,8,14,12,10,-2
1529304863000474,1,1,2,-9,-24,9,-1,4
1529304863000474,1,-1,-4,-10,-4,13,2,4
1529304863015434,1,-2,-8,-4,10,6,5,4
1529304863015434,0,0,-1,-4,-2,-4,-5,-10
1529304863023413,2,-1,4,3,-6,-17,-9,3
1529304863023413,1,1,-1,2,3,13,8,-3
1529304863038373,2,1,3,8,18,-1,-6,-2
1529304863038373,2,-4,-6,-16,-13,-9,0,17
1529304863039371,-7,2,3,15,35,22,3,-4
1529304863039371,-1,-3,-3,2,6,-7,-7,0
1529304863053333,-3,1,2,6,-3,-8,6,1
1529304863053333,2,-2,-6,-10,-14,-7,-5,-6
1529304863060315,2,3,4,-4,-3,-3,11,0
1529304863060315,0,0,-1,6,-21,-17,-6,8
1529304863075274,-4,-3,-4,0,27,8,-5,-22
1529304863075274,2,0,1,3,14,14,11,2
1529304863083253,3,-1,0,-5,-15,-6,-2,9
1529304863083253,3,2,-2,1,4,7,4,5
1529304863098213,-3,0,4,3,2,-10,0,0
1529304863098213,3,-1,-3,-8,-8,7,-4,-3
1529304863099210,-5,-3,0,8,14,-2,0,-5
1529304863099210,-2,-5,-6,3,36,6,-2,1
1529304863113173,1,-3,-1,-10,-23,-14,-4,4
1529304863113173,-2,1,2,7,13,-10,-22,-20
1529304863120154,-1,-1,-4,-12,-39,5,10,12
1529304863120154,0,0,-6,-8,8,-17,-8,-8
1529304863135114,2,4,1,4,-2,12,2,6
1529304863135114,-4,0,0,0,3,-5,2,-3
1529304863143093,-1,1,3,5,5,2,-2,-1
1529304863143093,-2,-2,-3,-1,-2,4,-4,-8
1529304863158053,1,-3,-7,-25,-20,-6,1,2
1529304863158053,-2,-1,8,11,-16,2,16,19
1529304863159050,-2,-6,-4,7,17,-2,-25,-28
1529304863159050,1,0,-3,-6,-7,-3,3,6
1529304863173013,1,3,7,8,0,1,16,1
1529304863173013,-2,0,-3,-1,17,11,-1,-3
1529304863179995,1,1,0,-17,-25,-11,0,1
1529304863179995,2,-2,-6,0,3,-8,-8,-8
1529304863194955,-2,-4,-1,13,17,6,-9,-8
1529304863194955,-1,-3,-1,1,2,5,9,9
1529304863203930,-1,0,-2,-2,1,-7,6,3
1529304863203930,0,0,-2,-3,-25,-2,3,-4
1529304863219146,-2,1,-1,-5,7,1,-1,11
1529304863219146,0,1,3,-6,-3,6,0,-15
1529304863219146,5,2,0,4,-32,-7,2,10
1529304863219146,-1,0,5,9,34,3,0,3
1529304863234108,-4,-4,-1,-3,-42,-3,-1,-5
1529304863234108,3,1,1,-1,-5,-6,2,11
1529304863241089,0,2,-1,5,22,8,-12,-10
1529304863241089,0,-1,0,-3,-13,-3,0,-1
1529304863255319,-2,1,0,5,3,-4,-6,-4
1529304863255319,0,0,-7,-17,-4,-8,1,8
1529304863263921,3,-2,3,8,22,7,-5,-3
1529304863263921,-3,-3,0,9,22,17,-2,2
1529304863279057,-2,1,-2,-16,-67,-18,-7,-4
1529304863279057,-2,-2,0,16,45,9,8,-4
1529304863279666,1,2,1,-13,7,-5,-9,2
1529304863279666,1,0,7,9,-24,-2,7,4
1529304863293362,-5,-7,-6,10,4,-14,-21,-16
1529304863293362,5,1,5,-9,30,15,-1,-1
1529304863300422,-2,-2,-5,-13,-75,-8,9,6
1529304863300422,-8,-6,-3,-8,4,-4,0,-2
1529304863316052,2,1,3,7,23,8,7,7
1529304863316052,1,2,-4,13,9,-1,3,5
1529304863323689,-1,-4,-6,-1,27,13,-1,-11
1529304863323689,4,2,-5,-23,-30,-7,-6,-2
1529304863338450,3,1,5,0,-10,7,5,3
1529304863338450,2,-3,-6,-10,-64,-18,-10,5
1529304863339186,-5,3,-1,-12,-14,-2,14,-2
1529304863339186,-5,-2,-4,-7,6,3,-1,-15
1529304863352913,0,-3,-6,-4,4,20,8,18
1529304863352913,-3,0,15,43,66,-9,-11,-6
1529304863361148,-2,-4,1,13,16,0,31,10
1529304863361148,8,4,0,-21,-32,6,-2,-1
1529304863376124,-1,0,3,20,53,11,5,-12
1529304863376124,1,-2,-11,-8,-69,-32,-8,0
1529304863384103,-9,-9,-8,2,-7,-1,-18,-12
1529304863384103,-1,-3,-4,3,27,1,7,9
1529304863398331,2,1,-1,0,6,-2,1,-7
1529304863398331,4,6,-4,-11,-21,5,0,1
1529304863406047,3,6,3,-2,25,-4,-3,2
1529304863406047,-8,-2,2,14,-10,-4,7,0
1529304863413322,-4,-3,-2,-7,-21,-8,-14,1
1529304863413322,-4,-4,-4,-10,12,14,2,-8
1529304863420574,8,1,3,10,36,13,9,3
1529304863420574,1,-1,4,2,11,4,-14,11
1529304863436264,3,1,1,-4,-30,-9,0,4
1529304863436264,-2,1,-3,-4,27,8,12,-8
1529304863444455,2,5,0,1,0,-5,-6,-3
1529304863444455,1,1,-2,10,35,21,2,-6
1529304863458331,-1,-3,-5,-2,12,-12,-5,-18
1529304863458331,1,-4,0,-21,-57,-5,2,28
1529304863466440,-4,-1,3,2,10,4,-6,-11
1529304863466440,4,-3,-3,2,-14,-10,3,18
1529304863473710,3,3,-3,-36,-29,1,10,16
1529304863473710,-8,-9,2,34,54,14,-8,-13
1529304863481253,5,10,-4,-15,-31,-21,-18,-12
1529304863481253,2,-7,-1,-3,-28,-17,5,-2
1529304863496112,-6,-3,-3,-7,15,15,3,6
1529304863496112,-17,-6,-6,-21,-42,-15,-9,-31
1529304863503639,-5,-2,8,13,-10,-17,-4,14
1529304863503639,-14,-12,1,-4,-14,-1,-5,-14
1529304863518598,-19,-35,-11,-1,25,11,3,20
1529304863518598,44,54,7,5,8,-3,9,-6
1529304863526573,15,14,5,4,16,4,1,8
1529304863526573,10,14,6,6,10,1,-5,-13
1529304863533305,-4,-5,0,-1,2,-4,3,16
1529304863533305,-22,-28,-5,16,-22,-4,-9,-5
1529304863540271,0,-2,-2,-11,-41,7,0,-3
1529304863540271,-1,3,7,2,14,5,11,13
1529304863555493,-5,-1,-5,17,14,-2,-6,-13
1529304863555493,2,0,0,-17,21,8,10,12
1529304863563895,-1,-1,3,18,35,20,-3,-1
1529304863563895,-6,-9,-7,-22,-31,-18,-6,-4
1529304863578602,0,1,-5,9,12,2,-6,-15
1529304863578602,2,-1,-3,-7,-36,-5,-1,-4
1529304863586455,-4,-6,2,-4,10,9,7,18
1529304863586455,0,3,3,21,21,6,-1,-8
1529304863601455,4,10,-2,-18,-19,-13,-12,-21
1529304863601455,-2,-7,2,-9,-7,-3,14,29
1529304863602662,-13,-14,-2,15,-4,-3,-25,-26
1529304863602662,5,6,-4,-6,-4,6,17,3
1529304863615639,3,6,-1,-3,10,-4,-15,-8
1529304863615639,-5,-5,6,9,28,0,2,2
1529304863623662,4,2,-2,-11,-18,-2,8,11
1529304863623662,-4,-5,-11,-3,22,9,-7,-11
1529304863638655,3,5,17,9,-34,-11,3,8
1529304863638655,-3,-4,-6,-4,12,-7,-10,-5
1529304863646778,4,1,-7,-9,8,3,4,1
1529304863646778,-3,2,6,14,-9,-21,-11,4
1529304863661133,0,2,-2,-9,-8,15,11,0
1529304863661133,1,0,-2,-3,13,1,-15,-11
1529304863661862,-3,-3,-2,-3,-14,-6,-4,-12
1529304863661862,7,2,-6,-2,16,16,9,21
1529304863675642,0,-3,-1,1,-9,-17,12,16
1529304863675642,-5,0,3,2,-17,4,-8,-41
1529304863683642,-5,-4,1,8,23,4,13,1
1529304863683642,-7,-2,-2,-18,8,5,-7,-6
1529304863698651,7,5,3,4,10,1,-8,4
1529304863698651,-3,-4,2,5,-4,8,12,-5
1529304863706799,-6,0,-5,-7,8,-13,-22,-6
1529304863706799,4,-1,6,4,-35,-15,-4,1
1529304863722460,-1,-1,-5,6,-3,12,8,0
1529304863722460,-1,-2,0,-8,-5,-3,-6,17
1529304863722460,2,-2,2,-7,-15,-7,10,2
1529304863722460,3,6,8,30,50,8,-2,-1
1529304863735671,-2,-5,-4,-27,-25,-1,-2,-5
1529304863735671,-3,-3,-10,-13,-11,-14,-4,2
1529304863744085,2,2,10,23,-8,-2,7,10
1529304863744085,-1,4,2,0,33,13,-8,-4
1529304863757900,-2,-2,0,4,17,-5,-7,-3
1529304863757900,1,-1,-3,1,22,31,-4,1
1529304863765938,1,-1,0,15,27,3,1,-14
1529304863765938,-5,-7,-14,-35,-57,-4,1,1
1529304863781627,-1,1,6,20,24,-4,14,-5
1529304863781627,-2,2,5,10,12,-1,5,9
1529304863782638,4,1,-4,-8,1,-5,-6,7
1529304863782638,-1,1,3,8,-11,-3,-1,-2
1529304863794914,-3,-1,-2,-3,-41,-4,-2,-1
1529304863794914,-3,-6,-6,-2,33,10,-2,-4
1529304863804856,4,1,1,2,28,12,5,8
1529304863804856,-2,-6,1,-5,-15,-13,2,-5
1529304863817822,8,7,2,-2,-3,5,1,-2
1529304863817822,-5,-6,-4,-9,-60,-23,-8,1
1529304863826797,-3,-2,-4,-6,-16,1,3,-1
1529304863826797,-6,-6,-1,4,29,11,0,-12
1529304863841016,5,0,-3,-2,5,-4,9,27
1529304863841016,-1,5,0,-3,-31,-3,3,5
1529304863849034,2,0,3,6,-4,1,-1,0
1529304863849034,2,1,0,-8,-13,-7,-2,1
1529304863855822,0,-2,-4,1,10,-12,0,-1
1529304863855822,-2,2,1,3,28,-3,-4,-1
1529304863864444,-4,-2,0,-17,-37,-4,-1,0
1529304863864444,3,2,2,6,1,-5,4,5
1529304863878227,-4,-3,-5,0,37,23,-5,-11
1529304863878227,3,5,11,8,-14,4,7,4
1529304863887240,-3,-4,-6,-8,18,-25,-7,-4
1529304863887240,2,0,0,7,-12,2,3,0
1529304863900681,1,1,2,5,9,3,-1,-5
1529304863900681,1,-4,-5,-7,-11,-19,-4,-3
1529304863909620,2,0,-3,-6,-2,13,5,6
1529304863909620,-1,3,4,-7,-34,-17,-3,-3
1529304863915961,-3,-1,2,-3,-10,-15,-8,-5
1529304863915961,0,1,-3,-3,17,14,5,4
1529304863924579,-4,-2,-5,2,-9,-3,-5,-3
1529304863924579,1,-2,0,4,13,-4,-1,2
1529304863938071,-2,-1,-2,-10,-14,5,-1,-5
1529304863938071,1,-2,1,8,6,2,6,1
1529304863946917,1,-1,-4,0,4,-1,-4,-1
1529304863946917,-5,0,-8,1,5,2,1,-3
1529304863960860,-1,2,4,0,6,-6,-5,0
1529304863960860,1,1,3,5,10,3,2,1
1529304863969887,0,-1,0,-4,-2,5,5,6
1529304863969887,3,2,4,7,14,14,-1,-4
1529304863976243,3,-3,-6,-17,-17,-37,-10,10
1529304863976243,-3,-3,-3,2,6,41,4,-8
1529304863984176,4,5,3,-4,-10,-37,3,3
1529304863984176,-7,-2,3,0,-2,-11,-6,-12
1529304863998148,2,-3,2,25,29,16,7,4
1529304863998148,-3,-2,-4,3,4,-16,1,-6
1529304864007117,-6,-3,-8,-10,-2,5,-2,1
1529304864007117,4,2,6,-5,-14,-19,5,6
1529304864020081,1,6,14,6,-20,-18,-20,-14
1529304864020081,-2,-3,-5,4,35,19,11,1
1529304864029057,-14,-8,-1,-1,-17,-39,-12,-15
1529304864029057,-1,-4,-7,-6,3,-17,1,2
1529304864035041,0,2,-4,1,6,15,8,2
1529304864035041,5,-2,4,2,-15,-21,-1,4
1529304864044017,-1,-3,-6,-6,0,16,-1,2
1529304864044017,0,2,4,1,2,9,4,7
1529304864057980,-1,-6,-12,-5,-5,-10,-4,-4
1529304864057980,3,8,9,-1,0,28,-5,3
1529304864066974,0,-1,-4,-6,-5,5,0,-5
1529304864066974,0,-1,-9,-7,-12,-12,-6,0
1529304864079922,-9,-4,2,10,20,2,8,-2
1529304864079922,0,3,5,-5,-23,-29,0,0
1529304864088899,2,2,3,8,14,30,1,1
1529304864088899,5,-4,-9,-7,0,-1,-11,-4
1529304864094882,-6,-4,-9,-15,-8,-4,-3,-6
1529304864094882,-1,2,2,3,-2,1,7,5
1529304864103858,5,5,5,-1,6,14,-9,3
1529304864103858,-3,-4,-5,-7,1,-5,3,-1
1529304864117827,0,-1,5,7,-23,-7,7,1
1529304864117827,-4,-6,-7,-4,3,12,-11,-4
1529304864126796,3,2,4,7,3,2,8,-3
1529304864126796,1,3,-1,1,6,22,-5,-6
1529304864140775,-1,1,-2,-7,0,13,14,1
1529304864140775,3,-5,-4,3,2,-34,-1,9
1529304864149283,0,-4,-2,-7,-8,-2,-6,-2
1529304864149283,-7,-1,5,9,-1,5,-9,-4
1529304864155240,0,2,-2,-1,5,3,-3,-3
1529304864155240,0,0,-2,-2,0,30,7,0
1529304864165137,-4,-4,-9,0,2,-34,3,4
1529304864165137,-7,0,6,-2,-6,-10,-7,4
1529304864178233,1,-3,-4,3,15,7,-5,1
1529304864178233,3,1,3,-12,-18,-40,-10,-7
1529304864186500,-3,0,3,8,-1,2,-10,-3
1529304864186500,-1,4,-3,-1,-1,7,22,2
1529304864200462,0,-1,0,-3,-8,-4,-11,-2
1529304864200462,3,0,-5,-3,1,1,-2,4
1529304864209439,-2,-5,-5,-3,-4,15,5,-3
1529304864209439,2,1,10,12,10,-3,-7,-1
1529304864216082,-3,2,4,2,-7,9,3,0
1529304864216082,-2,-3,-4,-2,4,2,4,1
1529304864224793,5,1,0,0,6,18,17,5
1529304864224793,5,0,-3,-9,-12,9,-7,4
1529304864237981,7,4,3,5,-1,-7,-2,-1
1529304864237981,-10,-1,-3,-2,-1,1,-11,-7
1529304864246787,-8,-2,2,3,7,5,1,0
1529304864246787,-1,-6,-2,-1,6,8,10,-1
1529304864260754,7,-1,-3,-6,-7,-12,0,0
1529304864260754,-6,-2,-2,-5,8,1,-5,-2
1529304864269351,-2,1,9,6,-7,-7,-5,-4
1529304864269351,6,0,-1,0,-2,4,4,3
1529304864275769,8,4,-2,-3,-1,-10,-4,-3
