timestamp,emg1,emg2,emg3,emg4,emg5,emg6,emg7,emg8
1529304866712387,-2,-3,-11,5,1,-2,1,-1
1529304866712387,-3,-6,-8,-12,-10,-3,-1,0
1529304866729341,-2,-2,7,-5,-11,0,-2,0
1529304866729341,3,1,4,-4,-12,1,-2,-1
1529304866752284,1,15,8,4,12,-1,-2,-1
1529304866752284,0,-2,1,0,6,-1,-4,-1
1529304866754275,0,-2,-20,2,-4,1,0,1
1529304866754275,-4,-10,2,0,-3,-4,-2,-3
1529304866755274,-5,-10,-26,-14,2,-4,-1,-4
1529304866755274,-4,-12,-11,-9,-9,-1,0,-3
1529304866767240,-1,-3,5,-7,-5,-3,-2,-2
1529304866767240,-1,11,2,15,15,5,2,1
1529304866773256,2,9,52,14,10,-2,1,3
1529304866773256,4,20,4,3,-4,0,1,1
1529304866789182,2,1,-3,-3,-5,-2,-3,-1
1529304866789182,0,-1,-6,-7,-11,-2,0,1
1529304866795167,-6,-18,-28,-22,-13,-4,-3,-5
1529304866795167,-2,-5,6,-1,-2,-5,-1,-1
1529304866804164,-1,1,-8,-7,1,2,2,-1
1529304866804164,-1,0,9,9,-4,-3,-3,-3
1529304866810127,0,-4,-11,-1,2,-2,-2,-1
1529304866810127,0,0,10,-9,-19,-6,-2,-3
1529304866835059,1,2,0,2,4,-1,-1,0
1529304866835059,2,1,-8,0,17,2,0,1
1529304866836056,-1,-3,8,7,-9,-8,0,0
1529304866836056,1,5,-9,-7,-3,3,-1,1
1529304866848058,-1,3,3,14,25,11,1,0
1529304866848058,0,-2,11,-6,-4,-3,0,-2
1529304866855042,-1,0,3,2,3,-3,-3,-1
1529304866855042,2,-5,-6,0,-6,1,0,1
1529304866863983,0,-8,-24,-10,0,-2,-2,0
1529304866863983,-2,-4,3,0,-13,-9,-2,-3
1529304866869967,-1,-8,-6,-1,4,7,-1,-1
1529304866869967,0,7,7,15,22,0,-2,1
1529304866886919,7,24,30,5,-3,13,4,4
1529304866886919,0,-4,-1,5,13,4,6,5
1529304866892903,-4,-6,-16,-20,-25,-18,-10,-11
1529304866892903,-1,-4,-2,-3,2,4,2,-1
1529304866907866,-2,1,-4,-11,-15,-6,-2,-2
1529304866907866,-1,-2,3,15,22,3,-2,-4
1529304866914847,0,3,10,2,-1,-2,4,1
1529304866914847,-5,-10,-21,-13,-11,-4,-2,-2
1529304866924835,-1,-2,5,10,-2,-10,-6,-1
1529304866924835,2,1,-8,-9,-8,0,-2,4
1529304866931017,-1,0,-13,4,3,-2,0,-5
1529304866931017,-1,2,9,0,8,2,2,2
1529304866946762,-1,0,11,6,15,7,2,-1
1529304866946762,0,3,12,9,5,-4,3,4
1529304866952785,0,-4,-9,-5,14,25,4,5
1529304866952785,-2,-1,7,9,7,49,1,-1
1529304866967704,-2,-3,-9,4,22,-14,-2,0
1529304866967704,-2,-2,-4,-3,1,-4,-1,-3
1529304866975686,-3,-8,1,-5,-36,0,0,-1
1529304866975686,1,14,10,16,24,2,-6,-6
1529304866984692,0,-6,-4,-8,-25,-16,-1,-4
1529304866984692,0,1,1,4,13,-15,-4,-1
1529304866990645,2,-3,0,-9,-1,10,7,5
1529304866990645,-3,-4,-9,-2,2,-1,6,4
1529304867006602,-1,5,5,3,-4,11,1,-1
1529304867006602,-1,-6,-9,-13,-3,-5,-4,-6
1529304867012586,7,6,11,20,7,-15,0,5
1529304867012586,-6,-11,-12,-8,-2,7,0,0
1529304867027546,-5,-4,1,-8,-33,-15,2,-1
1529304867027546,1,8,5,-5,-3,-31,2,2
1529304867035525,1,3,3,6,7,-21,-13,-3
1529304867035525,1,2,5,2,-1,6,6,1
1529304867044501,-8,-3,-3,-1,19,15,-1,-1
1529304867044501,-3,-6,-7,-6,-20,6,-1,-1
1529304867050485,-2,0,-3,-10,-5,11,0,2
1529304867050485,2,-3,-4,0,-4,-31,-5,-2
1529304867066440,0,-2,-1,-1,13,19,-2,-3
1529304867066440,-2,3,7,2,-14,10,3,0
1529304867072426,1,1,0,4,16,26,4,6
1529304867072426,-4,-5,-8,-13,-25,-22,-5,-10
1529304867087384,-1,-3,-6,-2,-1,11,-1,1
1529304867087384,-1,-1,-4,-4,-11,4,-1,1
1529304867095364,-2,0,2,15,19,-4,-1,1
1529304867095364,2,4,6,-1,0,-13,-5,3
1529304867104340,0,0,-4,-16,-65,-19,-5,-4
1529304867104340,-2,-6,-9,2,12,15,0,-2
1529304867110335,1,2,10,2,5,2,4,1
1529304867110335,2,-1,1,0,-1,13,0,-2
1529304867127311,-2,1,0,7,21,-10,-2,-4
1529304867127311,5,-5,-8,-2,23,35,10,8
1529304867141258,-1,3,3,-9,-31,-15,-9,-10
1529304867141258,-6,-2,5,5,27,22,6,-1
1529304867148224,-2,-2,-2,1,7,-8,-4,0
1529304867148224,-1,-3,-1,1,5,7,2,-3
1529304867155205,2,3,1,10,42,8,5,0
1529304867155205,0,0,-9,-15,-31,-35,-5,2
1529304867164180,-6,-4,-7,1,-2,-2,1,2
1529304867164180,-3,-2,-2,-7,-10,9,-1,-4
1529304867170163,2,0,1,3,9,4,0,1
1529304867170163,1,-1,-5,-3,-21,-17,-2,-4
1529304867187127,-1,1,5,5,7,17,-2,-1
1529304867187127,-1,2,6,2,-5,-3,2,5
1529304867193137,0,-1,-5,0,-11,-16,-4,-1
1529304867193137,-2,3,4,3,4,10,2,-8
1529304867208101,4,0,-4,0,6,-1,-2,3
1529304867208101,-2,-1,-1,1,6,18,-2,-12
1529304867215043,-4,1,3,-4,-15,-24,-3,2
1529304867215043,3,0,0,3,35,13,6,9
1529304867224058,-1,1,4,-2,-13,-11,1,0
1529304867224058,3,1,1,2,-7,28,3,3
1529304867230005,1,-3,-4,-7,-20,-26,-13,-6
1529304867230005,18,1,-6,0,-1,-19,-1,4
1529304867246957,-11,-5,-2,0,29,28,1,-7
1529304867246957,-16,-5,-2,-8,-29,-34,-7,-2
1529304867252943,-11,-3,5,7,7,-1,3,-1
1529304867252943,-2,-3,-6,-9,-12,-11,-8,1
1529304867267902,8,4,0,3,32,0,0,2
1529304867267902,11,4,2,-11,-38,-24,-7,-1
1529304867274884,-1,-5,-10,-11,9,22,3,2
1529304867274884,-4,-1,8,15,-5,-3,-6,-9
1529304867284865,1,0,-1,-3,-18,-18,2,1
1529304867284865,-5,-3,-4,-2,11,-3,-3,-5
1529304867289844,5,4,1,5,-2,10,12,8
1529304867289844,-2,-3,-5,-11,-19,-9,-10,-1
1529304867306797,-3,-1,-5,-1,-6,-5,-2,-4
1529304867306797,2,1,1,10,7,-16,-3,2
1529304867312783,1,1,1,-5,2,12,2,4
1529304867312783,-6,-1,-2,5,0,-12,-7,-2
1529304867327785,-2,-2,-5,-7,-12,-10,-2,-12
1529304867327785,0,-2,-2,-4,-7,-12,-5,0
1529304867335722,-1,0,4,2,11,16,1,2
1529304867335722,-2,4,1,-9,9,22,11,4
1529304867344714,4,0,3,22,11,-16,0,8
1529304867344714,-2,0,-4,-9,-29,-16,-17,-16
1529304867350681,7,1,-1,0,10,23,11,5
1529304867350681,-1,-5,-6,6,28,12,8,2
1529304867366638,-5,-4,0,-11,-9,-3,-12,-2
1529304867366638,-7,-2,6,4,21,7,8,0
1529304867372625,-6,-3,-5,5,-2,-15,-4,-6
1529304867372625,9,3,5,-12,-21,1,1,0
1529304867387620,2,0,-4,-1,-12,0,2,0
1529304867387620,-2,3,-1,1,25,4,5,4
1529304867395816,-2,-2,-4,-4,-4,-19,-2,-1
1529304867395816,-7,-4,-5,5,3,5,-12,-12
1529304867404536,1,1,7,-2,-4,-3,-2,2
1529304867404536,5,-1,0,0,4,7,10,-2
1529304867417867,0,-3,-5,-9,-12,4,5,0
1529304867417867,0,-2,1,5,24,-11,-1,2
1529304867426794,0,0,-1,-3,-24,-15,-1,-1
1529304867426794,1,2,9,11,32,5,-1,2
1529304867432785,-1,1,5,12,11,-1,-1,-2
1529304867432785,-4,-2,-9,-21,-61,-2,-1,0
1529304867449732,2,1,1,4,19,15,-6,-3
1529304867449732,3,-1,-3,5,4,-3,2,4
1529304867456005,-7,-5,-8,-18,-28,-7,-4,-6
1529304867456005,-1,1,6,14,22,-15,0,1
1529304867465017,2,-4,-3,-13,-24,21,12,0
1529304867465017,2,1,-1,-2,-16,-12,-8,-3
1529304867477742,2,1,3,7,22,17,1,-4
1529304867477742,4,1,-2,-5,0,-28,2,9
1529304867486920,-2,-2,-3,7,-8,23,9,-1
1529304867486920,-3,-2,-6,-2,-11,-13,6,7
1529304867492986,-2,-3,-5,-8,-17,-7,-21,-13
1529304867492986,1,7,6,10,45,13,6,6
1529304867508666,-2,-4,-9,-3,-2,-8,-5,-3
1529304867508666,-2,1,7,-6,-13,1,-1,0
1529304867515722,0,2,10,7,15,-3,-1,4
1529304867515722,-3,-2,0,-1,31,30,-1,-9
1529304867524375,1,-2,-5,1,-55,-9,3,2
1529304867524375,-2,-2,-7,1,18,-1,-5,-4
1529304867538351,3,0,-5,-7,-28,-10,-3,1
1529304867538351,-2,1,5,8,21,-15,-2,-3
1529304867547663,-4,2,4,-4,29,-3,3,-1
1529304867547663,-2,-5,0,-5,-22,7,-2,-2
1529304867561994,2,1,4,17,39,9,2,1
1529304867561994,1,-1,-1,-7,-45,0,-2,-1
1529304867567911,3,2,-4,-2,30,-29,0,7
1529304867567911,3,3,4,4,1,7,-2,-4
1529304867574913,-2,-2,-3,-1,24,-3,3,5
1529304867574913,2,2,3,-8,-39,-3,1,-2
1529304867584899,1,1,0,-9,9,-16,-14,-1
1529304867584899,-3,-1,-1,4,10,6,1,-2
1529304867598077,-1,1,2,4,-24,-11,0,4
1529304867598077,-4,-5,-9,2,8,17,-5,-4
1529304867606848,3,3,6,3,-8,18,11,0
1529304867606848,2,-4,-11,-8,6,-6,-7,3
1529304867613048,0,1,3,10,4,-2,-3,-4
1529304867613048,-1,1,-5,-13,-47,-7,-3,0
1529304867628055,-3,0,2,17,41,11,-1,-4
1529304867628055,-5,1,7,7,-14,-19,-2,0
1529304867635311,-1,-2,-5,-7,6,3,2,2
1529304867635311,4,-1,-3,-4,0,7,4,2
1529304867651105,0,1,3,2,-34,9,-1,3
1529304867651105,4,4,6,5,34,16,3,6
1529304867658240,0,0,-5,-18,-43,1,-1,-7
1529304867658240,-5,-3,-5,-4,7,-12,6,2
1529304867673935,-3,0,-1,4,21,6,4,-10
1529304867673935,0,-4,0,4,42,16,2,9
1529304867675020,1,2,2,-3,-24,-7,-6,0
1529304867675020,-2,-4,-1,16,38,11,2,3
1529304867688138,5,3,0,-14,-24,0,6,13
1529304867688138,-2,2,-1,2,-3,-7,-5,-8
1529304867695119,-1,-1,-2,-10,8,3,1,-2
1529304867695119,-3,-4,-7,-3,-8,0,-1,-2
1529304867710862,-2,0,1,-14,20,-9,-8,-5
1529304867710862,-1,-2,3,22,-7,19,3,5
1529304867717817,0,0,-4,-7,-1,12,0,-9
1529304867717817,0,0,1,6,-6,13,4,-7
1529304867733777,-2,-4,-1,0,14,7,4,14
1529304867733777,3,3,0,-29,-34,11,3,1
1529304867734773,-3,-5,-3,20,7,5,2,0
1529304867734773,3,4,12,-7,-38,-10,0,1
1529304867755769,4,3,6,30,42,17,-1,-10
1529304867755769,-1,-7,-15,-22,-32,-14,5,6
1529304867756752,-1,-4,-2,5,33,6,1,2
1529304867756752,1,4,9,-1,-15,-2,-1,2
1529304867770732,-5,-6,-7,-12,-18,-28,-12,-7
1529304867770732,-5,-3,-5,5,9,-34,-10,-11
1529304867777713,3,-1,-4,-6,-9,3,4,4
1529304867777713,0,0,-2,-2,11,21,2,-1
1529304867793669,8,3,3,-8,-27,-7,-1,4
1529304867793669,-1,1,9,26,9,15,6,-1
1529304867794668,-13,-5,-7,-16,-28,-23,-4,-5
1529304867794668,-6,-8,-8,-2,40,-5,-2,2
1529304867807632,0,4,2,-9,-39,2,1,-1
1529304867807632,7,1,-10,-4,19,-2,-4,-1
1529304867815563,3,4,3,3,9,-8,-3,2
1529304867815563,-2,-3,0,-6,-18,-5,2,2
1529304867830569,3,2,-7,-18,-54,-31,-5,-2
1529304867830569,0,-1,2,15,50,24,9,5
1529304867837552,-4,-6,-2,3,15,3,-1,0
1529304867837552,3,-3,-16,-13,-10,-20,-10,-4
1529304867853509,-13,-9,5,17,18,10,-2,2
1529304867853509,3,4,3,-16,-27,20,14,21
1529304867854500,1,5,9,0,-7,7,-4,-5
1529304867854500,-4,-7,-10,0,-10,-11,2,1
1529304867867460,7,3,-2,1,14,4,-4,-1
1529304867867460,-5,-4,-2,-8,-6,-8,-11,-7
1529304867875449,0,0,5,-10,-13,-5,2,1
1529304867875449,0,-7,-2,11,3,5,11,18
1529304867890401,-55,-47,-13,-6,-7,-3,-21,-63
1529304867890401,59,61,4,-6,-35,-28,4,13
1529304867897390,8,11,5,4,0,-7,-4,20
1529304867897390,10,17,10,-5,-6,1,-3,2
1529304867913353,4,-8,-5,12,29,9,5,12
1529304867913353,-19,-25,2,-2,-11,-9,-13,-15
1529304867914294,-2,-1,-1,3,5,11,-1,-9
1529304867914294,-7,1,5,7,5,-4,5,8
1529304867928308,10,3,-5,-9,-2,-8,-16,-3
1529304867928308,-12,-9,2,7,-10,-2,-6,-13
1529304867935237,5,1,-12,-5,-27,-9,-2,3
1529304867935237,-12,-6,1,-11,-35,-14,-7,-14
1529304867950198,13,16,4,8,15,12,12,8
1529304867950198,-7,-11,-13,-33,-37,-12,-2,9
1529304867958175,-7,-9,-2,1,12,10,-12,-22
1529304867958175,0,-2,-2,12,14,15,8,-4
1529304867973135,8,14,9,6,3,-11,-4,7
1529304867973135,-3,-9,1,-11,22,-5,2,4
1529304867974133,-11,-7,-7,2,-65,-26,-3,-13
1529304867974133,29,9,4,8,23,23,9,11
1529304867988096,-2,4,-14,-21,-3,-22,3,10
1529304867988096,-30,-16,2,9,28,14,-1,-15
1529304867995077,1,9,6,9,18,6,7,4
1529304867995077,-4,-3,-2,-6,6,-5,-14,-18
1529304868010055,5,0,-1,19,11,5,-2,2
1529304868010055,2,5,6,-5,-1,-7,12,6
1529304868018015,3,-5,-5,-12,-7,2,7,-3
1529304868018015,-3,3,6,15,7,-13,-8,1
1529304868034195,7,-1,-4,0,23,27,7,13
1529304868034195,-6,-4,2,5,-1,-3,-10,-15
1529304868034991,-5,-4,4,6,29,4,-2,20
1529304868034991,-13,-6,-2,-9,6,-1,-2,-34
1529304868048481,-5,0,-3,4,9,1,-4,-12
1529304868048481,15,8,-8,-9,-28,-9,14,22
1529304868055466,-5,-15,-3,4,32,-3,3,-5
1529304868055466,1,11,1,0,7,11,-22,-19
1529304868070802,3,2,7,3,-16,-7,12,10
1529304868070802,4,9,1,3,39,24,-16,-20
1529304868078190,4,4,8,3,-9,7,13,19
1529304868078190,-4,-8,-10,-6,-32,-25,-9,5
1529304868094020,3,1,5,-2,14,28,14,15
1529304868094020,3,1,0,28,9,-26,-23,-14
1529304868095022,-1,-3,-6,-21,-15,12,3,1
1529304868095022,2,-6,-2,-1,-33,-17,-2,10
1529304868107757,-7,4,-3,-9,-8,44,4,-5
1529304868107757,-9,-4,5,13,-18,-28,1,-2
1529304868115731,-5,-2,-13,-33,-24,-16,-17,-15
1529304868115731,-2,-3,5,14,11,3,9,12
1529304868130897,-3,-5,1,7,2,-6,-3,-6
1529304868130897,7,-2,-7,-21,-8,6,8,6
1529304868138636,0,1,0,8,7,1,-2,-1
1529304868138636,-8,-8,-1,8,6,-13,7,3
1529304868153844,-1,-1,5,-9,-14,-10,-9,1
1529304868153844,-7,-4,-4,4,31,37,9,6
1529304868154837,2,6,12,18,13,-35,-20,-17
1529304868154837,-5,-9,-10,-16,-21,9,3,-2
1529304868168626,0,4,3,-3,-13,-38,-8,1
1529304868168626,-1,0,1,-3,-12,33,5,-4
1529304868176094,-7,-7,-5,5,28,10,5,12
1529304868176094,4,3,-2,5,16,-9,-1,-6
1529304868191155,-2,-6,-10,-18,5,10,7,2
1529304868191155,-2,-2,2,-2,-10,-26,-4,-1
1529304868199143,0,3,-5,1,-3,-14,-1,-13
1529304868199143,-3,4,6,1,-17,20,8,4
1529304868214304,10,7,-6,-4,22,-23,-5,-2
1529304868214304,1,0,6,-1,-19,-11,6,17
1529304868214304,5,0,5,8,12,14,-5,-2
1529304868214304,8,4,2,-9,-12,12,31,8
1529304868228408,-12,-2,5,3,-8,-10,1,-10
1529304868228408,-6,-2,-4,-2,-7,-10,-7,0
1529304868235387,1,1,1,-6,-48,-2,3,3
1529304868235387,4,0,-1,4,24,9,-2,5
1529304868250118,-2,-3,-4,1,29,20,0,8
1529304868250118,2,-2,-7,-3,1,17,11,-4
1529304868258641,-1,-1,2,22,16,-13,-9,-6
1529304868258641,0,2,-6,-41,-19,5,-11,0
1529304868273101,-1,-3,-1,-1,-32,-7,0,-1
1529304868273101,5,1,2,3,13,-8,-7,0
1529304868274104,1,2,2,2,4,16,13,7
1529304868274104,-12,-3,-1,3,18,3,3,-8
1529304868288467,0,-1,6,0,-6,-6,-4,2
1529304868288467,-3,-6,-8,-7,-12,-24,-13,-16
1529304868295450,7,5,1,-13,-11,10,4,5
1529304868295450,0,1,-7,12,23,54,-1,4
1529304868310997,-1,-1,-2,8,-6,-26,-3,-5
1529304868310997,-1,-2,2,8,0,8,5,6
1529304868319006,-3,-3,-9,-13,5,-19,-3,-2
1529304868319006,-2,2,0,-2,0,-22,-9,-1
1529304868333608,3,1,-3,0,-2,21,10,5
1529304868333608,-3,0,1,9,43,23,-9,-7
1529304868334617,-2,-3,-3,-6,-30,2,0,-3
1529304868334617,2,-2,0,-14,0,-9,-5,-1
1529304868348735,-1,0,1,-3,-7,-7,-1,-4
1529304868348735,-3,0,3,6,-4,0,3,-1
1529304868355550,-2,-1,-3,-8,11,-2,0,-2
1529304868355550,1,2,5,16,10,-16,-3,2
1529304868370566,1,-3,-4,-7,-10,-26,-5,-1
1529304868370566,-3,1,-4,-11,-22,-12,-3,-2
1529304868378496,1,-1,1,11,46,23,2,4
1529304868378496,-2,-2,-1,-1,-11,12,-4,-3
1529304868393385,0,1,4,1,-9,-17,1,0
1529304868393385,-1,-3,-7,-3,-10,-15,-4,-1
1529304868401361,-2,2,0,-3,0,15,13,8
1529304868401361,-3,0,4,5,6,-17,-9,-20
1529304868408339,-2,-2,1,4,6,22,24,15
1529304868408339,-4,-1,-3,-14,-23,2,-9,-10
1529304868415323,0,1,0,9,-5,0,4,1
1529304868415323,-1,-1,-1,-2,4,-28,-12,-4
1529304868430625,-3,-4,-5,-5,-5,18,-4,-3
1529304868430625,-2,-3,-3,-4,-2,-8,5,4
1529304868438681,3,0,5,3,3,8,-3,-1
1529304868438681,1,1,-5,1,-12,-17,0,0
1529304868453615,9,6,14,5,17,11,-4,-2
1529304868453615,-6,-5,-8,-9,-15,-12,-2,2
1529304868461849,-9,-4,-3,-3,-9,-1,-4,-7
1529304868461849,2,-3,-1,4,8,7,-1,6
1529304868467859,0,6,10,7,0,-1,-1,0
1529304868467859,1,-2,-4,7,12,15,-3,-5
1529304868476007,1,0,2,-12,-4,-26,-5,-1
1529304868476007,0,0,13,8,-7,-4,2,5
1529304868491229,-5,-4,-6,-1,7,7,-8,-5
1529304868491229,7,0,-4,1,8,8,3,3
1529304868498403,-5,0,0,-4,-23,-37,-2,-3
1529304868498403,-1,0,-4,1,19,29,7,2
1529304868513739,-5,-1,-7,-14,-25,-57,-9,-6
1529304868513739,-4,0,4,6,2,9,14,1
1529304868521943,-3,-3,-6,0,4,-2,-11,0
1529304868521943,6,8,9,2,-4,0,-5,-2
1529304868527475,0,-2,-4,1,-2,22,7,0
1529304868527475,1,-2,-3,-5,6,-3,3,5
1529304868535701,5,2,-5,1,-3,9,6,2
1529304868535701,-4,-1,3,-3,-1,-5,-9,0
1529304868550414,2,-3,1,5,8,9,-1,0
1529304868550414,-2,1,4,-4,-14,-42,-14,-4
1529304868558710,-1,-4,-7,-2,7,13,2,-1
1529304868558710,-5,-5,-3,5,12,11,16,5
1529304868572355,-3,-1,-8,-8,-10,-14,-14,-4
1529304868572355,11,3,7,0,0,16,4,4
1529304868581333,1,4,4,1,-9,-7,-11,-5
1529304868581333,0,-1,-5,-1,7,46,5,-1
1529304868596765,-3,0,-1,-2,2,28,20,5
1529304868596765,-2,-3,-1,1,4,23,3,2
1529304868596765,0,-2,-10,-6,-1,5,-5,-3
1529304868596765,0,-1,-2,3,-7,-30,-8,-2
1529304868611116,7,5,7,3,3,-15,-7,1
1529304868611116,3,-2,-4,2,3,9,1,-1
1529304868618809,-8,-4,2,-4,5,-2,8,-2
1529304868618809,-3,-1,-4,0,-9,-7,0,0
1529304868632724,-3,-1,-4,-1,3,2,-3,-5
1529304868632724,-2,1,-4,-3,-8,-13,-9,-3
1529304868641730,14,0,5,1,5,-2,-5,3
