timestamp,emg1,emg2,emg3,emg4,emg5,emg6,emg7,emg8
1529297247941532,-5,-11,-3,1,0,-2,1,-1
1529297247941532,2,4,2,0,-1,1,0,1
1529297247950508,3,1,4,4,1,1,2,1
1529297247950508,1,4,-5,1,-1,-2,-2,-1
1529297247958487,-2,-13,-15,-9,-2,-2,-1,-2
1529297247958487,-3,-6,1,-12,6,0,-1,-1
1529297247971453,1,13,26,3,-1,-1,-1,0
1529297247971453,-2,-12,-20,13,-4,1,-3,-2
1529297247979432,4,1,19,6,10,-1,-3,-1
1529297247979432,-1,-5,-24,-20,-29,-3,-1,-1
1529297247994393,1,6,7,17,8,3,2,1
1529297247994393,-5,-10,-15,-18,-7,-2,1,0
1529297248009351,-4,13,10,6,0,0,-1,0
1529297248009351,7,-1,16,3,-1,1,-2,1
1529297248016332,4,5,-20,-20,1,-1,-2,2
1529297248016332,1,4,8,-7,7,1,-1,-2
1529297248031293,-8,-9,28,7,-3,-2,0,0
1529297248031293,-2,-7,-3,-18,4,2,-2,-1
1529297248046252,4,-2,-7,-11,-28,-8,-2,1
1529297248046252,0,11,-9,4,14,2,0,-2
1529297248055244,-2,8,2,7,-4,1,-1,-2
1529297248055244,7,-2,1,5,22,5,-1,0
1529297248069191,3,24,25,-5,-26,-4,1,-2
1529297248069191,-8,-17,1,-4,-6,-4,-1,-1
1529297248077189,-13,-15,-18,0,5,-1,-2,-7
1529297248077189,4,-16,-49,-5,2,3,1,2
1529297248091178,-2,-11,19,0,-4,-2,-3,-3
1529297248091178,-13,-9,14,-4,2,-3,-2,-1
1529297248107135,-3,-10,-33,24,18,5,-1,-6
1529297248107135,9,-1,16,13,-15,-2,0,0
1529297248122096,3,35,-20,-34,16,6,3,2
1529297248122096,-12,-21,-10,9,-3,-5,-2,-5
1529297248137055,-20,-38,-23,-28,-2,-4,-3,-7
1529297248137055,6,7,-12,2,-2,-2,2,4
1529297248144037,-5,-24,-14,2,-7,-1,0,3
1529297248144037,14,43,45,1,14,7,1,3
1529297248158997,2,20,15,24,-4,1,1,1
1529297248158997,3,-11,-12,-4,-2,0,-1,0
1529297248166975,1,3,0,-17,-5,-3,-3,-5
1529297248166975,-8,-15,-17,4,-3,-2,0,-3
1529297248181935,-9,-19,-10,1,3,-3,-4,-4
1529297248181935,-5,0,26,-5,-12,-2,-4,-5
1529297248196910,9,7,3,17,12,12,3,8
1529297248196910,-6,-4,21,-3,-14,-16,-2,0
1529297248203877,3,-4,-8,-1,-2,4,0,-1
1529297248203877,-3,-9,-28,-24,0,-3,-3,-5
1529297248211857,-3,11,9,18,-7,-3,-3,-2
1529297248211857,-5,-6,-16,-21,1,1,-2,-2
1529297248218843,5,3,-1,24,-2,-3,1,2
1529297248218843,6,18,-2,-23,2,3,2,5
1529297248241775,-3,23,53,0,-9,-5,-3,-6
1529297248241775,12,0,4,11,0,1,-2,2
1529297248256735,0,3,-27,-14,3,-6,-3,-2
1529297248256735,-1,2,-11,11,9,8,-3,-3
1529297248263716,3,5,26,-2,-4,-4,0,2
1529297248263716,-6,-11,-16,29,15,-5,-1,1
1529297248278676,6,-10,0,-18,-10,2,1,-1
1529297248278676,-9,11,0,-6,0,-5,-3,-8
1529297248286655,-3,-9,-18,5,-4,10,-2,0
1529297248286655,6,14,28,16,6,2,0,-1
1529297248294634,6,-4,14,7,2,-5,-2,6
1529297248294634,-17,-31,-20,-18,-8,-13,-2,2
1529297248309594,-2,-7,-17,-7,-1,9,5,2
1529297248309594,26,35,14,19,6,14,2,5
1529297248316575,-8,9,35,-3,-1,-4,1,0
1529297248316575,1,0,-11,5,2,4,-4,-4
1529297248331536,4,-19,-12,-31,-12,-14,-4,0
1529297248331536,-7,13,28,37,8,3,3,4
1529297248339514,-6,-9,-4,-18,1,1,0,-1
1529297248339514,16,27,-7,3,-13,-7,3,7
1529297248354474,-2,-5,0,4,9,9,-3,-3
1529297248354474,-11,-14,-1,-4,-5,-2,-2,-6
1529297248369435,8,24,13,-53,-25,-13,-4,0
1529297248369435,-7,-33,-9,-8,-6,-4,1,-1
1529297248384394,7,38,30,34,8,4,2,4
1529297248384394,1,-2,-12,21,6,8,0,0
1529297248399354,5,-6,1,13,10,-4,0,1
1529297248399354,-7,7,3,-16,-2,-1,-1,1
1529297248406336,10,16,-21,-66,-15,-19,-2,0
1529297248406336,5,2,19,28,-1,10,-1,-3
1529297248421296,-8,-9,-18,-26,-20,-3,-2,-6
1529297248421296,-6,-20,-51,-70,-6,-2,1,0
1529297248436256,4,29,38,6,-3,-9,-7,-2
1529297248436256,0,-1,9,9,1,4,1,-1
1529297248444234,4,-13,1,7,7,-5,-1,2
1529297248444234,-5,-1,13,14,-14,-10,1,0
1529297248461189,-3,-19,-36,-95,2,25,0,-3
1529297248461189,4,15,11,33,3,1,-3,-3
1529297248467173,-12,-1,18,68,29,-3,1,-7
1529297248467173,-3,-10,-25,6,15,10,2,-3
1529297248482150,-10,-24,-20,-34,-13,7,-3,-3
1529297248482150,3,6,15,11,25,-4,-11,0
1529297248489117,-3,-5,4,2,-6,-1,9,1
1529297248489117,-6,-3,-17,-12,-22,-4,5,-2
1529297248497092,3,-8,-2,15,-8,-15,-8,-2
1529297248497092,9,19,11,8,28,-26,-7,5
1529297248512053,-4,-4,-10,-2,16,58,6,5
1529297248512053,-30,-12,2,-6,-17,51,9,-6
1529297248519034,21,-2,-21,8,-33,-64,-4,9
1529297248519034,-10,12,11,-19,-8,-5,22,-9
1529297248534034,39,-6,-9,-1,-10,68,7,0
1529297248534034,-30,-16,-6,-18,-32,-68,-13,-18
1529297248548957,-20,16,17,15,-1,-68,-3,12
1529297248548957,9,1,-7,-1,12,-1,-4,-4
1529297248556933,30,7,-2,5,25,61,10,26
1529297248556933,-1,2,9,1,25,3,4,-11
1529297248571211,-23,-6,-9,-6,-14,21,19,-8
1529297248571211,14,3,4,-8,-27,-70,-26,-12
1529297248579225,-31,3,2,6,-1,-25,2,4
1529297248579225,-2,-9,-7,-7,-56,21,-8,-39
1529297248594151,-41,-20,-12,-7,-9,-13,-29,-47
1529297248594151,27,10,15,13,47,44,14,44
1529297248609146,-39,26,12,-6,-20,19,-13,-49
1529297248609146,13,7,-3,1,-34,-41,-14,26
1529297248617228,7,-18,-18,-1,10,6,5,7
1529297248617228,-33,-47,-15,-27,-29,-54,-7,-13
1529297248632051,17,61,61,30,34,-15,5,1
1529297248632051,20,35,-5,-17,-26,50,0,3
1529297248639032,-5,2,4,1,15,-31,-7,-19
1529297248639032,39,3,-11,2,-6,37,17,58
1529297248653995,14,13,-1,6,-3,2,-2,7
1529297248653995,21,1,5,0,3,3,-4,-12
1529297248668997,50,-13,-14,-7,-1,12,16,26
1529297248668997,-3,1,-3,5,9,3,4,-2
1529297248676975,-24,-11,-9,-8,-14,8,14,6
1529297248676975,23,8,9,14,43,30,-19,6
1529297248691968,-8,9,-5,-6,-25,-25,-10,-14
1529297248691968,-5,-12,-12,0,9,13,5,4
1529297248698916,0,-2,1,1,1,-2,1,10
1529297248698916,1,8,4,-2,-25,-9,15,-6
1529297248714310,-7,1,-2,-7,4,-2,-3,-2
1529297248714310,-27,-4,5,3,-6,0,0,-10
1529297248729696,7,-4,-4,12,1,5,-1,3
1529297248729696,11,0,-11,-55,-8,-10,15,3
1529297248736669,19,8,23,57,13,-10,-14,0
1529297248736669,-14,-1,-11,-22,-3,18,24,-1
1529297248751659,-9,-13,-28,-48,-15,-3,4,-5
1529297248751659,-3,-9,-9,28,-11,-7,-15,-6
1529297248759775,-7,6,7,62,17,-6,15,-5
1529297248759775,-2,6,24,15,10,4,-28,-2
1529297248774613,-10,-9,-23,-33,-13,6,6,-4
1529297248774613,7,9,7,20,-3,-3,1,4
1529297248789776,-2,4,21,14,16,0,0,-2
1529297248789776,3,-2,15,16,20,2,-5,0
1529297248796891,3,2,14,14,2,2,-2,5
1529297248796891,-9,-10,-20,-34,-14,2,-6,-6
1529297248811886,-6,1,-13,-13,-2,-1,-3,0
1529297248811886,9,0,16,40,2,-3,0,2
1529297248819036,-4,-4,-9,-24,4,2,1,-5
1529297248819036,-6,1,-6,7,-3,-4,0,1
1529297248834195,-3,3,6,-26,-4,2,1,-2
1529297248834195,-5,1,5,-3,-5,1,-4,0
1529297248849333,-2,-8,-24,-15,-2,-4,-2,-1
1529297248849333,3,2,9,-8,2,-6,-1,0
1529297248864433,3,5,6,-8,-3,2,-3,2
1529297248864433,-2,0,3,17,0,-1,-4,-1
1529297248879278,-3,-3,-1,12,2,-3,-2,-3
1529297248879278,-4,-7,-10,-3,-1,-3,-2,-3
1529297248886363,-1,-1,-4,-20,-4,1,-3,0
1529297248886363,0,4,1,-4,-5,-3,-1,3
1529297248901191,-2,-4,-7,-5,-1,1,1,0
1529297248901191,-1,1,-2,-1,-1,-1,-2,-2
1529297248909170,-3,-7,2,4,0,0,-2,-3
1529297248909170,2,5,0,-6,0,-2,-2,0
1529297248916152,-1,-1,-1,-1,-3,-3,0,-2
1529297248916152,-4,-3,-5,-2,-2,-2,-1,-1
1529297248931476,0,0,-2,2,0,-1,0,-1
1529297248931476,4,1,7,4,0,-2,1,1
1529297248939329,-3,1,-1,-2,1,1,1,1
1529297248939329,-5,0,-7,-7,-1,-1,-2,0
1529297248961870,2,8,-9,-1,-3,0,-1,0
1529297248961870,2,3,5,-1,0,0,0,-1
1529297248983915,4,5,8,7,0,0,1,1
1529297248983915,-5,-7,-10,-2,1,0,1,-4
1529297248992275,-6,-9,-8,-12,-1,2,0,-1
1529297248992275,1,2,2,2,-3,-2,-2,1
1529297249007277,-3,-4,-3,-4,-1,0,0,-3
1529297249007277,-2,-8,-2,1,-1,-1,0,0
1529297249021404,-3,-6,-1,-1,0,0,1,-1
1529297249021404,-1,-7,-1,-3,-1,-1,-1,-1
1529297249029425,5,6,-2,4,-1,-3,0,1
1529297249029425,1,7,3,2,0,0,-1,2
1529297249036365,1,0,3,2,0,0,0,-1
1529297249036365,-1,0,-5,-3,-1,0,1,-1
1529297249051324,-1,-3,1,0,-1,-1,-1,1
1529297249051324,-2,-3,-4,0,-1,-2,-1,-2
1529297249059310,-5,-8,-3,-3,1,1,-2,-1
1529297249059310,3,6,0,-2,-3,-2,0,2
1529297249074263,3,8,3,1,-2,0,1,2
1529297249074263,0,0,3,-1,1,1,-1,0
1529297249082278,-2,-2,-1,-2,0,0,1,-2
1529297249082278,-5,-14,-9,-4,-1,1,0,-3
1529297249090229,-4,-2,-2,-4,-1,1,0,-3
1529297249090229,4,1,-7,0,-2,-2,-1,0
1529297249097204,2,5,10,3,-2,-1,0,0
1529297249097204,2,7,7,2,0,0,1,1
1529297249119308,-6,-7,-1,1,1,0,0,-3
1529297249119308,-6,-8,-9,-3,0,1,0,-4
1529297249126492,2,0,-4,-1,0,-1,-2,0
1529297249126492,-1,4,0,-2,-3,-2,-1,1
1529297249141533,0,-3,0,1,1,1,0,1
1529297249141533,2,3,2,2,0,-3,-1,0
1529297249149660,-3,-4,-4,0,2,1,-1,-3
1529297249149660,-1,1,2,-1,1,-1,-3,-2
1529297249156854,0,-3,-3,-1,-4,-2,-2,-1
1529297249156854,-3,-11,-1,-3,-4,0,-1,-3
1529297249164688,4,16,10,1,-2,-2,-1,3
1529297249164688,3,3,-3,0,1,0,1,1
1529297249171892,0,-3,-2,-4,-1,-1,1,0
1529297249171892,-3,1,1,-1,0,-2,-2,-3
1529297249179202,-14,-15,-3,-2,19,10,3,-3
1529297249179202,4,6,2,3,-13,-7,-5,-1
1529297249194156,5,5,8,5,1,0,1,3
1529297249194156,0,1,3,1,-3,-2,1,3
1529297249202281,-3,-4,-3,-2,-2,-3,-1,-1
1529297249202281,-1,-2,-3,-2,2,1,-1,-3
1529297249209336,-4,-12,-5,-5,-1,0,-2,-4
1529297249209336,1,8,2,2,3,2,0,0
1529297249217156,4,3,-2,-1,-9,-5,0,1
1529297249217156,-2,-4,-5,-3,4,4,1,-1
1529297249232248,1,-1,-2,2,-3,1,-1,1
1529297249232248,-2,-2,5,9,1,-5,0,-1
1529297249239097,5,1,-10,-19,-8,-3,-4,-1
1529297249239097,-2,-2,3,17,5,1,-1,-3
1529297249254194,0,0,-3,-15,0,-1,0,-1
1529297249254194,2,4,0,-21,2,3,2,1
1529297249262274,4,5,24,62,-8,-6,-2,3
1529297249262274,-6,-8,-10,-51,-8,-4,-3,-3
1529297249269248,-8,-9,-28,30,-3,-4,-3,-5
1529297249269248,3,3,2,-3,1,2,2,2
1529297249277239,3,3,0,-23,-1,-2,-1,1
1529297249277239,1,1,-1,5,4,2,0,2
1529297249292241,0,0,11,-3,-1,-1,-1,0
1529297249292241,-5,-2,-4,-16,-6,-2,-4,-4
1529297249299066,1,-1,-3,-3,-2,1,0,1
1529297249299066,0,1,4,12,2,0,0,-2
1529297249314447,1,1,0,-9,1,-2,0,1
1529297249314447,-2,-3,-2,10,1,-2,0,-1
1529297249321570,-5,-3,1,0,3,-1,0,-2
1529297249321570,2,-2,-4,0,-3,-2,-2,-1
1529297249329429,-3,-4,1,-3,1,2,2,-1
1529297249329429,1,5,4,7,-5,0,-3,-2
1529297249337259,3,-1,-6,-8,-2,-3,-1,-3
1529297249337259,0,-1,-1,0,1,-1,5,4
1529297249351224,2,1,5,1,1,0,-7,-8
1529297249351224,2,-3,2,3,0,2,1,0
1529297249359203,-1,-4,-7,-9,-1,0,1,-1
1529297249359203,-2,-1,1,4,-1,0,-2,-1
1529297249374321,-3,2,5,2,0,0,0,-1
1529297249374321,-1,-2,-3,-1,-2,-2,-1,0
1529297249389122,-15,-1,-2,-3,-3,-1,-2,-5
1529297249389122,13,1,3,5,-1,-1,-1,4
1529297249397249,12,4,3,-1,1,0,4,11
1529297249397249,-1,-3,-8,-7,-4,-1,-2,1
1529297249404134,4,-1,-4,-5,1,0,2,2
1529297249404134,-12,1,-1,2,-1,-2,-3,-6
1529297249419130,-5,-1,-1,-1,-1,0,-2,-4
1529297249419130,2,-2,0,3,2,0,-3,2
1529297249427073,-3,-1,-3,1,2,-1,-2,-2
1529297249427073,-3,-1,1,0,2,0,-1,-2
1529297249434097,2,3,1,-1,-2,-1,-2,1
1529297249434097,-2,0,2,3,1,0,2,0
1529297249442072,1,-1,-2,-1,-3,-1,0,2
1529297249442072,-2,-2,-4,-3,-4,-3,-1,-1
1529297249449046,-2,-2,-2,-1,-1,0,1,0
1529297249449046,-2,0,1,2,-1,-1,0,-3
1529297249457032,2,1,1,0,3,3,0,0
1529297249457032,3,0,0,-2,-5,-2,0,1
1529297249471952,-5,-2,0,1,2,1,-1,-4
1529297249471952,-3,-3,-4,-2,-2,-2,-3,-4
1529297249478934,5,2,0,-1,1,1,0,-1
1529297249478934,-1,2,1,0,0,-1,-2,0
1529297249493895,-2,1,1,0,0,-3,1,0
1529297249493895,0,0,0,1,1,0,0,-3
1529297249501874,-1,0,-1,-1,1,0,0,-1
1529297249501874,-1,-1,-1,1,-1,-1,0,-1
1529297249508855,-3,0,-2,-6,-2,-1,1,0
1529297249508855,0,-2,0,0,-1,-2,0,3
1529297249516833,-2,-2,-2,-3,-3,-3,-2,-1
1529297249516833,0,0,-1,0,0,0,0,-1
1529297249531959,0,-4,-5,-1,-1,0,-2,0
1529297249531959,-3,0,3,0,-1,-2,1,-1
1529297249538774,3,4,2,-2,1,1,0,2
1529297249538774,0,-2,0,-4,-3,-1,-1,0
1529297249553761,0,-2,2,-1,0,0,0,-2
1529297249553761,-1,-1,0,-1,-1,-1,-1,-1
1529297249561712,-1,-3,-1,1,-2,-1,1,-1
1529297249561712,-2,-1,-2,-1,3,-1,-2,1
1529297249568711,0,1,2,0,-1,-1,1,1
1529297249568711,1,-1,-4,-2,-1,0,-1,0
1529297249576710,-2,-1,-1,0,-1,-1,-1,1
1529297249576710,-1,-1,-3,-1,1,0,0,-1
1529297249591632,-2,0,1,0,0,0,1,-1
