timestamp,emg1,emg2,emg3,emg4,emg5,emg6,emg7,emg8
1528188056305606,1,0,0,-2,-2,-1,-1,0
1528188056305606,0,-1,-5,-1,-1,1,-1,-1
1528188056306603,1,-1,-2,-4,0,-1,-2,0
1528188056306603,1,0,0,-1,0,0,-2,-1
1528188056326549,-2,-2,-1,-1,-1,0,-2,0
1528188056326549,-1,-1,-3,-2,-2,-1,-1,0
1528188056327548,0,1,-3,-1,0,-1,1,0
1528188056327548,0,-1,-3,3,0,0,-2,-2
1528188056331536,0,0,4,1,0,-1,-2,0
1528188056331536,-2,-3,-3,-5,-2,-2,-2,-2
1528188056341509,-1,0,0,-2,0,0,0,-1
1528188056341509,-2,-2,-4,-5,-1,-2,-1,0
1528188056342506,-1,0,4,4,0,0,0,-1
1528188056342506,1,1,0,1,2,-1,0,1
1528188056356469,1,0,2,1,0,-1,0,0
1528188056356469,-1,3,-1,0,0,-1,0,-1
1528188056359462,-2,-2,-6,-4,0,-3,0,0
1528188056359462,-1,-1,0,-1,0,-1,1,1
1528188056379410,-1,-1,1,1,-1,0,2,-1
1528188056379410,-1,-4,-6,-2,0,-1,1,0
1528188056380407,0,1,1,-3,0,1,0,-1
1528188056380407,-1,1,0,0,-1,-1,-2,0
1528188056393406,0,-1,2,2,0,2,-1,0
1528188056393406,-1,-2,1,-3,-3,-1,-1,-2
1528188056407334,-1,-1,-7,-3,-1,-1,-1,0
1528188056407334,-1,-1,2,1,-2,0,-1,-2
1528188056409328,-2,1,0,3,-1,-2,-3,0
1528188056409328,-3,-1,0,0,0,-2,0,0
1528188056414315,0,2,1,2,-1,0,0,-2
1528188056414315,-2,-1,-2,-3,-1,-1,0,-1
1528188056438252,1,0,-3,-1,-1,0,0,1
1528188056438252,-2,-2,-2,-1,-1,-1,0,-1
1528188056453212,-1,-3,-1,-1,1,-1,1,-2
1528188056453212,0,1,-2,0,-2,-1,-2,-1
1528188056455207,-2,1,3,3,-1,-1,-1,-1
1528188056455207,-1,0,1,2,1,-1,0,-1
1528188056460192,0,-2,-3,-3,0,-1,-1,-1
1528188056460192,1,1,2,-2,0,1,0,-1
1528188056466186,-1,-1,-1,-1,-2,1,0,-2
1528188056466186,-2,-1,-2,1,0,0,-1,0
1528188056523025,0,-1,0,2,0,-2,-1,0
1528188056523025,1,1,4,-4,0,1,0,0
1528188056524067,1,-2,-7,-3,-1,-1,-1,2
1528188056524067,-1,-1,5,1,-1,-1,0,-1
1528188056528060,-1,0,-2,0,-1,0,-1,-2
1528188056528060,-1,0,-4,0,-2,0,0,0
1528188056529054,-1,-2,-1,-1,0,0,1,0
1528188056529054,2,2,1,-1,-1,-2,0,1
1528188056531048,-3,-2,-3,-3,-1,-1,1,0
1528188056531048,1,0,3,1,0,0,-1,-1
1528188056543017,-1,-2,-3,-2,-3,0,-2,0
1528188056543017,-1,-5,-2,1,-1,-1,-2,0
1528188056548987,3,3,4,-3,0,-1,-1,-1
1528188056548987,0,0,-2,-2,-1,0,0,-1
1528188056572892,-2,-4,-8,-4,0,-1,0,-2
1528188056572892,-1,0,6,3,0,-1,-1,-1
1528188056579872,-1,1,5,6,-1,1,0,0
1528188056579872,-1,-1,1,1,-1,-1,0,0
1528188056581868,1,-1,-2,-2,0,-1,-1,0
1528188056581868,0,-2,1,1,0,-1,-2,0
1528188056602811,-1,-2,-3,-2,-1,0,-2,-1
1528188056602811,1,2,2,0,0,1,0,-1
1528188056603820,2,-1,-1,2,0,-1,-1,-1
1528188056603820,0,-1,0,0,-3,0,-1,-1
1528188056632733,-2,-1,-6,-2,-3,0,-1,0
1528188056632733,-1,1,7,4,-2,0,0,0
1528188056633764,0,-1,0,0,-1,1,-1,-1
1528188056633764,1,3,6,3,1,-2,-1,0
1528188056654709,0,-1,-5,-1,-1,-1,0,-1
1528188056654709,-1,-4,-5,-4,0,1,1,-1
1528188056656667,-3,-3,-1,0,0,-1,0,-1
1528188056656667,-1,-2,-1,-1,-1,0,-1,-1
1528188056662653,0,0,-1,2,0,0,0,0
1528188056662653,-1,0,-2,-2,0,-1,0,0
1528188056664670,0,1,3,-2,-2,-1,-1,-1
1528188056664670,-2,-4,-5,-1,-2,-1,-1,-1
1528188056684631,-1,1,-1,-1,-1,-2,-1,-1
1528188056684631,0,-1,-4,-2,-2,-1,0,0
1528188056691613,-2,3,-3,-2,-1,0,1,1
1528188056691613,-1,-1,6,4,0,-1,0,1
1528188056700550,1,0,-1,-1,-1,0,-1,1
1528188056700550,0,-2,-1,0,-2,-1,-2,0
1528188056713551,-2,-2,-1,-1,2,-2,-1,-2
1528188056713551,-2,-2,-6,-5,-1,-2,0,-1
1528188056722493,0,-1,-1,2,-2,1,-1,0
1528188056722493,-1,0,-1,-1,-1,-1,-1,-1
1528188056724522,1,-2,0,0,-1,-1,0,-2
1528188056724522,0,-2,-3,-2,-1,1,0,0
1528188056736480,-1,0,1,1,0,0,1,-1
1528188056736480,0,1,-3,-2,1,-1,1,-1
1528188056745469,-2,0,1,1,-1,0,0,-1
1528188056745469,0,0,-1,-4,-1,1,0,-1
1528188056768370,0,-1,1,1,-1,-1,-1,-1
1528188056768370,1,2,3,1,-2,-1,-1,-2
1528188056775354,-1,1,-2,1,-1,-1,-1,0
1528188056775354,0,-1,-3,-2,-1,-1,-2,-2
1528188056782333,-2,-1,1,0,0,0,0,-1
1528188056782333,0,1,-3,1,-1,-1,0,-1
1528188056798305,0,-2,2,1,-1,0,1,-1
1528188056798305,1,0,0,0,-2,-1,-2,0
1528188056799286,-2,-2,-1,-1,0,-2,-2,0
1528188056799286,0,-1,-1,0,-1,-2,-2,-1
1528188056805271,0,0,-3,-3,-1,-1,-1,-1
1528188056805271,-1,0,-1,1,-1,-1,-1,0
1528188056820230,0,-4,-2,-2,0,-2,-1,0
1528188056820230,-1,0,-5,-3,0,-1,0,-1
1528188056821228,0,1,2,2,0,-1,-2,-1
1528188056821228,-2,-1,1,-3,-1,0,0,0
1528188056841200,0,-1,-3,-3,-3,-3,-1,-2
1528188056841200,-1,-1,0,0,0,0,0,0
1528188056859127,-2,0,-2,-1,1,0,0,0
1528188056859127,0,-1,-1,0,0,-1,-1,-2
1528188056860124,-1,2,3,-1,0,-1,-2,-1
1528188056860124,0,1,1,1,-1,-1,-1,-1
1528188056881067,-1,-2,1,0,-1,-1,0,0
1528188056881067,-2,0,0,0,0,0,0,0
1528188056881067,-1,1,-1,-2,-1,-2,-1,-1
1528188056881067,-2,-1,-2,-1,0,-1,0,0
1528188056883062,-1,-2,-6,-2,0,0,-1,0
1528188056883062,0,0,-1,-2,-1,-1,-1,-1
1528188056902018,-1,-1,6,5,-1,-1,-1,-1
1528188056902018,1,-1,-2,-1,-1,-1,0,-2
1528188056908995,-1,1,-1,-1,0,0,-1,-1
1528188056908995,0,-3,-3,-1,-1,0,0,1
1528188056916019,-1,-1,-1,0,0,-1,0,-1
1528188056916019,1,2,-1,-1,0,0,-1,-1
1528188056932930,1,-2,-2,-2,-1,0,-1,-1
1528188056932930,0,1,0,2,0,1,-2,0
1528188056939910,0,0,-1,-2,-1,0,0,-1
1528188056939910,0,0,3,0,0,0,-2,-1
1528188056941944,-1,-4,-1,0,0,-1,0,-1
1528188056941944,0,-1,-1,0,-1,-1,0,-2
1528188056962884,0,-3,-2,0,-1,1,-1,-1
1528188056962884,-1,-1,-2,-4,-1,0,0,0
1528188056964059,-1,2,2,4,-1,-1,0,0
1528188056964059,1,-2,-1,-2,-1,-1,1,-1
1528188056984833,2,0,1,-1,-3,0,1,0
1528188056984833,-1,-1,-1,0,2,1,-1,0
1528188056986787,0,-2,-1,-1,-2,-2,0,0
1528188056986787,0,1,1,1,0,0,-1,0
1528188056999790,-2,-3,-8,-6,0,-2,-1,-2
1528188056999790,1,-1,6,2,-1,-1,-3,-1
1528188057001745,-1,-3,-4,-2,0,0,-3,-2
1528188057001745,-1,-1,-4,1,-1,-3,-1,1
1528188057022954,0,2,8,3,0,0,0,-1
1528188057022954,-1,0,-4,-2,-1,-2,-1,-1
1528188057023686,0,0,-4,-1,-2,-1,0,0
1528188057023686,-1,-1,-1,-2,1,0,0,0
1528188057046663,0,-1,2,1,-1,0,0,0
1528188057046663,-1,-2,-1,-2,0,1,-2,0
1528188057048621,-1,1,-1,0,0,1,0,-1
1528188057048621,0,-1,3,2,0,-1,-1,-1
1528188057059628,1,-1,0,-2,-1,-2,0,0
1528188057059628,0,0,-1,-3,0,0,0,-3
1528188057061585,-1,-2,-3,-1,0,-1,-2,0
1528188057061585,1,1,0,-1,-1,-1,0,1
1528188057082528,-1,-2,-1,-2,1,-1,-3,-1
1528188057082528,-2,-2,-2,-1,-1,0,0,-2
1528188057084523,0,-2,-5,-6,0,1,-1,1
1528188057084523,0,0,2,1,0,0,0,-1
1528188057104471,-1,-1,-3,0,0,0,-1,-1
1528188057104471,1,1,9,1,0,0,-1,-1
1528188057106468,-1,-2,-1,-1,-1,-1,0,-1
1528188057106468,-1,-1,-4,-1,-1,0,0,1
1528188057135388,-1,-1,0,2,0,-1,-1,0
1528188057135388,-2,-1,0,-1,0,0,0,-1
1528188057136387,0,3,3,2,0,-1,0,-1
1528188057136387,0,-1,-3,-4,-2,-3,-1,-1
1528188057158326,0,1,0,1,0,-1,-2,-1
1528188057158326,-1,-1,-1,-1,-1,-1,-2,-2
1528188057159323,-2,-2,-2,-2,-1,-2,-2,-1
1528188057159323,-1,-1,0,0,0,0,-1,-1
1528188057160321,0,-1,-3,1,-1,0,-1,-1
1528188057160321,-1,-2,-1,-2,-2,0,0,0
1528188057165312,-1,-3,-6,-4,0,0,-1,-1
1528188057165312,1,3,10,2,1,0,0,0
1528188057179270,0,0,-1,-1,0,0,1,0
1528188057179270,0,1,-1,0,-1,-1,-2,-1
1528188057186252,-3,-4,-7,-2,-2,-1,0,-3
1528188057186252,-1,-2,-1,2,-1,-2,-2,0
1528188057202255,0,2,4,-1,-1,1,0,0
1528188057202255,0,1,-2,-1,-1,-1,-2,-1
1528188057217229,1,1,2,0,-1,-1,0,-1
1528188057217229,-1,-2,-4,-1,-1,0,1,1
1528188057217229,-1,-1,1,-1,-2,-2,-1,0
1528188057217229,-2,-2,-1,-2,-1,0,0,0
1528188057225148,0,-3,-6,-4,0,-1,-2,-1
1528188057225148,2,4,8,3,1,1,-1,0
1528188057239170,-1,-2,1,4,1,-1,-2,0
1528188057239170,-1,0,-6,-1,0,-1,1,0
1528188057246148,-2,-1,-1,-2,-2,-2,1,-1
1528188057246148,-1,-3,-6,-1,-3,0,0,0
1528188057262075,1,1,-5,-4,-1,-1,-1,0
1528188057262075,0,-2,-2,-1,0,-2,0,0
1528188057270028,0,0,-5,-4,-1,-2,-1,0
1528188057270028,0,-1,-1,0,-1,0,1,0
1528188057292968,0,0,1,-1,2,0,-1,-3
1528188057292968,-2,-4,-2,-1,-1,0,0,-3
1528188057293964,0,3,4,-3,1,0,-1,-1
1528188057293964,2,1,1,3,0,-2,-1,-1
1528188057298950,0,1,5,5,-1,1,-1,0
1528188057298950,-3,-2,-2,-4,-2,-2,0,-1
1528188057306930,0,1,1,2,0,1,0,-1
1528188057306930,-1,1,0,2,2,-1,-1,0
1528188057321933,0,-1,-3,-1,-1,0,-1,-2
1528188057321933,0,1,11,3,1,0,-1,-1
1528188057335851,-1,-2,-1,-3,-1,-3,0,-1
1528188057335851,0,1,-2,1,0,-1,0,-1
1528188057374783,0,-4,-3,-1,0,0,1,-1
1528188057374783,1,2,-1,-1,-1,0,-1,0
1528188057383757,-1,-1,0,2,-1,0,0,0
1528188057383757,1,-3,0,-1,-2,-2,-3,-1
1528188057384722,0,0,-2,-2,-1,-1,-1,-1
1528188057384722,0,-1,-2,0,1,0,-1,-1
1528188057386742,0,-1,-6,-6,-2,-1,-1,-1
1528188057386742,-1,-2,3,3,-1,0,-1,-1
1528188057396741,0,-1,-5,-1,-1,-1,-1,-1
1528188057396741,-3,1,3,2,0,0,1,0
1528188057412701,-2,-3,-5,-5,-1,-1,0,-2
1528188057412701,-1,1,5,1,1,0,-2,-1
1528188057414649,-1,0,-1,0,0,0,-1,-1
1528188057414649,-2,0,-1,0,-1,-1,-1,-1
1528188057434644,1,0,1,1,-1,0,-1,1
1528188057434644,-2,-4,-9,-4,-2,-3,1,-1
1528188057443616,0,-3,0,1,-1,0,-1,0
1528188057443616,1,0,3,0,0,0,-1,1
1528188057443616,-1,-1,2,0,-1,0,-1,0
1528188057443616,0,-2,-4,-1,-2,-1,-1,-2
1528188057445559,1,5,4,2,0,0,-1,-2
1528188057445559,1,-1,-1,0,-1,1,0,0
1528188057472518,-2,-2,1,-1,0,0,-1,-2
1528188057472518,-1,-1,-3,-1,0,-1,-1,0
1528188057478471,-4,-2,-2,-1,-2,1,0,-2
1528188057478471,0,0,5,3,0,-2,-2,-1
1528188057488449,1,1,0,-3,-2,-1,0,0
1528188057488449,-1,-1,-2,-2,-1,-1,-1,0
1528188057493450,0,1,0,-1,0,-2,-1,-1
1528188057493450,-1,-1,-4,-4,-1,1,-1,2
1528188057510527,-1,-1,0,-1,0,-1,-1,2
1528188057510527,-2,-3,-7,-3,0,-1,0,-1
1528188057516788,0,5,14,4,0,-1,0,0
1528188057516788,-2,-1,-3,1,-2,-1,0,-1
1528188057524672,1,0,0,-1,-3,0,-1,-1
1528188057524672,1,-2,1,-1,0,-2,-2,0
1528188057549291,-1,-4,-7,-3,-2,-1,0,0
1528188057549291,0,1,2,2,2,-1,0,-1
1528188057549291,1,0,0,1,0,-1,1,0
1528188057549291,-2,-1,-4,-1,-1,1,0,-1
1528188057554286,1,2,5,4,0,0,0,-1
1528188057554286,-1,-3,-3,-2,-2,0,0,-1
1528188057570591,-1,-1,-2,-2,0,-2,-1,-1
1528188057570591,-2,0,-3,-5,-1,-1,0,0
1528188057572332,-1,1,5,2,0,1,-2,-1
1528188057572332,-1,-1,-5,0,-1,-2,-1,-1
1528188057600407,-1,-3,-2,-3,-1,-1,-2,0
1528188057600407,-1,1,1,1,-1,0,0,-1
1528188057602143,-1,-3,-4,-6,-1,-2,-1,-2
1528188057602143,-1,-1,0,-1,0,0,-1,-1
1528188057615115,-2,-1,-1,1,-1,0,2,2
1528188057615115,-1,1,1,1,-1,-1,-1,-1
1528188057617110,-2,-1,-6,-4,0,-1,1,-1
1528188057617110,1,-1,0,2,0,0,-2,1
1528188057647071,-1,-2,-4,-3,0,-1,-1,-2
1528188057647071,0,0,3,-1,-1,-1,0,-1
1528188057648023,-1,0,0,0,-2,2,0,-2
1528188057648023,0,-2,-2,-2,0,-1,-1,-1
1528188057649036,-1,-4,-5,-2,0,-1,0,0
1528188057649036,1,2,1,-1,-1,0,-1,1
1528188057684169,0,-1,0,-1,-2,-1,0,0
