timestamp,emg1,emg2,emg3,emg4,emg5,emg6,emg7,emg8
1528453122040401,-1,0,1,2,-1,-1,-1,-1
1528453122040401,-1,-3,-1,0,-2,0,0,-2
1528453122041399,0,1,0,0,0,-1,0,-1
1528453122041399,0,0,0,-1,-1,-2,0,0
1528453122042396,-1,-1,-2,-1,-1,0,0,0
1528453122042396,-2,0,-1,0,0,-1,-1,1
1528453122043393,0,-1,-1,-1,-1,0,0,0
1528453122043393,-1,-2,-2,1,-2,0,0,0
1528453122053367,0,-1,0,0,-2,1,0,0
1528453122053367,0,1,-2,-3,-2,0,-1,1
1528453122057356,-2,-3,0,-2,-1,-1,-1,-1
1528453122057356,-2,-1,0,-2,0,-1,-2,-1
1528453122068326,-2,1,2,-2,-1,-1,-1,0
1528453122068326,0,0,1,-1,1,-1,1,-2
1528453122082289,-1,-2,-1,0,-1,0,-2,0
1528453122082289,1,0,-1,-1,-1,-1,0,0
1528453122088274,2,0,-1,0,1,-1,-2,-2
1528453122088274,-1,-4,0,-1,1,0,-1,1
1528453122098247,0,0,-1,0,-1,-2,0,-2
1528453122098247,-2,-1,0,-1,-1,1,-1,0
1528453122112210,-2,-2,-1,-1,-1,-2,-1,-2
1528453122112210,0,0,-3,-2,0,-3,0,-2
1528453122119191,0,0,0,0,-1,-2,-1,-2
1528453122119191,-2,1,-2,-1,-1,1,-2,1
1528453122164070,0,-1,0,-1,0,1,1,0
1528453122164070,1,-1,-2,-1,-1,0,0,0
1528453122165068,-3,-2,-2,1,0,-1,0,-1
1528453122165068,0,1,0,-1,0,2,-2,-2
1528453122166065,-2,-1,-2,-2,0,-1,-1,0
1528453122166065,-1,-3,-1,-1,0,-1,0,-1
1528453122167062,0,0,0,-1,-1,-2,1,-1
1528453122167062,-2,-1,0,0,0,-1,0,-1
1528453122177037,-1,-2,1,0,-2,1,-2,-2
1528453122177037,1,0,0,0,0,-2,-1,-2
1528453122185015,0,-1,-1,0,0,-1,-1,-1
1528453122185015,0,-2,-1,-1,-1,-2,-1,0
1528453122193991,0,0,-2,-1,-1,0,-1,-1
1528453122193991,-2,0,-1,-1,1,0,0,0
1528453122207953,-1,-1,0,0,0,-1,-1,0
1528453122207953,-2,0,0,-1,-1,0,0,-1
1528453122215936,1,0,-1,0,0,-2,-1,-1
1528453122215936,0,1,1,-1,0,1,1,-2
1528453122222914,0,-2,-2,-2,0,0,-2,0
1528453122222914,-2,-1,-1,-1,-1,-1,-1,-1
1528453122237875,1,0,2,1,-1,0,-1,-2
1528453122237875,-1,-2,0,-2,0,-1,0,-1
1528453122244855,-1,1,2,1,-1,1,0,0
1528453122244855,-1,-1,-1,-2,-1,-1,0,0
1528453122253830,-3,-1,-2,-2,1,-1,1,0
1528453122253830,0,-2,-1,-1,-2,-2,0,0
1528453122267794,0,0,-2,-2,0,-1,-1,-2
1528453122267794,0,-1,0,1,-1,-1,0,0
1528453122282753,0,-2,-1,-1,0,0,1,-1
1528453122282753,0,1,-1,-1,1,0,-1,-2
1528453122283751,0,-1,0,-1,1,-1,0,-1
1528453122283751,0,-1,0,-1,-1,-1,-1,-1
1528453122297740,-2,0,-2,-1,-2,0,2,-1
1528453122297740,0,-1,-1,1,-4,0,-1,1
1528453122304697,-2,0,-2,-1,-2,0,-1,-3
1528453122304697,0,-1,0,0,1,-1,-1,-1
1528453122313673,-2,-1,-1,0,-1,-1,1,-1
1528453122313673,-1,-3,-1,1,1,-1,-2,0
1528453122327633,-1,1,0,-1,-1,-1,0,1
1528453122327633,0,0,-1,0,-2,-1,0,-1
1528453122334614,0,1,0,-1,0,0,-2,-1
1528453122334614,0,0,1,0,-1,-1,-1,-2
1528453122342593,1,-1,-2,0,-1,-1,0,0
1528453122342593,0,0,-2,-1,-1,-2,1,-1
1528453122365532,0,-2,1,2,-1,-2,-2,1
1528453122365532,0,-1,-1,-1,1,0,-1,-1
1528453122366529,-1,-1,0,-1,0,-1,-1,0
1528453122366529,0,-2,0,0,1,-1,0,0
1528453122373514,-1,-1,0,-1,-1,-1,0,1
1528453122373514,-1,0,-2,-3,-2,0,-2,-2
1528453122388471,-1,0,0,0,0,0,0,0
1528453122388471,-2,-1,-2,-1,0,0,-1,0
1528453122394456,0,-2,-2,-1,1,-3,-2,0
1528453122394456,1,-1,1,1,0,1,0,1
1528453122402434,-2,-1,-1,-1,-2,0,0,-1
1528453122402434,-1,1,0,0,0,-1,-1,1
1528453122419388,0,0,0,0,0,-1,-1,0
1528453122419388,-2,0,-1,-1,-1,0,0,1
1528453122425374,-1,-1,0,0,0,1,1,1
1528453122425374,-1,-1,0,-1,1,-1,-2,-1
1528453122441329,1,1,-1,-1,1,-1,1,-1
1528453122441329,0,-1,-1,-1,-2,-2,0,-1
1528453122448311,1,0,0,0,-1,-1,-2,-1
1528453122448311,-1,-2,-1,1,-2,-1,1,-2
1528453122455293,-1,0,0,0,-1,0,-1,-2
1528453122455293,-1,0,-1,-2,1,-1,-1,-1
1528453122470252,-1,-1,-2,-2,0,-2,-1,-1
1528453122470252,-1,1,-1,0,-1,-1,0,-2
1528453122477234,-1,0,-1,1,-2,0,1,0
1528453122477234,-1,0,-2,1,-1,-1,-1,0
1528453122485214,-2,-1,1,0,-1,0,0,-1
1528453122485214,0,-1,-1,0,0,0,-2,-1
1528453122494188,-1,-1,-2,-2,-1,-1,0,-1
1528453122494188,0,-1,1,0,1,0,0,0
1528453122508151,-2,-1,-3,-2,-3,-1,1,-1
1528453122508151,-1,0,-2,-1,-1,-3,-1,1
1528453122515134,-1,-3,0,0,1,1,0,-2
1528453122515134,-2,-1,0,-1,-1,-1,-2,-1
1528453122522117,-2,0,-1,-1,0,-1,-1,-1
1528453122522117,-2,0,-2,-2,-2,-1,-2,0
1528453122537075,0,-2,-1,-2,-1,-3,-2,-2
1528453122537075,0,-1,-1,0,0,-1,-1,-1
1528453122545090,0,-1,1,1,0,0,1,-1
1528453122545090,0,-1,0,-1,-1,1,0,0
1528453122554030,-1,2,0,0,0,1,-2,0
1528453122554030,-2,-1,-1,-2,0,-3,0,-2
1528453122567994,0,0,1,-1,-2,0,-2,0
1528453122567994,0,1,1,-1,-1,1,1,-1
1528453122574972,-2,-2,-1,0,-1,-1,-2,0
1528453122574972,0,2,-2,1,0,-2,-1,-1
1528453122582951,-2,-1,-2,0,1,1,0,-1
1528453122582951,0,-2,-1,0,-2,1,0,-1
1528453122597915,-1,-2,-2,0,-1,0,-1,0
1528453122597915,-2,-1,-1,1,-2,-1,-2,-1
1528453122605936,1,-1,-2,0,-1,-2,-2,-1
1528453122605936,-1,-1,-2,-1,0,-2,-2,0
1528453122619853,1,1,1,-1,0,-1,1,1
1528453122619853,0,-1,-2,-1,-2,1,0,0
1528453122627851,-2,-1,-1,0,-1,-2,0,-2
1528453122627851,-2,-2,-2,-2,1,0,-1,-1
1528453122634814,-1,0,1,-1,-1,0,1,-1
1528453122634814,0,2,1,0,-1,0,0,0
1528453122642792,0,0,0,-1,-1,-1,0,0
1528453122642792,1,-1,-1,1,0,0,-1,-1
1528453122657795,0,-1,-1,-2,-1,0,-2,-1
1528453122657795,-1,0,-1,-2,0,1,0,1
1528453122664781,0,0,0,-1,1,0,-1,-1
1528453122664781,1,0,-1,-1,0,0,0,1
1528453122673948,-1,-1,0,-1,0,-1,-1,-1
1528453122673948,0,-1,-1,-2,0,-1,-1,-3
1528453122695916,-1,-1,-1,-1,-1,0,-2,0
1528453122695916,-1,0,-1,-1,-1,0,-1,1
1528453122697885,0,1,0,0,0,-1,-1,-1
1528453122697885,-2,-2,-3,-2,-1,1,0,0
1528453122711104,0,-1,0,-1,-1,0,-1,0
1528453122711104,1,0,-1,0,-2,0,-1,-2
1528453122718086,-1,0,1,0,-1,-1,0,0
1528453122718086,0,0,0,0,0,-1,-2,-1
1528453122725679,-1,-2,0,0,0,-1,0,0
1528453122725679,-1,0,1,0,0,-1,0,-1
1528453122733668,-1,2,-1,-2,-1,0,0,-2
1528453122733668,0,-1,-1,-1,0,0,1,-1
1528453122748620,0,0,-1,-1,-1,0,-1,0
1528453122748620,-1,-1,-1,0,-1,-1,0,-2
1528453122754604,0,0,-1,0,1,0,-3,-1
1528453122754604,0,-1,0,0,0,0,0,-1
1528453122770639,0,-1,0,-1,0,-1,-1,0
1528453122770639,-1,-1,0,-1,-1,-2,-1,-1
1528453122785572,-1,1,-2,-2,-1,-2,-1,-1
1528453122785572,-1,0,0,1,-1,0,-1,0
1528453122786519,0,0,-2,-1,-1,-1,0,-1
1528453122786519,0,-2,1,-2,-1,-1,-1,0
1528453122793499,1,-1,-1,-1,-1,-2,-1,-1
1528453122793499,-1,0,-1,-1,-2,-1,0,-1
1528453122808459,-1,-2,-1,-1,-1,0,-1,-1
1528453122808459,-1,0,-1,0,0,-1,-1,-1
1528453122815783,-1,-1,0,-1,-2,-1,0,0
1528453122815783,-1,1,0,-1,-1,1,0,-2
1528453122838380,-2,0,-1,0,-2,-1,-1,-1
1528453122838380,0,1,-1,1,1,0,-2,-1
1528453122840387,1,-2,-1,-1,-1,0,-2,0
1528453122840387,-1,-2,0,-1,-1,-2,-2,-1
1528453122845386,0,-1,0,0,0,-1,-1,0
1528453122845386,-1,-1,1,0,-2,-1,-1,-1
1528453122854355,-1,0,0,0,0,0,0,-1
1528453122854355,0,-1,-2,-2,-1,1,0,0
1528453122868541,0,0,0,-1,-1,0,-2,-1
1528453122868541,-2,-1,1,-1,-1,-2,-1,-1
1528453122875526,-1,1,-1,1,0,1,0,0
1528453122875526,0,-1,1,2,1,0,-3,-1
1528453122891274,-2,0,-1,0,-1,0,-1,-1
1528453122891274,-1,0,0,0,0,-1,0,-1
1528453122897462,-2,-1,0,-1,-1,2,1,0
1528453122897462,-1,0,0,-1,0,0,-1,1
1528453122905200,-2,-1,0,-1,0,0,-1,-1
1528453122905200,0,1,-2,-1,-1,-1,-1,-3
1528453122914177,0,-1,-2,-2,-1,-3,-2,0
1528453122914177,0,-1,1,-1,-1,0,0,-1
1528453122928175,-1,-1,-1,-2,0,-3,0,-1
1528453122928175,0,-1,-2,-1,-2,-2,-2,-1
1528453122935121,-2,0,0,0,1,0,-1,0
1528453122935121,0,0,0,-1,1,-2,0,0
1528453122951350,-1,0,-2,0,1,-1,1,0
1528453122951350,-1,0,0,-1,-1,0,1,-2
1528453122958148,-1,0,0,-1,-2,-3,-2,0
1528453122958148,1,-1,0,0,-1,-2,-1,-1
1528453122966303,-2,-1,-2,-1,1,0,0,1
1528453122966303,-1,-2,-1,0,-1,0,0,0
1528453122973188,-2,0,0,-1,-1,1,2,0
1528453122973188,-1,0,-1,-1,0,-1,-1,-1
1528453122987980,0,-1,0,0,-3,-1,-1,-2
1528453122987980,-1,-1,-1,0,-1,1,1,-1
1528453122994962,1,-1,1,0,-1,-1,-1,-2
1528453122994962,-3,-1,-2,1,-1,-1,0,-1
1528453123011157,0,0,-2,-1,1,0,0,-1
1528453123011157,0,0,-1,-1,0,-1,-1,-1
1528453123017448,0,0,-2,1,0,-1,0,-1
1528453123017448,1,0,-2,-3,-2,-1,0,0
1528453123026259,1,-2,0,-1,-1,-1,0,-1
1528453123026259,-1,-1,-2,-1,-2,1,0,0
1528453123033250,-1,0,-2,-1,-1,0,0,-1
1528453123033250,-1,-2,-1,-1,0,-2,0,-1
1528453123048427,-1,-1,0,-2,-1,0,-2,-1
1528453123048427,0,-2,-1,0,0,-2,-1,0
1528453123062641,0,-1,-1,-1,0,1,-2,-2
1528453123062641,0,1,1,1,-2,-3,-1,0
1528453123070458,-1,-1,0,-2,-1,0,0,-2
1528453123070458,-2,1,-2,-2,1,0,-1,2
1528453123077913,-2,-2,-3,-3,-1,-2,-2,0
1528453123077913,-2,0,-1,-1,0,1,-1,1
1528453123085667,0,0,0,0,1,0,1,1
1528453123085667,0,-1,1,0,0,-1,-1,-2
1528453123100700,0,1,1,1,0,0,-1,-1
1528453123100700,0,0,-1,0,0,-1,-1,-2
1528453123116544,0,-1,-1,0,-1,0,0,-1
1528453123116544,0,-1,-2,0,-1,1,-1,-1
1528453123117541,0,-1,-1,0,-2,0,-2,0
1528453123117541,-2,-1,-2,-1,2,0,-1,-4
1528453123130721,0,-1,0,-1,1,-1,-1,0
1528453123130721,0,0,1,1,0,-3,0,-1
1528453123137487,1,-2,0,1,0,-2,0,1
1528453123137487,-1,0,-1,-1,0,0,-1,0
1528453123153685,0,0,-3,-4,-1,0,-2,0
1528453123153685,1,0,0,-1,-1,0,0,-1
1528453123160459,-2,0,-1,-1,-3,0,-1,-1
1528453123160459,-1,0,1,0,-1,0,0,1
1528453123167652,0,-2,-1,0,0,-1,-1,-1
1528453123167652,0,-1,0,-2,0,-2,-1,1
1528453123176399,-1,-2,-1,-1,-1,0,0,0
1528453123176399,1,-1,0,-1,-2,0,1,-2
1528453123191386,-1,0,0,0,-1,-1,-1,0
1528453123191386,0,-1,0,-3,-1,0,0,0
1528453123197591,-2,-1,0,-1,-1,-1,-1,-1
1528453123197591,-1,-1,-1,0,-2,-1,0,-3
1528453123213808,-1,0,-1,-1,-3,-2,-1,-5
1528453123213808,1,1,-1,1,0,1,1,14
1528453123220601,-1,0,-1,-1,1,-1,0,1
1528453123220601,1,-2,1,-1,1,1,-1,1
1528453123227577,0,-1,0,-2,-1,0,-1,-2
1528453123227577,-2,0,0,-1,-1,0,-2,-3
1528453123236539,0,1,-1,-1,0,0,1,4
1528453123236539,2,-3,-1,0,-2,-2,1,-6
1528453123250765,-1,-2,-2,-1,1,-2,0,1
1528453123250765,-1,0,-1,-1,-2,0,-1,-4
1528453123257746,0,-2,-1,-1,0,0,-1,0
1528453123257746,-1,-1,-1,-3,0,-2,-2,-1
1528453123273704,-2,1,0,1,-2,0,0,-1
1528453123273704,-3,-1,-1,-2,-2,-1,0,-4
1528453123280686,-1,0,0,-1,-2,-1,-1,-4
1528453123280686,-3,0,0,1,0,0,0,2
1528453123297018,1,-2,-1,-1,-1,-1,1,1
1528453123297018,0,0,-1,-1,0,-1,-2,-1
1528453123298724,1,0,1,-1,2,0,2,-2
1528453123298724,-2,-1,-2,-1,0,-1,1,1
1528453123310645,1,2,1,1,-2,0,-1,3
1528453123310645,-1,0,-1,1,0,-2,-2,-4
1528453123317885,-1,1,0,-3,-2,0,-2,0
1528453123317885,-2,1,-1,-1,-2,0,-1,-1
1528453123333658,0,0,1,-1,0,-2,0,-2
1528453123333658,0,-1,-3,-1,-1,0,1,-2
1528453123341562,0,-1,-3,-2,0,-1,1,-2
1528453123341562,0,-1,-2,-2,0,-1,-1,0
1528453123356523,-1,0,-1,-1,-1,-1,-3,0
1528453123356523,-1,-1,1,2,0,-1,-2,-2
1528453123357527,-1,1,-1,-1,-1,0,0,-1
1528453123357527,0,0,1,1,-1,-1,-1,0
1528453123370485,0,-1,0,-1,1,-1,0,-2
1528453123370485,-1,-1,-1,-1,0,-3,0,-1
1528453123377473,-1,0,-1,0,-1,0,-1,-1
1528453123377473,-2,-2,-1,-1,-1,-1,0,0
1528453123393425,0,-2,-1,-1,-2,0,-1,-1
1528453123393425,-1,1,-1,0,-3,0,-1,-2
1528453123400407,-1,-1,-2,0,0,-1,-1,0
1528453123400407,-1,-1,0,0,-1,-1,-1,1
1528453123415364,-1,-1,-1,-1,1,-1,0,-1
1528453123415364,0,-1,0,-1,-2,-1,0,1
1528453123416363,0,-1,1,-1,0,-1,-2,0
1528453123416363,-1,0,-2,0,0,-1,-1,1
1528453123431323,-2,-2,-1,-2,0,1,-1,-1
1528453123431323,0,-1,-1,-1,-1,0,1,-2
1528453123437306,-2,-2,-1,-1,-2,-3,-2,-1
1528453123437306,-1,-2,1,-1,-1,0,-1,-2
1528453123452321,-1,-1,0,1,-2,-1,1,0
1528453123452321,-1,-2,-2,-1,-2,-1,-1,-1
1528453123460300,-2,0,-1,1,0,-1,-1,1
1528453123460300,0,2,0,-3,-1,-2,1,0
1528453123475242,-2,-2,0,0,-1,-1,-2,0
1528453123475242,0,-1,0,-2,-1,-1,-1,0
1528453123476204,-1,-1,-2,-2,-1,0,0,-3
1528453123476204,-1,-1,-1,-1,0,1,0,0
1528453123491162,-1,0,-1,1,0,0,-1,-1
1528453123491162,0,0,0,1,1,-1,-1,-1
1528453123497148,-1,-3,0,-1,0,1,0,0
1528453123497148,0,0,-1,-1,-1,-1,-1,1
1528453123512161,0,1,0,0,0,-2,0,1
1528453123512161,-3,0,-2,-1,0,0,-1,-1
1528453123520140,1,0,-1,-1,-1,-2,0,-1
1528453123520140,0,-2,-1,1,0,0,-2,-1
1528453123536097,1,-2,0,-1,-2,1,0,-1
1528453123536097,-1,0,0,-2,-1,-1,1,-1
1528453123536097,0,1,-1,0,-1,-1,0,-1
1528453123536097,-3,0,-4,0,-1,-1,0,0
1528453123552015,-1,0,-1,-1,-1,-1,-1,-1
1528453123552015,0,0,0,0,-1,-1,0,0
1528453123556986,-2,0,0,-1,1,-2,0,-2
1528453123556986,-1,0,1,1,1,-1,-2,-1
1528453123572946,-1,0,-1,0,-1,-2,0,-1
1528453123572946,-1,-1,-2,-2,-2,-1,-2,-1
1528453123579969,-1,-2,-1,0,-1,-1,-1,0
1528453123579969,0,-1,-1,-2,-2,-1,-1,-1
1528453123602865,-1,0,-2,-2,0,-2,1,-1
1528453123602865,-1,0,-1,1,-1,1,0,1
1528453123603862,1,0,-1,0,-1,0,1,0
1528453123603862,0,-1,-1,-1,-1,-1,0,-2
1528453123626815,-2,-1,-1,0,-2,-1,-2,-2
1528453123626815,-1,-2,2,-1,0,-2,1,-1
1528453123626815,1,0,0,0,-1,1,0,-3
1528453123626815,-1,0,0,0,1,-1,1,0
1528453123632785,0,0,-2,-1,1,-1,0,-1
1528453123632785,-1,-1,-1,-1,-2,0,-2,2
1528453123639766,-2,0,-2,-2,0,-1,-2,0
1528453123639766,-1,1,-2,-1,-2,-1,0,0
1528453123655724,0,1,-2,0,-2,0,0,0
1528453123655724,-1,-1,0,0,0,-1,-1,-1
1528453123656721,0,1,0,0,-3,0,0,-1
1528453123656721,0,0,-1,-1,0,-1,-2,-1
1528453123677665,-1,-1,-1,-1,-1,0,1,2
1528453123677665,-1,-1,-1,-1,-1,0,0,-1
1528453123678662,0,-2,0,0,0,0,-2,-1
1528453123678662,-1,-1,-1,-1,0,0,0,-1
1528453123692625,-1,0,0,0,-2,0,-2,1
1528453123692625,0,-1,0,-1,0,-1,-1,0
1528453123700633,-1,0,-2,0,-2,-1,0,0
1528453123700633,0,-1,-1,-1,-1,-1,1,1
1528453123715832,0,-2,-1,-1,1,-2,0,-1
1528453123715832,1,-1,-1,-2,0,-1,-1,-1
1528453123716561,1,0,0,0,-1,-1,1,0
