timestamp,emg1,emg2,emg3,emg4,emg5,emg6,emg7,emg8
1529311906633516,-1,1,-9,0,1,-6,1,0
1529311906633516,-1,-5,5,1,1,10,1,-2
1529311906634513,-1,8,7,10,1,0,-3,-4
1529311906634513,-4,-7,-22,-19,-17,-18,-6,-3
1529311906638502,3,9,27,22,-12,-8,-6,0
1529311906638502,0,-3,-40,-26,9,16,10,2
1529311906639499,1,-5,13,-13,-3,4,5,2
1529311906639499,-1,3,-12,5,24,20,2,-1
1529311906646480,1,-2,-7,22,9,-13,-6,-1
1529311906646480,-4,-4,-2,-9,-15,-20,-8,-4
1529311906657481,-2,-3,-5,-22,2,10,1,-2
1529311906657481,0,4,34,26,-31,-9,-1,2
1529311906659446,1,4,-2,-36,23,2,4,1
1529311906659446,-3,-15,-7,14,7,14,-1,-3
1529311906676402,0,-2,-3,2,-1,-5,-2,-2
1529311906676402,0,6,19,-14,2,-4,-5,-2
1529311906683382,-2,-5,15,12,-2,9,4,-1
1529311906683382,1,8,-1,7,-15,-19,-4,0
1529311906705374,0,-3,-24,-7,-6,0,-4,-2
1529311906705374,-2,-10,-7,24,0,-1,-2,-3
1529311906706319,-1,2,-7,-29,6,-6,0,-2
1529311906706319,-2,6,14,29,0,0,-2,-2
1529311906720282,-2,-4,-17,-33,-17,3,-5,0
1529311906720282,4,6,2,-17,-26,-20,3,2
1529311906762171,0,2,2,5,-12,7,-1,0
1529311906762171,2,3,15,-7,0,-5,-4,-2
1529311906763197,-2,-6,-23,19,25,9,4,2
1529311906763197,-3,-3,9,-26,-30,-30,-6,-5
1529311906765192,-1,3,7,-6,-6,0,-3,-2
1529311906765192,2,-3,-1,-4,-14,-7,4,2
1529311906766159,-2,2,9,-1,21,22,2,-2
1529311906766159,-1,-2,8,17,15,4,7,4
1529311906774140,-1,-1,-7,-13,-15,-14,-6,-3
1529311906774140,-1,3,11,29,-10,-6,-3,-1
1529311906780123,-2,-2,-6,-27,-10,-4,-3,-2
1529311906780123,1,2,-21,-16,20,13,-1,-2
1529311906796079,0,-4,7,-23,-15,-7,-3,-2
1529311906796079,-4,-7,-10,2,-10,-6,-5,-4
1529311906804059,2,1,0,11,-6,-2,-2,0
1529311906804059,-1,5,21,33,11,12,4,3
1529311906811039,-1,-2,6,-1,4,1,1,0
1529311906811039,-5,-5,-39,-21,-14,-9,-6,-6
1529311906833978,0,2,11,21,-14,-12,-1,0
1529311906833978,-1,-1,-4,-35,6,4,-2,-2
1529311906834978,3,2,17,15,29,14,5,4
1529311906834978,-4,-5,-43,-23,-3,5,-1,0
1529311906848940,1,4,-1,-3,-11,-8,-5,-3
1529311906848940,-1,-4,-3,28,-11,-9,-6,-3
1529311906855967,-3,-4,-4,-14,-14,-10,0,-1
1529311906855967,2,7,27,24,46,26,6,4
1529311906870881,-3,-6,-36,-27,-5,-10,-9,-4
1529311906870881,0,-3,0,10,-7,-5,-7,-3
1529311906876909,-2,-2,-13,-17,-17,-6,-2,-1
1529311906876909,-1,-4,-2,-17,0,0,2,1
1529311906893819,-1,4,28,22,6,-1,-2,-2
1529311906893819,-1,-1,1,-5,-11,-5,-3,-1
1529311906894816,-3,0,15,7,-1,-6,-4,-4
1529311906894816,2,-11,-19,-27,-15,-2,-1,1
1529311906906784,-3,0,43,40,-1,-3,-1,-4
1529311906906784,-2,-4,-59,-43,-2,0,-2,-2
1529311906916759,-6,-12,-31,1,10,4,1,1
1529311906916759,-3,4,39,16,3,1,-5,-4
1529311906930748,2,-2,-28,-28,-17,-7,-4,1
1529311906930748,0,-3,5,29,9,7,8,1
1529311906937704,5,9,23,-1,4,-4,-2,-1
1529311906937704,-4,-8,-44,-21,-16,-12,-6,-7
1529311906960642,-5,10,15,-1,5,1,2,1
1529311906960642,2,-11,-25,-18,-5,-1,-2,0
1529311906962645,-5,0,1,9,12,5,1,1
1529311906962645,8,10,61,36,4,-1,1,0
1529311906967624,-3,-14,-71,-52,-13,1,0,-1
1529311906967624,2,3,0,7,-4,-6,-10,-1
1529311906976598,4,0,38,29,-7,-3,1,1
1529311906976598,-22,1,-13,-10,9,4,4,-3
1529311906990599,-6,-3,-13,-6,0,-2,-3,-3
1529311906990599,-7,0,23,-1,3,7,7,1
1529311906997594,-9,-9,-4,0,-10,-6,-4,-3
1529311906997594,20,-2,-8,-4,0,-6,0,6
1529311907013536,1,8,-13,9,7,5,3,1
1529311907013536,6,-4,56,16,-4,-1,0,3
1529311907015530,4,-5,-68,-33,-5,-8,-20,-5
1529311907015530,-8,2,-19,5,-1,15,28,2
1529311907027461,1,-2,25,0,1,-3,-1,-5
1529311907027461,-2,9,-9,-5,-11,-2,4,1
1529311907036438,13,3,22,22,4,-4,-10,-6
1529311907036438,-2,0,31,-28,-1,-9,-10,-2
1529311907050401,4,-2,33,8,4,3,6,3
1529311907050401,-17,-2,-23,-1,-6,-8,-4,-3
1529311907057383,18,14,11,-9,-2,-1,-3,0
1529311907057383,1,-1,-18,21,5,0,-3,2
1529311907073375,1,-9,-1,-4,4,3,-4,0
1529311907073375,-4,3,-16,7,0,-5,-3,-5
1529311907075334,-9,18,25,-14,-8,0,8,1
1529311907075334,-16,-22,-3,9,2,-1,-14,-10
1529311907096278,4,-5,-15,-7,-1,-2,-4,3
1529311907096278,-1,5,1,8,4,1,0,0
1529311907097302,-8,-7,-36,-5,-3,-2,-3,-2
1529311907097302,2,5,-14,-21,-18,-11,3,0
1529311907110258,-5,-1,6,17,8,9,2,0
1529311907110258,1,0,13,5,14,7,-3,-4
1529311907118259,0,0,0,9,-2,-2,0,3
1529311907118259,3,-1,-34,-9,-2,-2,-4,-3
1529311907133215,3,4,72,24,-1,0,0,-1
1529311907133215,1,-4,2,-15,-1,0,0,-2
1529311907135176,-11,-18,-71,-11,13,10,9,-2
1529311907135176,7,22,24,-2,-6,-6,-8,0
1529311907156118,2,6,-10,-1,-11,-7,-1,-3
1529311907156118,-3,-11,13,6,4,2,0,2
1529311907158112,-10,-18,-8,9,-3,-3,1,0
1529311907158112,2,2,14,12,14,6,2,1
1529311907170082,-1,-2,2,-19,-13,-6,-3,-1
1529311907170082,1,2,12,1,-3,-8,-13,-4
1529311907179058,2,0,-17,13,21,16,17,5
1529311907179058,-1,-12,-43,-26,-6,3,3,1
1529311907194018,-3,-2,-19,-4,-4,-5,-2,-1
1529311907194018,-4,-9,-18,-7,-8,-9,-15,-4
1529311907195015,-2,5,9,-2,-8,-5,2,-4
1529311907195015,8,14,34,6,8,2,0,3
1529311907215958,-10,2,-12,5,-10,-9,-7,-8
1529311907215958,3,5,8,-15,-2,-1,5,3
1529311907217953,-1,-5,11,-10,-12,-15,-17,-6
1529311907217953,-3,1,45,5,-2,2,8,-1
1529311907229920,-2,2,26,12,21,17,6,2
1529311907229920,1,-1,-6,-4,-13,-6,0,-2
1529311907244880,-4,-4,-14,-18,-5,-3,-7,-2
1529311907244880,-1,-11,-34,17,10,2,3,1
1529311907253856,2,3,13,-21,-10,-6,-4,1
1529311907253856,1,-3,-26,19,7,3,3,-2
1529311907254854,3,3,29,4,2,4,2,0
1529311907254854,-5,-6,-14,-24,-20,-12,-16,-8
1529311907275798,0,-5,-24,-15,4,4,7,3
1529311907275798,-3,-2,-13,10,4,1,-3,-2
1529311907277795,7,7,12,-2,2,-1,5,5
1529311907277795,-8,-10,26,9,-2,-16,-22,-1
1529311907289760,2,-1,10,4,3,13,9,1
1529311907289760,0,-3,3,-10,-3,1,25,1
1529311907298735,1,1,2,7,4,9,-1,-4
1529311907298735,5,10,31,20,-4,-3,0,0
1529311907313868,-3,-8,-30,-26,-8,-14,-21,-3
1529311907313868,-7,-7,-5,-21,-3,5,7,-1
1529311907315940,18,1,-7,3,-1,-17,-30,5
1529311907315940,-10,-1,-7,-7,-12,-14,7,-11
1529311907335809,13,4,0,13,12,-14,28,14
1529311907335809,-31,-1,-9,-8,-4,22,-30,-16
1529311907337804,2,-2,1,5,7,0,55,6
1529311907337804,-4,-8,-8,-10,-4,32,-23,-24
1529311907349806,-6,-4,-6,5,7,-22,-57,1
1529311907349806,11,-2,2,-8,-8,4,5,2
1529311907358748,-21,-8,10,11,5,-29,-57,-1
1529311907358748,29,8,2,8,9,33,37,7
1529311907373715,-16,0,-6,-2,-9,16,91,-9
1529311907373715,6,28,15,6,-6,-71,-94,-48
1529311907374706,33,-7,-6,-18,-30,-45,-49,1
1529311907374706,-9,-20,-15,8,21,46,89,3
1529311907396731,9,13,2,11,16,82,97,71
1529311907396731,-57,-42,-5,-2,1,-3,32,-21
1529311907397644,-30,-9,-12,-19,-23,-26,-69,-30
1529311907397644,-1,-7,-7,-1,1,-56,-90,-27
1529311907409753,6,4,0,1,-10,-22,-66,-14
1529311907409753,25,9,3,3,4,27,124,56
1529311907418588,-16,-15,6,9,6,9,0,-6
1529311907418588,8,3,-5,-9,-18,-22,-17,11
1529311907433651,4,-2,9,13,11,-7,-42,-30
1529311907433651,8,14,-2,-5,-5,-17,-28,3
1529311907435543,0,-5,-4,3,6,34,36,-6
1529311907435543,-4,-2,-1,8,13,21,-1,25
1529311907456487,-16,16,-15,-9,-14,-36,-9,-15
1529311907456487,9,-11,34,3,-3,4,-5,0
1529311907457486,-1,-9,-3,17,25,47,42,16
1529311907457486,-11,-2,3,-8,-7,-9,10,-7
1529311907469473,-1,-4,-8,-8,-15,-15,-19,1
1529311907469473,13,4,-1,5,5,-1,-2,12
1529311907478429,0,9,9,3,4,3,5,-7
1529311907478429,-6,7,-3,-3,-10,-8,-40,-3
1529311907493389,2,-5,-2,-21,0,2,11,0
1529311907493389,7,-5,-11,7,-14,-11,-18,-2
1529311907495384,-14,-6,-27,-8,9,26,22,3
1529311907495384,9,7,16,9,9,-9,2,2
1529311907516327,-7,-8,-2,2,-15,-15,-21,-13
1529311907516327,-6,-7,-4,-5,0,3,-17,-7
1529311907517325,4,16,27,14,4,20,49,8
1529311907517325,0,-4,-27,-25,-5,4,16,6
1529311907530290,-1,-11,-19,-3,0,3,-18,-7
1529311907530290,-2,5,0,1,1,13,8,3
1529311907539270,6,7,2,-1,-11,-13,24,1
1529311907539270,-2,3,7,3,2,-4,6,0
1529311907553229,-5,-14,5,-2,-1,5,-7,-8
1529311907553229,-3,5,-13,-7,-4,-7,-7,-3
1529311907555234,6,7,-6,-8,-2,-17,-13,5
1529311907555234,-4,7,9,3,-1,13,5,-1
1529311907576168,-5,-12,-4,1,-3,-13,1,-4
1529311907576168,7,1,4,4,5,2,4,6
1529311907578162,-2,2,2,-3,-3,5,-6,-4
1529311907578162,-4,-7,-6,3,3,7,-7,2
1529311907590128,5,3,-1,-1,-5,-6,-8,0
1529311907590128,3,6,5,1,5,7,32,3
1529311907599104,-5,-5,6,9,11,10,5,-1
1529311907599104,-8,-4,-7,-9,-6,-9,-6,-3
1529311907614064,3,0,5,-4,-3,6,-2,-1
1529311907614064,0,-4,-7,-11,-4,3,-4,-2
1529311907615062,2,3,-4,4,-7,-16,-12,-1
1529311907615062,-3,-3,1,4,4,-7,2,0
1529311907636041,-2,7,13,6,12,1,5,-2
1529311907636041,1,-2,1,-5,-2,-11,-12,2
1529311907638002,-4,-3,-13,-5,-15,-1,-13,-3
1529311907638002,0,-5,-12,3,13,0,7,-1
1529311907650024,-1,-2,-6,-5,-4,5,-6,-3
1529311907650024,-1,4,15,6,5,-2,-10,-1
1529311907658946,-1,-1,-2,-6,-2,-8,-6,-2
1529311907658946,0,0,2,-3,-14,-6,-3,-2
1529311907673960,1,4,23,10,6,-2,5,0
1529311907673960,4,-4,-49,-9,7,9,-3,1
1529311907674930,-5,-1,-1,-4,-4,4,-3,-3
1529311907674930,0,-2,1,3,-5,-6,-3,1
1529311907695865,-2,-2,7,5,-4,-7,-1,-1
1529311907695865,1,3,11,2,5,7,-1,-1
1529311907697842,-1,-3,-4,-9,1,-5,-1,-4
1529311907697842,-2,1,-12,-2,-4,-21,-33,-4
1529311907709865,0,-4,-4,0,1,23,19,1
1529311907709865,1,1,4,-1,-3,1,-1,-3
1529311907718786,2,2,-1,-2,0,-12,-16,0
1529311907718786,-1,-5,11,2,1,6,13,3
1529311907740763,2,0,-7,-3,-5,-5,-3,-2
1529311907740763,-2,-2,-2,1,-2,-4,-3,-2
1529311907742722,1,1,3,-1,2,0,-1,-2
1529311907742722,-1,1,1,5,0,1,0,-2
1529311907754689,-3,-4,-9,-5,-1,-4,-4,-1
1529311907754689,-4,-5,1,-2,-3,0,0,-1
1529311907763666,-2,-2,2,-3,-3,-7,-3,1
1529311907763666,-5,1,1,-2,0,3,7,-2
1529311907778628,0,-3,-7,-4,-2,-3,-2,-2
1529311907778628,0,2,4,-2,-5,-6,-7,0
1529311907780621,0,-1,2,4,5,3,7,0
1529311907780621,-4,-1,-6,-1,-2,-1,4,-1
1529311907801230,0,-1,3,-2,-2,-1,-6,-2
1529311907801230,-5,-1,0,-1,-2,-1,-1,1
1529311907803225,6,-2,-1,-2,1,0,-2,-5
1529311907803225,3,1,1,-2,-2,1,-1,-2
1529311907815194,10,-1,-5,-4,-3,-12,-11,4
1529311907815194,-21,0,1,0,-1,4,5,-13
1529311907824172,0,-1,-1,-1,1,6,11,8
1529311907824172,8,1,2,-2,-3,-5,-6,12
1529311907839132,-7,1,-3,-2,-3,0,-3,-16
1529311907839132,8,0,-1,0,-1,-2,-8,-1
1529311907840147,-7,1,-1,-1,-1,-1,-4,-8
1529311907840147,7,-2,0,-2,-3,-3,2,5
1529311907861289,0,-1,-1,-2,-2,-1,0,6
1529311907861289,2,2,2,3,7,5,-1,6
1529311907863336,17,7,-1,-1,-3,-1,-3,-12
1529311907863336,-10,-9,-3,-3,-2,-2,3,2
1529311907875243,0,-1,-3,0,-1,-3,-2,0
1529311907875243,4,1,-3,-6,-9,-8,-8,-5
1529311907883393,7,0,1,2,1,5,-3,7
1529311907883393,-1,-1,1,-1,0,1,0,-3
1529311907898584,12,-1,-3,-2,-2,-1,-2,-2
1529311907898584,35,-1,2,0,0,0,8,19
1529311907900594,-12,-2,-2,-2,-1,-5,-5,-3
1529311907900594,-1,1,-1,-1,-2,-2,-4,-12
1529311907928624,-18,-4,-2,1,4,5,1,0
1529311907928624,7,-1,-3,-2,-3,-3,-3,-3
1529311907930481,-9,-2,3,-1,-2,-3,0,-1
1529311907930481,2,2,3,-1,-3,-2,-1,-4
1529311907934481,2,-1,-6,0,1,-1,1,0
1529311907934481,-7,-1,-1,1,2,0,-2,1
1529311907943571,-1,-5,-1,-2,-3,-4,0,-3
1529311907943571,-6,-1,0,-2,-2,-1,-1,2
1529311907958550,-9,0,-1,1,-4,-2,-1,-2
1529311907958550,-3,-6,5,-1,0,2,-3,-1
1529311907960402,-13,-2,-1,2,3,-1,-1,-5
1529311907960402,6,4,5,4,5,3,3,-2
1529311907981550,0,1,-4,-5,-5,-2,-1,4
1529311907981550,-12,-6,1,-2,-3,0,-3,-11
1529311907982543,3,-1,-4,-6,-12,-10,-4,3
1529311907982543,-4,-8,7,4,4,2,2,-1
1529311907994511,-1,13,16,6,3,0,0,-1
1529311907994511,-8,-5,-22,-6,0,2,-1,0
1529311908003487,-5,-6,-15,-4,3,2,0,1
1529311908003487,-1,-3,2,-1,-10,-8,-6,-4
1529311908018447,3,2,-6,2,-1,-4,-1,1
1529311908018447,-2,-1,19,-6,-7,-5,-2,-2
1529311908020442,1,8,-6,-3,-2,0,1,0
1529311908020442,1,-3,-1,3,-2,4,1,-1
1529311908041576,4,2,-8,-12,-9,-7,-6,-3
1529311908041576,-14,-9,2,5,4,-3,-1,-5
1529311908042571,1,1,15,5,-3,-2,3,2
1529311908042571,-1,0,-19,1,4,9,2,3
1529311908054680,1,-4,1,3,12,9,2,0
1529311908054680,-6,4,-8,-1,3,0,-3,-3
1529311908063521,4,14,10,4,2,-2,-2,-2
1529311908063521,13,2,-2,-3,-2,-6,-1,1
1529311908078618,-9,-15,10,0,-7,-5,-1,0
1529311908078618,-10,2,16,0,0,1,2,-2
1529311908080469,-6,-11,-44,-4,-5,-3,-1,-10
1529311908080469,7,9,11,-3,-3,-7,-2,13
1529311908101560,-7,-10,23,3,-5,-1,-2,-2
1529311908101560,5,-1,-8,10,-1,0,0,0
1529311908102522,-3,-8,10,-5,-1,0,1,1
1529311908102522,-8,-5,-1,-5,0,-1,-1,-5
1529311908115399,-1,1,-5,3,3,-2,0,-2
1529311908115399,0,0,6,2,-1,0,-1,1
1529311908123358,8,0,7,-9,0,2,-2,1
1529311908123358,-18,-5,-13,-3,4,1,1,-3
1529311908138471,3,7,-2,-6,-2,-3,-3,-3
1529311908138471,-1,-1,-6,3,-3,-1,-2,-8
1529311908140310,3,6,2,-1,0,-2,0,9
1529311908140310,-11,-5,16,3,0,-2,-2,-4
1529311908161418,0,-3,-38,-8,1,1,1,-2
1529311908161418,3,7,34,11,1,-1,-1,2
1529311908162422,-8,-13,-20,-14,-5,-1,-4,-6
1529311908162422,6,5,14,5,0,-1,-1,-1
1529311908174586,-7,-8,-3,-3,0,-1,-2,-8
1529311908174586,9,1,-12,-10,-1,0,-1,2
1529311908183524,6,4,22,8,1,1,-1,5
1529311908183524,-1,-8,-22,-4,0,1,0,-6
1529311908198620,-8,-3,11,16,-2,-3,0,1
1529311908198620,10,2,-4,-10,-3,-4,-3,-1
1529311908200479,-6,-3,4,-5,-2,-1,0,-4
1529311908200479,-10,0,-14,-4,-1,-7,-2,-7
1529311908221445,11,4,-4,-2,1,5,7,10
1529311908221445,-8,-1,-3,2,1,4,-4,-7
1529311908222422,-2,-3,-4,9,5,5,3,7
1529311908222422,1,-2,-3,-6,-3,-1,1,3
1529311908234421,-7,-5,1,-5,-2,-4,-8,-10
1529311908234421,0,0,-1,1,-1,1,5,9
1529311908244389,7,-2,-5,-1,1,3,0,-4
1529311908244389,0,-7,0,-1,-1,-1,-4,-22
1529311908258327,-7,4,5,1,-3,-3,3,10
1529311908258327,-6,-1,-18,-4,0,-2,1,14
1529311908264589,-18,-2,2,2,-2,-3,-4,-7
1529311908264589,22,2,7,3,-3,-3,-1,1
1529311908281417,2,-2,-9,-4,0,0,-2,-1
1529311908281417,-4,-4,-5,-6,-2,-3,-2,-10
1529311908283414,5,0,4,3,-1,-2,1,8
1529311908283414,-4,3,-3,-2,-2,-3,-2,1
1529311908294385,4,-3,-1,-4,-2,-2,-3,-4
1529311908294385,-2,-2,-5,-4,-2,-1,0,2
1529311908303363,-4,-1,0,1,-2,-3,3,-3
1529311908303363,-8,-1,3,2,1,-3,-12,0
1529311908318541,6,2,-2,-3,0,3,1,-4
1529311908318541,-18,-4,-2,-5,-2,-10,0,0
1529311908325363,-11,-8,-2,-2,3,7,7,-3
1529311908325363,-6,-2,-3,-1,4,22,10,-3
1529311908341485,0,2,0,1,-2,-1,-3,-5
1529311908341485,3,-1,1,1,-2,-1,-4,-12
1529311908342484,13,3,2,2,-1,-2,0,9
1529311908342484,-25,-5,8,1,-2,-6,-1,8
1529311908354295,7,-3,-5,0,-1,-4,-2,0
1529311908354295,2,-4,-4,-1,-1,-1,0,0
1529311908364271,-3,0,-7,-2,-2,-4,-6,-8
1529311908364271,7,0,6,1,-4,-3,-2,0
1529311908378231,-6,-3,-5,-2,-1,-1,0,-1
1529311908378231,-6,-1,-3,-2,-4,-4,-2,1
1529311908384216,-6,-1,2,0,0,-2,-3,-3
