timestamp,emg1,emg2,emg3,emg4,emg5,emg6,emg7,emg8
1529287597738561,0,-2,2,-1,2,-3,-4,3
1529287597738561,0,1,-2,-1,-1,-5,-5,4
1529287597745542,-3,-4,0,-6,-4,3,-3,-1
1529287597745542,-2,0,0,-7,-4,8,3,1
1529287597754517,0,-2,-4,-3,-3,0,3,-3
1529287597754517,0,-6,-3,4,4,-4,0,-4
1529287597760501,1,-5,-5,6,5,-6,-1,0
1529287597760501,-10,1,1,-1,-1,-2,-2,-6
1529287597775462,-5,2,3,-3,-5,2,1,2
1529287597775462,-4,0,3,-4,-9,0,1,-3
1529287597783440,1,8,1,-4,-1,-3,-2,0
1529287597783440,3,-5,1,4,10,2,-6,1
1529287597798399,4,1,1,3,4,0,-6,-1
1529287597798399,6,-6,-5,0,-4,-4,-1,2
1529287597809371,6,-6,-7,3,-13,0,1,2
1529287597809371,3,-3,-3,-4,-13,-6,2,-1
1529287597820341,-4,-3,1,-3,-6,-1,0,-7
1529287597820341,-7,0,2,-5,-2,2,0,-6
1529287597828320,-3,0,-2,1,1,-1,1,-4
1529287597828320,-1,0,-2,-3,3,-4,0,4
1529287597844279,-6,3,-2,-2,-3,-2,-6,0
1529287597844279,4,-3,-3,8,-3,-6,-7,-2
1529287597859237,0,-3,4,2,-7,0,-2,-1
1529287597859237,3,-4,2,0,2,8,1,1
1529287597866218,-1,1,4,-2,1,8,3,-3
1529287597866218,0,0,-2,3,1,-1,3,-3
1529287597881179,-5,-3,-1,-1,2,-4,-1,-1
1529287597881179,-3,1,-2,-8,3,-6,-4,-4
1529287597889157,-3,-5,-2,-7,1,-8,-4,-2
1529287597889157,1,3,0,-6,-4,1,0,-3
1529287597911099,2,-2,0,6,-6,0,1,-1
1529287597911099,1,-2,-3,6,0,10,-4,1
1529287597918079,1,-3,0,-1,-6,6,2,0
1529287597918079,0,0,0,1,-2,-1,-1,6
1529287597941021,1,-3,2,7,4,-2,-1,-3
1529287597941021,-6,0,-1,0,4,-5,-2,-6
1529287597955980,-1,1,-1,1,9,0,0,-2
1529287597955980,3,3,0,-1,5,-4,-6,0
1529287597962960,-2,-2,-2,-9,2,-3,-1,-4
1529287597962960,0,-4,-3,-9,0,-7,6,-3
1529287597970939,-1,-1,-4,-8,-5,-7,4,-2
1529287597970939,-1,-1,-1,-1,3,1,0,-2
1529287597977920,0,-2,0,5,3,8,-1,7
1529287597977920,-8,-6,2,-1,-8,11,-3,-6
1529287597994876,0,0,-1,-1,-5,-13,-4,0
1529287597994876,4,4,-7,-3,4,-1,-5,-4
1529287598022800,-1,-2,7,11,3,2,-3,-5
1529287598022800,0,-3,6,6,-2,1,3,3
1529287598030825,2,-1,7,5,8,3,1,4
1529287598030825,-4,0,4,-2,2,0,-1,-4
1529287598037783,-3,0,3,-9,-1,-4,-7,-2
1529287598037783,-3,-4,-4,-6,-3,2,-5,-8
1529287598045772,0,-1,-9,0,-2,-4,6,-1
1529287598045772,-3,-2,-6,-2,4,-11,4,-1
1529287598060700,-3,-2,1,3,-7,3,2,0
1529287598060700,2,4,5,13,5,-7,-1,2
1529287598075660,-3,-4,-10,-8,4,-7,-1,0
1529287598075660,-2,-4,3,-8,-4,-2,-5,-4
1529287598083647,-1,-2,0,-8,-6,-1,-1,-5
1529287598083647,-3,-5,-6,-7,-1,11,7,-2
1529287598098630,0,2,-3,2,-1,-3,-5,-2
1529287598098630,-2,0,-8,-13,2,2,-7,-5
1529287598105610,-3,-1,1,-5,7,2,-5,1
1529287598105610,-2,-1,5,-4,-2,-5,-11,-4
1529287598120573,-6,0,3,6,-6,-8,-5,-7
1529287598120573,0,4,2,5,-7,7,12,11
1529287598128517,6,3,-7,-4,-10,-7,-1,-1
1529287598128517,5,2,-6,-10,3,9,4,3
1529287598143478,5,-2,-6,0,-2,3,4,-2
1529287598143478,-2,-4,0,16,2,-19,-16,-12
1529287598150499,-4,0,-3,4,9,24,18,10
1529287598150499,3,4,0,-10,-10,-6,-2,5
1529287598165419,-8,3,3,3,5,10,6,-1
1529287598165419,-1,-3,-3,-7,-8,-17,-7,-5
1529287598188358,2,-3,2,5,-1,6,8,2
1529287598188358,4,-2,-2,1,-3,-5,8,9
1529287598195378,-3,1,-8,3,5,-12,-3,0
1529287598195378,-6,4,-12,-3,-4,-9,-7,-4
1529287598210299,-3,1,-1,-6,-7,-7,-11,-6
1529287598210299,0,-1,3,2,2,3,3,0
1529287598218312,2,1,8,0,-1,-3,0,-1
1529287598218312,-6,-2,2,-5,-13,-4,5,-3
1529287598233240,-4,-3,-4,1,-1,-5,-9,0
1529287598233240,4,8,4,3,7,18,5,8
1529287598240219,-7,-4,-3,-7,-1,-3,3,-4
1529287598240219,-3,-8,-12,-15,-6,-3,2,-5
1529287598248197,4,0,0,2,7,-13,-6,-2
1529287598248197,3,0,0,12,13,7,5,1
1529287598263158,2,-4,4,-5,-7,-8,6,1
1529287598263158,1,-3,2,0,9,1,0,2
1529287598271136,-7,-2,-3,-6,-6,-4,-8,-2
1529287598271136,-1,1,-5,2,0,6,-1,-3
1529287598293078,4,1,4,10,6,13,0,1
1529287598293078,4,-4,-5,-6,-6,-1,-5,-4
1529287598308072,0,3,2,7,7,10,13,10
1529287598308072,-8,3,7,2,14,12,4,1
1529287598316017,-6,-2,-2,-5,-3,-2,0,0
1529287598316017,2,0,5,3,-2,3,7,6
1529287598330976,4,0,-1,2,-7,-11,-6,-4
1529287598330976,-6,-6,-6,-7,-15,-20,-17,-9
1529287598337957,3,2,4,-3,0,9,7,1
1529287598337957,3,1,-1,-3,6,11,1,1
1529287598345938,-7,-1,-5,-9,-16,-5,-6,-9
1529287598345938,-4,-4,-4,5,6,6,2,3
1529287598360933,5,-1,-6,-15,-1,-2,0,1
1529287598360933,2,-1,5,8,-3,-5,-3,1
1529287598367878,4,3,8,13,-6,7,3,4
1529287598367878,-6,2,-2,4,3,3,-1,-2
1529287598382837,-9,0,-7,-7,2,4,-2,-2
1529287598382837,-9,-1,-15,-25,-15,-18,-11,-3
1529287598390852,-5,-1,-5,-9,3,5,4,1
1529287598390852,8,0,6,6,-2,2,0,2
1529287598397797,-1,-4,0,-3,-7,-9,-9,-5
1529287598397797,3,-1,5,5,4,16,11,-3
1529287598405778,7,-6,0,2,9,9,2,2
1529287598405778,0,0,1,0,-5,0,-5,1
1529287598420782,2,4,5,10,8,-3,-1,-6
1529287598420782,2,-2,-7,-4,-3,-8,-1,2
1529287598427764,0,2,1,12,1,-12,-3,1
1529287598427764,-7,1,-4,-5,8,3,1,1
1529287598443674,-5,-5,-2,4,-2,-2,1,2
1529287598443674,-11,-4,-2,-5,-10,2,1,-6
1529287598450656,0,-3,-4,-14,-6,6,2,2
1529287598450656,2,0,1,-1,-1,0,-1,2
1529287598458823,2,4,0,-1,-4,-2,-2,4
1529287598458823,5,-1,-6,-8,-9,-13,-3,-2
1529287598465729,0,-6,-6,2,-11,-11,-9,-9
1529287598465729,-2,-2,4,2,8,3,13,-3
1529287598480690,0,0,0,-6,10,5,4,1
1529287598480690,-4,1,3,6,3,-3,-6,-3
1529287598488667,-5,-1,-9,-10,8,8,2,1
1529287598488667,2,-1,2,10,3,-6,-6,-3
1529287598503630,-3,-3,-5,-1,-8,-3,-3,-3
1529287598503630,5,0,3,5,-9,4,2,3
1529287598518917,-1,-6,0,0,-13,-8,-3,2
1529287598518917,-2,-4,-2,-4,-11,-3,-4,0
1529287598525884,0,1,3,5,-2,-1,-5,1
1529287598525884,1,7,5,1,1,2,-2,0
1529287598533837,-4,3,2,3,12,5,0,-4
1529287598533837,-6,-2,-8,-12,0,1,4,0
1529287598548654,-4,-2,-3,4,7,0,-4,-1
1529287598548654,-6,-8,-6,-5,5,2,-1,-1
1529287598555793,1,-4,-3,-4,-5,-11,1,3
1529287598555793,-3,-1,-1,-3,-3,-7,-4,-3
1529287598570595,-6,-2,-1,-6,0,-3,-1,-5
1529287598570595,-3,-6,-9,-4,1,-1,-2,-5
1529287598578572,7,6,-1,3,-3,7,0,0
1529287598578572,-2,6,1,10,3,-1,12,4
1529287598585830,9,2,-5,-12,-3,-2,6,12
1529287598585830,-10,-5,2,5,5,0,-1,-10
1529287598600691,-5,-1,-5,-11,1,6,0,-4
1529287598600691,-5,1,9,-5,-4,5,-15,-7
1529287598608670,-2,-1,-6,8,-8,5,2,4
1529287598608670,1,0,-3,-1,-5,-2,0,3
1529287598623845,0,-4,-2,4,-3,-5,5,4
1529287598623845,-2,1,-5,0,2,-9,-6,0
1529287598630830,-5,2,0,2,-2,-7,-4,0
1529287598630830,-9,-5,-4,-3,2,-4,-4,-2
1529287598638629,-4,-7,-3,-4,3,-6,0,0
1529287598638629,-1,-10,-2,-9,1,7,3,-1
1529287598645644,3,0,-4,-9,-1,-1,-8,-9
1529287598645644,-3,3,3,1,-6,1,0,-5
1529287598660571,10,4,3,5,-1,-1,2,10
1529287598660571,-17,-2,-4,8,-1,-11,-5,-13
1529287598668728,-40,-21,-23,-19,-10,-5,-2,-19
1529287598668728,37,20,15,30,13,-2,-4,19
1529287598683693,3,5,15,11,14,15,18,16
1529287598683693,21,6,9,-5,1,4,7,10
1529287598690881,-12,-9,3,-4,-9,-3,-2,-4
1529287598690881,-21,-12,-11,-18,-10,-5,-8,-17
1529287598698687,-4,-3,-5,-2,-3,-1,-7,-5
1529287598698687,4,0,-2,5,4,2,-2,0
1529287598705668,0,-3,-5,-6,-3,-7,1,-3
1529287598705668,-7,-12,-12,-14,-7,-5,0,-4
1529287598720814,5,3,6,13,3,-4,-2,-2
1529287598720814,-11,5,4,0,-4,-9,-4,-7
1529287598729011,12,9,2,-3,1,5,3,1
1529287598729011,6,5,-8,-14,-15,-2,-7,6
1529287598743979,-13,0,-5,5,-8,5,-1,-7
1529287598743979,-1,-3,1,-1,-1,1,-4,-2
1529287598751125,-3,-2,3,-2,2,1,10,3
1529287598751125,6,0,2,-3,5,-1,8,5
1529287598758106,-3,-8,-8,-13,-8,-7,-8,-7
1529287598758106,-3,0,2,11,7,1,-5,-5
1529287598766089,6,3,6,7,-3,-1,-2,7
1529287598766089,1,-5,-3,4,-6,-6,-1,-1
1529287598781214,-5,-8,-6,-2,-5,-7,-12,-12
1529287598781214,4,-4,-12,-8,-11,8,9,8
1529287598788929,-10,-4,0,2,6,7,-13,-20
1529287598788929,-16,3,-2,-4,-8,-6,-13,-21
1529287598803852,11,-1,6,3,8,4,4,7
1529287598803852,8,2,-1,3,-1,-8,3,19
1529287598810968,12,1,4,4,2,-5,-1,15
1529287598810968,-4,-7,-3,3,6,0,-6,-2
1529287598818172,5,4,-1,-2,3,-2,3,-2
1529287598818172,-1,1,10,3,5,4,4,-7
1529287598825966,6,2,-3,2,7,5,7,0
1529287598825966,0,1,-4,-5,2,1,1,-7
1529287598840924,-14,-6,-10,-7,-4,0,-2,-4
1529287598840924,0,-5,-12,-17,-2,3,2,1
1529287598848088,0,7,15,21,3,-7,-13,0
1529287598848088,-8,-4,1,1,1,3,-4,4
1529287598863892,-9,-4,-2,-7,-6,3,3,2
1529287598863892,0,0,-12,-18,-7,-11,-14,-10
1529287598870848,-5,-5,-7,-13,3,0,16,8
1529287598870848,9,0,5,15,10,0,7,3
1529287598878824,1,0,19,26,12,-5,0,6
1529287598878824,1,-1,4,-2,-3,1,3,1
1529287598885808,-3,1,3,-5,-11,-3,-4,-4
1529287598885808,-6,-4,-5,-10,-11,-3,-3,-10
1529287598901332,6,0,-12,-18,-15,-7,-4,7
1529287598901332,8,7,-4,10,6,5,7,10
1529287598908129,-4,1,-3,5,3,-5,-12,-15
1529287598908129,-6,2,5,-2,1,7,2,0
1529287598923092,-23,-10,-8,-19,-13,-6,-11,-27
1529287598923092,1,-5,0,1,-8,-6,-2,-1
1529287598931110,7,0,-2,-2,-3,-5,-3,4
1529287598931110,5,-4,6,13,7,0,-1,0
1529287598938099,9,0,6,5,7,7,4,9
1529287598938099,5,-9,-5,0,1,10,10,11
1529287598946083,-12,-4,1,1,-1,6,-1,-3
1529287598946083,-2,-4,-13,-16,-5,-5,-9,7
1529287598961035,-6,2,-8,-14,-2,-5,10,-7
1529287598961035,-4,1,9,17,3,-3,-3,3
1529287598968025,9,2,-1,-6,-9,0,2,5
1529287598968025,-5,1,-5,-12,-5,-3,-7,-13
1529287598982929,-1,6,5,15,12,7,1,2
1529287598982929,0,-1,-8,-13,2,-1,-7,-9
1529287598990908,-7,-7,-6,-9,1,-1,-3,-12
1529287598990908,13,5,15,17,4,2,8,13
1529287598997889,-9,-4,-5,-7,-6,-2,-2,-10
1529287598997889,0,0,4,6,-3,-4,2,1
1529287599012849,5,-1,-4,-2,1,0,-1,3
1529287599012849,-11,-10,-10,-2,-4,-5,0,-8
1529287599020827,7,0,2,-1,4,0,-3,7
1529287599020827,-2,1,-9,-31,-25,-12,-16,-7
1529287599035788,-19,1,27,54,31,13,2,1
1529287599035788,-14,1,-3,-1,3,2,1,-3
1529287599042769,1,4,-11,-5,-6,-1,2,-7
1529287599042769,-10,-8,-8,-8,3,6,2,-6
1529287599058726,18,11,-8,-21,-17,-7,3,8
1529287599058726,12,0,12,22,10,-1,-1,2
1529287599065710,-12,-16,-19,-2,-5,-7,-4,-2
1529287599065710,-1,6,9,-6,-15,-12,-5,-6
1529287599080669,12,-1,3,-13,-3,3,-3,-2
1529287599080669,0,-1,-3,0,4,5,1,7
1529287599095629,-3,0,3,7,0,-3,-2,-12
1529287599095629,8,-1,-12,-12,-7,-1,4,9
1529287599103608,-3,0,8,12,2,3,0,-4
1529287599103608,-4,-2,-6,-7,3,3,1,0
1529287599118568,1,-6,-7,-11,-9,2,1,3
1529287599118568,2,2,3,0,-8,0,-3,-11
1529287599125549,-8,-11,-12,-20,-9,-11,-15,-5
1529287599125549,5,10,14,27,23,10,9,4
1529287599148488,-11,-3,-5,-2,-7,-4,-2,-7
1529287599148488,4,-5,1,12,4,3,6,17
1529287599178408,13,0,-6,-12,-3,5,2,7
1529287599178408,2,5,8,8,5,-2,-4,-4
1529287599185390,-11,-6,8,1,-2,-5,-2,-11
1529287599185390,-10,-5,-6,0,-6,-12,-5,-9
1529287599200350,-13,-8,-7,-4,-1,-17,-4,-9
1529287599200350,3,3,0,1,6,0,7,16
1529287599208328,-1,3,2,6,2,-1,-7,-8
1529287599208328,-6,-5,-3,-10,-3,1,-4,-13
1529287599215309,12,7,9,16,8,9,13,18
1529287599215309,-14,-3,1,3,-4,-5,1,-5
1529287599230269,11,0,-6,-3,-12,-3,-1,0
1529287599230269,3,3,2,14,3,4,1,1
1529287599253209,3,5,3,3,-2,-3,-5,-1
1529287599253209,-10,-7,-4,-15,-8,0,-3,-8
1529287599268167,-3,1,0,-1,7,1,-1,5
1529287599268167,2,0,6,-1,0,-5,-6,-1
1529287599283300,1,5,0,-14,0,0,1,3
1529287599283300,-1,4,2,5,8,-3,-3,-7
1529287599298664,3,2,-2,-7,1,-6,-1,3
1529287599298664,-1,0,-1,-8,-3,3,1,0
1529287599321496,11,4,-1,1,8,-1,1,11
1529287599321496,2,0,-2,8,6,-10,-7,-3
1529287599335602,4,3,-2,5,-7,0,-4,-1
1529287599335602,9,0,-7,-3,-3,5,6,2
1529287599358214,-12,-3,2,-3,6,7,-7,-11
1529287599358214,-11,-1,3,-6,-5,2,-4,-3
1529287599366191,1,1,1,-10,1,0,-1,3
1529287599366191,-7,-4,-1,4,3,-3,-3,-5
1529287599373208,-2,6,-4,-9,-7,-5,-4,-5
1529287599373208,-6,1,6,6,1,7,-3,1
1529287599388428,-5,-13,-17,-7,-13,0,0,-5
1529287599388428,5,1,-3,-11,2,5,3,0
1529287599403538,-4,-10,-21,-4,8,1,-3,-1
1529287599403538,-5,0,11,-3,-3,-5,-8,-4
1529287599418497,-10,-16,-43,-32,-15,-12,-12,-9
1529287599418497,1,26,41,3,-2,-5,-7,-5
1529287599425478,1,4,15,15,3,3,7,6
1529287599425478,4,-11,-12,-4,-6,-4,1,-1
1529287599441358,-3,0,-7,-6,1,2,-2,-6
1529287599441358,1,-10,-10,-5,-7,-3,-3,0
1529287599455870,-3,12,1,-4,-9,-6,-2,1
1529287599455870,11,27,10,8,-1,1,3,12
1529287599463683,5,26,47,7,3,-1,2,5
1529287599463683,-14,-5,-8,-8,1,-4,-5,-11
1529287599478672,0,-10,-9,-19,4,4,4,4
1529287599478672,10,-27,-28,4,4,10,4,7
1529287599485624,-4,6,-1,2,-8,-2,-14,-15
1529287599485624,4,3,6,22,3,6,9,16
1529287599501004,8,-11,4,28,11,6,8,4
1529287599501004,-10,0,3,14,5,1,7,-20
1529287599516004,25,23,29,31,7,7,12,23
1529287599516004,4,-7,-9,-18,-2,4,12,11
1529287599523391,-4,-16,-12,-18,-4,-9,-4,-4
1529287599523391,2,-3,-2,7,2,-11,-12,-6
1529287599545375,-8,13,20,16,6,2,-7,-6
1529287599545375,-19,-18,-17,18,6,2,-8,-7
1529287599553353,4,2,-2,-8,-2,-3,-1,4
1529287599553353,1,7,4,-6,2,10,3,-5
1529287599575449,-6,-7,-8,-6,-4,-3,0,-3
1529287599575449,-1,-1,-1,-7,-4,0,-2,9
1529287599591293,2,1,10,2,-5,-1,-1,0
1529287599591293,-4,-1,-1,0,-5,-3,4,-1
1529287599598387,-3,4,-1,1,-1,-5,2,-1
1529287599598387,0,6,-2,-3,-7,-1,-6,0
1529287599613348,2,-1,0,-7,-7,-4,4,-2
1529287599613348,2,-11,-18,-3,2,-3,0,-3
1529287599628334,-2,-4,0,4,4,1,2,-1
1529287599628334,1,6,7,-1,0,-2,4,3
1529287599643112,-2,-5,-6,1,1,10,-2,4
1529287599643112,-6,1,-2,-3,-2,-3,-5,-5
1529287599658073,-2,-1,4,2,-1,-5,0,-6
1529287599658073,-1,-7,-8,1,-4,-9,-8,-3
1529287599666193,0,-6,-7,1,5,3,-3,1
1529287599666193,5,8,11,-5,-2,4,-2,4
1529287599681193,-4,-4,-6,-13,-11,0,-1,-6
1529287599681193,3,2,-4,-5,-7,-5,-6,-2
1529287599696507,-3,0,-5,-12,-13,-10,-6,-1
1529287599696507,0,8,3,23,30,12,2,3
1529287599703173,-5,-1,-2,5,12,1,-1,-2
1529287599703173,1,-5,0,3,5,-5,-1,-3
1529287599718313,2,-6,4,1,-4,-4,5,0
1529287599718313,-3,-6,-9,-13,-12,-10,-5,-4
1529287599726127,-3,1,3,0,-1,-2,2,-4
1529287599726127,0,-3,-1,1,-2,-5,3,-4
1529287599741242,1,1,0,-3,-13,-1,-5,4
1529287599741242,2,2,-8,-7,4,6,-8,-1
1529287599756031,-6,-2,-5,-1,1,1,-3,-3
1529287599756031,-4,-2,1,2,5,0,3,3
1529287599763016,-5,-5,-6,-17,-5,-13,-3,-4
1529287599763016,-3,-3,5,0,-5,-4,0,-3
1529287599779040,-2,-2,-1,7,6,11,2,-1
1529287599779040,-6,-2,-1,-8,-13,-7,-5,-4
1529287599786266,3,-19,-27,2,3,4,3,6
1529287599786266,2,26,25,11,4,1,5,4
1529287599801350,4,-8,4,-3,0,-6,0,0
1529287599801350,7,-9,-15,-6,-8,-7,0,-2
1529287599816496,4,-7,-5,2,-9,-7,3,-3
1529287599816496,-2,6,1,3,-3,-6,4,-3
1529287599823446,-4,4,4,5,3,-1,-4,-4
1529287599823446,-11,-8,-7,1,0,0,-9,0
1529287599838550,3,0,-3,2,-2,1,-3,3
1529287599838550,3,1,-3,-9,-5,4,-5,2
1529287599846471,-3,1,6,-2,-3,-3,-4,0
1529287599846471,-7,0,-7,-8,-1,-3,0,-2
1529287599861219,0,-3,-11,3,10,2,2,5
1529287599861219,3,4,12,-2,-8,-4,3,2
1529287599868173,8,7,8,0,-5,-1,4,3
1529287599868173,1,-2,-5,-1,-2,1,1,-1
1529287599891158,-2,4,4,3,3,4,-7,-2
1529287599891158,2,1,5,-9,2,-2,-5,0
1529287599906251,-1,-12,-8,-9,3,1,0,-3
1529287599906251,3,5,8,-3,-4,-1,-4,-3
1529287599913232,-2,-2,-5,-4,-11,-4,-4,-3
1529287599913232,-5,-7,-7,-1,-7,-1,2,1
1529287599928581,-3,6,1,0,0,1,0,1
1529287599928581,-1,-2,-4,1,0,-5,1,-3
1529287599935212,3,-3,2,3,1,-2,5,-2
1529287599935212,4,-4,-1,-2,-3,-3,-5,-3
1529287599943190,-3,9,0,-1,-1,-2,0,-2
1529287599943190,-9,-15,-14,-6,3,1,2,-6
1529287599958151,0,9,24,2,-8,4,-5,0
1529287599958151,-3,-1,-3,1,-5,7,-7,-1
1529287599966156,0,4,9,5,1,5,2,-2
1529287599966156,0,2,-8,2,-3,-4,1,-1
1529287599981114,-2,-2,-12,-8,-1,-8,-7,-2
1529287599981114,2,2,2,-2,4,-6,-3,3
1529287599988106,-1,-3,-11,-4,4,-2,-3,-5
1529287599988106,2,0,4,2,-1,-5,-3,-1
1529287600003058,-3,-1,7,-4,-2,0,1,0
1529287600003058,2,0,-4,-3,1,-2,3,-2
1529287600017992,-1,-4,-2,-1,0,-5,-2,2
1529287600017992,-2,4,-1,3,2,2,1,-1
1529287600025969,-1,2,-2,-1,-6,1,-1,2
1529287600025969,-1,0,10,3,-3,2,-3,1
1529287600040930,2,-2,-10,-3,-8,-4,-6,-3
1529287600040930,2,-3,6,-4,1,-2,0,-2
1529287600047910,-2,-8,-5,3,0,0,0,0
1529287600047910,0,6,3,1,2,-2,2,0
1529287600062872,0,0,2,-1,2,4,-1,2
1529287600062872,-8,-13,-9,-3,1,2,-5,-1
1529287600077833,0,-4,-9,-6,-2,-1,-2,-3
1529287600077833,-1,0,11,-4,-4,0,-3,-4
1529287600085810,-2,-7,-1,-2,1,-3,4,1
1529287600085810,1,1,-1,8,-2,6,5,0
1529287600101131,1,3,-1,8,5,4,0,1
1529287600101131,-1,-1,-5,-1,0,-5,-1,-3
1529287600108368,-2,-3,-3,-6,-1,0,-7,-2
1529287600108368,-3,2,3,-10,-5,2,-3,-1
1529287600131312,-1,2,1,-1,6,-3,-3,3
1529287600131312,4,6,4,2,-5,-10,-2,1
1529287600146266,-5,0,4,-1,0,-1,-2,-2
1529287600146266,-4,1,-2,-1,-7,-6,2,-2
1529287600153075,-1,-5,1,3,-10,-9,0,-5
1529287600153075,-2,-6,-10,7,21,6,2,-4
1529287600168035,2,6,17,4,-2,-3,-3,-2
1529287600168035,-3,2,-3,1,-4,2,0,4
1529287600176011,2,5,-1,-8,-6,-1,-2,0
1529287600176011,1,-3,-3,-1,4,6,5,2
1529287600182996,-1,-2,0,4,-3,-2,-3,-5
1529287600182996,-3,3,-3,1,-5,-8,-12,-2
1529287600198131,-2,-4,-8,-3,0,-8,-6,1
1529287600198131,0,-6,0,0,3,-5,-4,2
1529287600206290,0,6,-3,-1,6,1,2,-2
1529287600206290,3,-1,-2,0,-4,1,3,5
1529287600221278,-4,-2,-2,-1,-5,2,2,-4
1529287600221278,-2,-3,-4,1,-2,-11,-5,-1
1529287600228235,-7,-6,-1,2,6,-5,0,-6
1529287600228235,-2,-5,2,-5,1,-6,0,-2
1529287600243222,1,3,-1,1,-1,9,1,3
1529287600243222,-6,0,2,-1,-9,4,-6,0
1529287600258671,-2,1,-2,-3,-6,-1,-4,0
1529287600258671,1,-2,0,-3,-12,-3,-4,5
1529287600265356,8,3,-1,-2,-11,-5,0,8
1529287600265356,-2,1,-4,-3,-4,-3,-1,2
1529287600281326,1,-3,-2,1,7,-1,0,1
1529287600281326,0,0,-4,3,9,-2,2,-1
1529287600288298,-6,-4,-5,0,1,-4,-8,-12
1529287600288298,-2,-4,-1,-3,-7,-2,-2,-8
1529287600303541,0,-2,1,-5,-4,1,4,2
1529287600303541,2,-1,0,-3,2,-1,0,2
1529287600318397,-3,0,0,3,5,-2,-4,2
1529287600318397,0,-2,-2,4,-1,-1,-8,-3
1529287600325380,0,0,-5,1,5,-3,-3,-3
1529287600325380,1,-3,-3,-3,3,-1,9,-4
1529287600341309,2,-3,2,-4,-1,1,7,1
1529287600341309,-1,-4,-5,-5,-2,0,2,2
1529287600348315,-7,-2,-2,-2,-4,4,3,-1
1529287600348315,-1,4,4,2,-10,-4,-5,1
1529287600363395,-3,-3,-3,2,-8,-6,1,-3
1529287600363395,-3,-1,0,6,-4,-8,-4,-1
1529287600371076,-1,0,-1,-2,0,1,-4,1
1529287600371076,5,1,-1,1,6,4,-4,-3
1529287600386217,-2,-9,2,-4,2,-7,0,-3
1529287600386217,-4,-3,4,-1,2,-7,-1,-2
1529287600408704,-5,3,-2,1,0,-3,1,1
1529287600408704,1,2,-5,4,0,2,1,2
1529287600415517,3,3,-3,8,-6,5,-3,1
1529287600415517,-1,-1,-4,3,1,2,-2,-1
1529287600430797,-3,1,0,-8,-1,-1,-2,-6
1529287600430797,-5,0,3,-6,3,1,-3,0
1529287600438853,-1,0,-2,-6,-3,-2,-5,0
1529287600438853,-2,-1,-1,-4,-13,-8,-8,0
1529287600453804,2,1,3,-2,0,4,4,-1
1529287600453804,-1,-3,-2,0,3,5,2,-3
1529287600468601,-1,-2,0,-1,3,-2,-4,-3
1529287600468601,0,-1,3,-3,1,-2,-2,3
1529287600483871,-1,-1,-3,-5,-3,-10,-1,-2
1529287600483871,3,-3,-1,1,-8,-5,1,1
1529287600498518,7,0,2,7,-6,-2,-4,0
1529287600498518,1,0,1,-2,0,0,3,0
1529287600505501,-1,0,-2,-7,5,-1,3,-1
1529287600505501,-1,1,-3,-4,-3,1,-4,1
1529287600520851,1,-3,-4,2,-1,2,-3,1
1529287600520851,-3,0,0,2,-2,0,-3,0
1529287600528933,-5,-2,1,-2,1,5,0,-2
1529287600528933,-9,-6,0,-2,1,5,3,-5
1529287600542857,3,-1,4,4,-1,-8,0,0
1529287600542857,2,2,-5,0,6,-1,1,-3
1529287600558813,-1,-2,-2,1,5,3,0,-6
1529287600558813,0,-1,-2,-5,-5,-2,-9,-4
1529287600565798,-3,-2,-3,-6,-6,1,-8,0
1529287600565798,-2,-1,-3,-6,-1,-3,-4,-1
1529287600581401,-4,3,-3,-6,-5,-2,1,0
1529287600581401,-3,3,0,-3,-9,-6,1,-2
1529287600588565,-1,-1,2,4,-4,-2,2,2
1529287600588565,0,-1,3,-3,-3,-1,-4,2
1529287600603737,-1,-3,-8,5,4,-1,-1,-1
1529287600603737,-1,-3,-4,1,2,0,3,-5
1529287600618697,-2,-3,-4,1,2,3,2,-3
1529287600618697,-1,-4,2,1,-1,4,-4,1
1529287600625586,1,-2,7,3,-4,0,-2,-4
1529287600625586,3,-2,4,1,-1,3,2,-3
1529287600640644,-3,-5,0,-7,-7,4,4,-2
1529287600640644,-2,0,-4,-7,-4,-7,-1,-3
1529287600648438,-4,-1,-4,-6,-4,-5,-5,-1
1529287600648438,-2,1,-5,-2,0,-10,-3,1
1529287600663569,-1,0,-3,-4,-3,-10,0,-1
1529287600663569,0,-3,-3,0,2,2,-1,0
1529287600671405,0,-1,-2,1,1,2,1,1
1529287600671405,-3,1,-1,-1,-2,1,-1,1
1529287600693318,-1,1,-5,0,-3,4,3,-2
1529287600693318,1,1,-5,1,1,6,1,3
1529287600708554,3,-2,3,1,5,3,1,0
1529287600708554,3,2,7,-2,1,-4,2,0
1529287600716380,-2,0,6,-3,1,-6,-3,1
1529287600716380,-5,-4,7,-1,-1,-4,-1,-3
1529287600731379,0,-4,-8,-3,-2,0,2,-4
1529287600731379,0,-2,-6,1,-2,0,-3,2
1529287600746180,0,2,-2,2,-1,-1,5,-2
1529287600746180,0,-1,2,3,-4,-2,3,0
1529287600761139,-6,-3,0,0,-5,-2,2,-1
1529287600761139,-1,1,-4,-4,-2,3,-3,1
1529287600768123,-1,-3,-2,2,2,2,-2,-5
1529287600768123,2,-1,0,0,3,-2,-3,-4
1529287600783259,-6,-3,-1,0,-3,-5,0,-1
1529287600783259,-4,4,1,3,-2,-1,0,-4
1529287600798212,1,2,3,-1,2,-2,-2,0
1529287600798212,2,0,0,-3,6,-2,-3,2
1529287600806192,1,-1,0,-7,6,0,-4,3
1529287600806192,2,-6,-4,-6,0,1,-3,-4
1529287600821162,1,2,-4,-5,-4,4,-3,-1
1529287600821162,1,2,-4,1,-4,1,-1,0
1529287600828138,-1,0,-3,1,-7,3,-1,2
1529287600828138,-5,-2,-1,-4,-8,-2,1,0
1529287600843140,-4,-4,-3,-1,-8,-6,4,-3
1529287600843140,-3,-1,-2,2,-1,-2,1,-4
1529287600851410,-2,1,3,-1,-1,0,2,-3
1529287600851410,-3,2,0,-9,1,4,0,-1
1529287600866603,6,1,-2,5,-1,-4,-4,1
1529287600866603,4,-1,-8,7,-3,1,0,2
1529287600880571,-4,-1,-3,7,3,-3,4,2
1529287600880571,-4,-2,3,-1,5,4,0,-2
1529287600888784,-3,-5,3,-1,5,-1,-1,2
1529287600888784,-5,2,2,-2,1,-7,-3,3
1529287600903730,-2,-1,-1,-2,-5,-1,2,-1
1529287600903730,-3,2,-6,-5,3,2,3,0
1529287600910570,-4,-3,1,-7,0,3,-1,-1
1529287600910570,1,-3,-1,-6,0,-1,-3,0
1529287600925557,4,2,2,2,-2,-9,2,-1
1529287600925557,1,-7,-1,-3,-3,-3,-3,1
1529287600940896,2,-4,-1,-5,-3,2,-6,-5
1529287600940896,2,3,-1,-4,-3,6,-8,-3
1529287600948718,-2,3,-4,-6,0,8,2,-4
1529287600948718,1,4,-1,5,4,0,7,-3
1529287600970816,-2,-2,-5,4,-3,-4,5,-1
1529287600970816,0,-3,2,1,-5,-3,-2,0
1529287600978794,-2,-3,0,-6,-5,-4,-1,2
1529287600978794,3,-2,3,-2,0,1,-3,0
1529287601000992,-1,2,-3,5,0,-3,-6,-2
1529287601000992,-1,1,1,-2,-3,3,1,0
1529287601016126,-2,-2,3,-4,-1,4,2,1
1529287601016126,-5,-2,-3,-10,-2,9,2,1
1529287601023278,-2,-4,-2,-7,-9,5,1,1
1529287601023278,-5,-3,-3,3,-8,0,-1,-2
1529287601030657,-2,2,4,4,4,-1,0,-1
1529287601030657,-1,-1,0,12,8,1,4,-1
1529287601038390,1,-2,-6,3,9,0,-4,-5
1529287601038390,-2,1,-4,-5,5,-1,-3,-3
1529287601046223,-1,-2,4,7,-5,-6,1,-1
1529287601046223,-1,0,-2,2,-5,-13,-2,2
1529287601061099,2,4,-11,-4,-1,-10,-4,4
1529287601061099,3,1,-4,-2,-4,-1,2,1
1529287601068930,1,1,0,-4,-8,0,0,-4
1529287601068930,-3,-3,0,-11,-8,-4,-3,-10
