timestamp,emg1,emg2,emg3,emg4,emg5,emg6,emg7,emg8
1528281035980965,-3,-1,-2,0,3,1,-3,-1
1528281035980965,-3,-1,-5,-2,-2,0,-2,-2
1528281035986951,-2,-1,-4,-3,-4,-5,-5,-3
1528281035986951,2,-2,-3,-2,0,1,-3,-2
1528281035987947,3,0,1,2,1,8,4,0
1528281035987947,0,-1,0,0,4,1,1,-1
1528281035997920,2,-2,0,-2,-8,-6,-1,-1
1528281035997920,-4,-2,-3,0,2,-1,0,-1
1528281036001909,-2,2,1,-1,-6,-4,-1,2
1528281036001909,-1,-3,-1,2,11,4,3,3
1528281036008892,-1,2,-3,-2,-4,0,1,0
1528281036008892,0,2,-1,-1,-8,-8,-2,-1
1528281036022854,-2,-2,-1,0,0,-2,-3,-3
1528281036022854,-1,2,1,-2,-7,-5,-2,-3
1528281036035821,-1,-3,0,-1,4,4,0,0
1528281036035821,-1,-2,0,1,-3,-3,-3,1
1528281036047787,-1,-2,-2,-1,2,0,3,-2
1528281036047787,-3,0,0,-1,-3,-2,-4,0
1528281036054768,-2,-4,-1,-3,-5,-6,-2,-2
1528281036054768,1,-1,-2,-2,-2,9,0,0
1528281036067734,0,-2,-3,-1,4,1,2,-1
1528281036067734,-2,-1,-3,-1,0,4,-1,-1
1528281036121588,0,3,-1,0,-3,-5,0,0
1528281036121588,0,3,1,-2,-3,1,0,-3
1528281036121588,-2,-2,-3,-2,-2,-7,-4,-12
1528281036121588,-3,-3,-3,-4,-7,-9,-2,0
1528281036121588,3,5,1,2,13,19,2,-1
1528281036121588,-3,5,-1,3,7,-1,-5,-5
1528281036121588,-2,-9,-2,0,-5,1,2,6
1528281036121588,0,-2,-1,-2,-3,-10,-3,-4
1528281036121588,-3,-6,-4,-4,-11,-10,-2,4
1528281036121588,0,-2,-2,-1,1,14,6,3
1528281036128571,0,2,-1,-3,0,-2,1,0
1528281036128571,-4,-3,-3,0,-3,1,0,-2
1528281036135562,-2,-2,4,-2,-7,-15,-4,-3
1528281036135562,0,-5,-3,-1,6,0,-3,-4
1528281036151523,-1,-1,-1,1,5,9,-1,-2
1528281036151523,4,5,2,1,3,9,3,2
1528281036157496,-4,-4,0,-1,0,2,2,-3
1528281036157496,-4,-2,-2,0,-9,-10,-3,-4
1528281036180432,-1,-2,-2,-1,-1,0,-2,2
1528281036180432,1,-1,0,1,0,-12,-6,-1
1528281036181440,-3,-4,-2,-4,-6,-12,-4,-5
1528281036181440,4,2,1,-1,1,24,5,5
1528281036195394,1,3,1,-2,0,-6,5,-3
1528281036195394,0,1,-1,1,4,-1,-1,3
1528281036196391,-2,2,0,2,6,8,1,-6
1528281036196391,-5,-10,-2,-7,-23,-36,-10,0
1528281036218340,-1,5,-1,5,24,24,1,-3
1528281036218340,-1,-2,-2,-2,-7,9,2,-8
1528281036219329,-2,-3,-4,0,0,-8,2,1
1528281036219329,-3,1,1,-2,4,5,6,1
1528281036240272,-1,3,2,-3,-12,-13,-5,0
1528281036240272,-4,3,-3,-2,-1,-6,-6,-5
1528281036241275,-1,-11,0,-3,-3,5,-5,-10
1528281036241275,2,8,-2,-4,-7,-6,-2,-4
1528281036256231,2,-2,-4,-5,-21,-15,-5,6
1528281036256231,-5,-6,-3,2,7,-11,-8,-16
1528281036256231,5,15,-1,-2,3,22,7,10
1528281036256231,-3,-22,-2,1,2,-48,-9,3
1528281036278207,-1,-4,0,-2,-5,40,3,1
1528281036278207,-2,1,-3,-7,-4,7,6,7
1528281036279169,2,3,2,9,24,11,11,9
1528281036279169,-1,2,2,1,-2,10,-1,-7
1528281036301119,-10,-2,-6,-8,-16,-35,-22,-19
1528281036301119,-4,-8,0,-6,-15,5,0,0
1528281036301119,-1,-3,-6,-18,-52,-12,-14,-5
1528281036301119,-3,5,-5,14,66,51,8,1
1528281036315074,-1,-13,1,18,14,-17,4,7
1528281036315074,5,2,0,-4,-9,18,8,14
1528281036323053,-4,-4,-5,8,5,-34,-8,-8
1528281036323053,-1,-6,-6,-31,-26,24,0,-13
1528281036338013,-5,14,2,-3,0,-18,10,-4
1528281036338013,-1,-10,-1,4,10,-14,-6,9
1528281036339008,-3,-8,-8,-10,-21,-28,-13,-18
1528281036339008,-1,-1,-5,-1,-26,-46,-12,-7
1528281036360950,2,-2,-2,-9,-13,21,6,-2
1528281036360950,3,8,5,11,38,17,7,2
1528281036361981,2,0,4,10,17,6,1,10
1528281036361981,1,1,3,17,14,8,4,3
1528281036374967,-3,-4,-3,-19,-10,-5,-6,-4
1528281036374967,-1,2,-3,-6,-33,-26,-4,-1
1528281036382946,-1,-2,-2,-7,1,9,2,0
1528281036382946,-1,-2,2,3,2,3,-3,2
1528281036399845,4,1,3,-4,-10,7,-1,5
1528281036399845,-4,-3,2,7,10,3,-3,-4
1528281036400842,-2,-1,4,10,35,20,8,-2
1528281036400842,1,3,1,-5,-16,2,2,2
1528281036420790,2,0,-1,5,6,0,-1,3
1528281036420790,-3,-5,-7,-6,-9,-12,-3,-7
1528281036421788,3,1,0,-2,-12,-9,-3,0
1528281036421788,-1,1,-4,0,0,-2,2,4
1528281036434759,0,-4,-4,-2,-7,-12,-6,-3
1528281036434759,-1,-3,-3,-1,5,7,2,-2
1528281036450749,-3,-2,-4,-3,-1,5,0,1
1528281036450749,-8,-4,1,-1,-7,1,1,3
1528281036458689,7,5,-2,1,6,-4,-1,1
1528281036458689,-3,0,5,5,0,6,2,-2
1528281036458689,0,0,5,3,13,15,3,5
1528281036458689,-5,-5,-2,-4,-8,-9,-6,-4
1528281036480631,-6,-4,-2,1,4,-5,-6,-10
1528281036480631,12,-9,-1,-5,-4,3,11,10
1528281036481628,5,1,-4,-3,-5,0,-9,-9
1528281036481628,5,1,2,0,2,1,6,2
1528281036494629,-4,-2,-7,-1,1,-4,-9,-3
1528281036494629,-4,1,1,-4,-9,-8,-5,-4
1528281036502608,-1,-2,-1,0,-1,-4,0,1
1528281036502608,-5,1,1,4,12,11,-3,-3
1528281036518528,2,0,1,3,3,8,7,1
1528281036518528,-5,15,-1,-2,3,-1,-5,-5
1528281036525520,-2,-11,-2,-5,-13,-10,2,2
1528281036525520,-4,-3,-4,-4,-8,-10,-8,-16
1528281036540507,1,-4,1,1,5,2,-15,-1
1528281036540507,-1,11,-3,-2,-2,2,43,8
1528281036541467,-5,-10,-8,-5,-3,-4,-3,-3
1528281036541467,2,4,2,2,-1,2,-2,-5
1528281036555455,-3,-2,1,2,4,5,14,6
1528281036555455,2,6,0,-1,-5,-5,-20,-12
1528281036562412,0,5,4,2,8,10,3,0
1528281036562412,4,-4,0,-1,-3,-7,7,12
1528281036578368,-1,2,1,-2,-2,-5,-10,-3
1528281036578368,2,-6,-3,0,4,2,-8,2
1528281036579365,-5,8,-4,0,-1,2,7,2
1528281036579365,4,-6,5,-2,-7,-3,-28,2
1528281036601308,-3,-3,-4,-4,-1,-5,-3,-5
1528281036601308,-3,-4,-5,-2,0,3,-3,-2
1528281036602305,-1,-6,2,-11,-7,-5,0,0
1528281036602305,-4,3,-9,16,5,-1,-4,-4
1528281036615308,-2,-6,9,19,7,1,2,4
1528281036615308,-2,-2,-4,-34,-21,-2,1,7
1528281036622252,6,7,-3,0,-5,-4,-16,-27
1528281036622252,-1,1,-4,-13,-3,-3,10,14
1528281036638209,-6,-8,2,3,2,6,6,-15
1528281036638209,-5,3,-1,12,3,-5,-7,-9
1528281036639207,4,2,-5,-7,-5,-2,-3,35
1528281036639207,1,1,1,-1,-5,-7,6,-4
1528281036661146,-2,1,-9,3,2,-4,-71,17
1528281036661146,-16,-9,3,-1,0,0,22,-49
1528281036661146,-43,-8,-1,-10,-16,-18,-8,-51
1528281036661146,50,33,20,12,12,5,-67,16
1528281036675109,44,7,6,-5,-3,7,68,65
1528281036675109,-47,-23,-14,-7,-11,-24,-81,-78
1528281036683089,-30,-4,0,5,4,8,15,44
1528281036683089,35,5,21,4,3,10,-23,-24
1528281036698077,0,25,-1,13,16,22,125,24
1528281036698077,-43,20,-13,-16,-12,-14,-128,23
1528281036699049,32,-17,11,13,14,11,83,-18
1528281036699049,-53,-19,-3,-13,-12,-15,-41,-38
1528281036720987,-55,-23,4,2,4,-6,9,-52
1528281036720987,41,7,-9,5,6,7,21,17
1528281036721985,-25,-48,5,-1,-14,-22,-58,47
1528281036721985,-10,16,-28,-14,7,23,27,-46
1528281036742996,7,1,5,-2,5,5,-80,-96
1528281036742996,3,14,11,14,10,5,59,36
1528281036743993,21,4,-11,-15,-4,-2,-27,-12
1528281036743993,22,-6,-2,3,-8,-22,-19,-15
1528281036757955,-40,-18,-18,-16,-14,-4,6,47
1528281036757955,11,-3,13,9,-6,-7,11,45
1528281036758953,33,29,-3,1,3,4,-10,-38
1528281036758953,-44,-12,-11,10,31,30,36,11
1528281036788906,2,6,-11,-23,-22,-6,-41,-19
1528281036788906,8,-28,-15,-16,-7,5,17,-5
1528281036789903,-14,-3,0,21,47,25,13,-1
1528281036789903,-5,10,-6,-6,-35,-17,2,7
1528281036803878,9,-3,5,0,-9,-22,-4,-3
1528281036803878,17,19,0,-1,0,5,6,-3
1528281036804861,-17,-4,-13,-2,15,13,-13,-34
1528281036804861,5,-9,6,7,7,18,25,21
1528281036817795,12,4,2,-5,-18,-26,-13,12
1528281036817795,-9,-14,0,6,32,9,7,-22
1528281036818793,10,15,10,4,-7,0,-10,9
1528281036818793,-6,-11,-5,-12,-44,-27,10,11
1528281036840797,-5,-8,-8,-13,7,2,-4,-6
1528281036840797,5,4,10,4,-1,5,4,-6
1528281036841788,-7,-2,-2,-7,-6,-3,-1,-5
1528281036841788,5,2,7,6,7,-3,5,7
1528281036864692,-4,-4,-1,-8,-26,-11,-12,-7
1528281036864692,0,-9,4,0,11,1,3,-9
1528281036865690,5,4,4,-1,-22,-2,-1,7
1528281036865690,-12,-8,-11,-12,-17,-25,-2,-9
1528281036878633,6,9,4,8,11,6,-5,4
1528281036878633,0,-2,-4,7,40,22,11,5
1528281036878633,-2,1,-4,-2,-18,-11,-4,-6
1528281036878633,-5,1,-1,-4,-3,-3,1,-1
1528281036900575,1,-4,-2,2,7,3,-5,-4
1528281036900575,-1,0,4,8,-14,-8,-3,-1
1528281036901582,-9,5,-5,-11,-18,-17,-10,-10
1528281036901582,9,-16,3,-2,12,4,13,14
1528281036923574,-2,1,7,4,8,3,-14,8
1528281036923574,-8,-3,-2,-1,-26,-9,10,-18
1528281036924511,0,9,-1,2,0,-7,-72,-30
1528281036924511,9,-5,-11,-3,8,8,46,29
1528281036946508,-31,-20,3,1,-3,-5,-121,-17
1528281036946508,45,13,8,4,1,16,89,77
1528281036947449,37,-11,-6,-8,-5,-7,8,-3
1528281036947449,-35,14,9,8,12,-2,-115,-98
1528281036960472,70,-4,11,-4,-7,4,90,99
1528281036960472,-11,-8,3,2,3,7,10,-13
1528281036961412,-28,8,-12,0,3,-10,-77,-69
1528281036961412,30,9,8,-6,-9,-6,39,74
1528281036984364,1,0,-16,1,9,10,50,53
1528281036984364,-30,-12,-6,-5,-6,-8,-47,-35
1528281036984364,-10,-17,9,9,11,21,87,26
1528281036984364,36,0,6,12,12,7,-17,19
1528281036998365,-40,-19,-30,-13,4,9,-26,-81
1528281036998365,33,19,2,-1,-10,-13,-47,98
1528281036999363,-36,-17,-12,-10,-12,-4,14,5
1528281036999363,-7,17,4,5,7,1,34,-16
1528281037020311,15,-16,25,10,2,-2,28,-37
1528281037020311,-19,2,-7,-8,-10,-10,-38,-27
1528281037021254,-2,-23,-22,-8,-3,0,-9,0
1528281037021254,-16,-4,-1,-6,-28,-13,-5,5
1528281037051173,-3,4,2,-4,3,-5,8,3
1528281037051173,-7,1,1,6,-6,11,-29,-57
1528281037052170,-9,0,-2,-2,6,-4,1,15
1528281037052170,-1,-16,-23,0,-38,-9,19,6
1528281037066133,-4,16,7,-4,55,-2,-25,-31
1528281037066133,9,0,5,18,39,40,23,5
1528281037067129,11,18,7,-3,-20,-10,8,22
1528281037067129,-11,-7,-7,-8,-63,-29,-15,-17
1528281037080095,-8,3,-10,7,53,13,-22,-22
1528281037080095,-11,-11,-5,-15,-57,-21,1,-9
1528281037097142,15,4,4,-5,20,-9,8,11
1528281037097142,-14,-4,6,1,41,24,-25,-25
1528281037103165,1,9,10,15,-4,18,12,11
1528281037103165,-1,-4,4,-5,9,1,9,-5
1528281037112040,14,12,6,4,-46,-17,-9,-6
1528281037112040,-3,-3,-7,-11,4,-24,-1,1
1528281037126991,4,8,0,2,-11,6,8,10
1528281037126991,-6,-8,-5,-6,-5,-4,-8,-13
1528281037129006,-3,-2,2,-5,-9,-13,-12,-9
1528281037129006,-6,-4,2,-4,18,8,6,3
1528281037140094,-9,2,-1,4,-11,8,3,5
1528281037140094,17,2,-1,-4,-8,-22,-12,-8
1528281037148910,-3,2,2,10,20,17,5,-3
1528281037148910,-2,-2,3,-1,25,19,3,-2
1528281037162920,-4,0,-10,-5,-28,-13,-13,-6
1528281037162920,-7,-8,-5,-6,-37,-23,-3,-2
1528281037169855,-2,-1,1,-3,0,4,0,3
1528281037169855,-2,-1,-4,-3,29,6,1,-2
1528281037186974,-4,-4,-3,4,-15,-8,-8,-9
1528281037186974,-3,-6,-1,-1,7,3,2,-3
1528281037188966,2,1,4,-6,-4,4,5,8
1528281037188966,-3,0,-13,-5,-13,-9,-9,-12
1528281037208750,1,0,-6,-8,-14,-11,-6,-9
1528281037208750,-2,-4,-2,2,14,2,4,-5
1528281037210745,1,2,3,6,4,4,-2,2
1528281037210745,-1,-2,1,0,0,0,0,6
1528281037232072,0,-3,-2,-2,-9,-2,0,0
1528281037232072,-3,3,-3,0,7,1,-3,-4
1528281037233918,-2,2,3,1,2,-2,0,-5
1528281037233918,-4,-6,1,2,-1,6,0,13
1528281037246164,1,2,-6,0,-6,-6,-15,-14
1528281037246164,-4,2,11,2,5,0,20,-24
1528281037262192,2,5,1,0,5,0,-41,-14
1528281037262192,23,2,-8,1,3,8,78,91
1528281037269006,-3,2,1,1,-5,-3,6,-24
1528281037269006,10,-5,-7,-4,3,-5,-15,38
1528281037271000,3,3,10,8,10,6,-6,-11
1528281037271000,-2,-25,-10,-3,-5,-6,-31,-46
1528281037291948,-84,0,-1,1,-3,-4,2,-2
1528281037291948,99,9,-2,-5,-5,-5,30,-36
1528281037294055,-30,14,5,12,10,-15,-84,-58
1528281037294055,11,4,11,9,7,29,72,-33
1528281037305143,-71,-10,-12,-8,-9,-8,2,97
1528281037305143,-12,6,2,-4,1,-6,-15,-32
1528281037314083,15,-19,-25,-9,-5,12,127,84
1528281037314083,-16,-14,0,-8,-4,-11,-90,21
1528281037329401,17,-7,9,5,3,7,37,11
1528281037329401,-34,12,-4,0,-4,-14,-53,-29
1528281037331396,-1,-3,-5,-2,-4,-2,-23,-2
1528281037331396,-9,9,5,2,1,-4,-6,-10
1528281037343383,27,-2,-1,-4,-7,2,-2,-16
1528281037343383,-21,-2,0,9,13,-10,-11,14
1528281037357329,4,-9,-7,-4,-5,15,10,1
1528281037357329,3,12,7,7,-11,0,1,-7
1528281037365529,27,6,-2,-3,31,-21,-46,-30
1528281037365529,-5,-5,2,9,27,35,19,18
1528281037374339,-8,2,-2,-5,-7,-4,-4,-8
1528281037374339,-7,2,1,-8,-44,-21,-5,-12
1528281037388698,19,-2,-10,-18,-33,-18,-11,-9
1528281037388698,-11,-7,0,-4,-79,-8,11,17
1528281037390695,2,-4,2,2,66,8,13,8
1528281037390695,-11,-8,14,7,54,17,-12,-15
1528281037403819,27,6,10,10,3,7,11,15
1528281037403819,-12,-10,-22,-6,1,-4,-3,-2
1528281037409847,6,2,17,-3,-45,-11,-6,2
1528281037409847,1,4,-1,-6,-19,-12,-5,-1
1528281037426963,5,1,-1,3,5,9,0,-10
1528281037426963,-8,-4,5,-5,2,1,6,4
1528281037428801,-2,-7,-15,-1,-20,-4,-5,-1
1528281037428801,-3,-2,-1,-12,4,-8,-3,-4
1528281037448888,9,1,2,0,6,10,7,-5
1528281037448888,-8,-4,-6,-12,-20,-13,-8,-1
1528281037450739,6,8,17,40,95,44,13,4
1528281037450739,-4,-7,-17,0,-27,-9,-5,-9
1528281037462845,5,2,2,-19,-32,-23,-6,-10
1528281037462845,0,-1,4,9,60,39,11,7
1528281037471683,-5,-2,-1,-7,-16,-17,-7,-8
1528281037471683,-3,1,-1,6,16,12,3,-5
1528281037486644,3,0,-10,-10,-23,-11,-6,-6
1528281037486644,-8,-3,-3,6,0,-12,-4,-2
1528281037488639,0,0,1,-12,-14,-1,3,2
1528281037488639,-2,0,-5,3,3,-2,-4,-2
1528281037508784,2,0,1,-3,-18,-9,-3,-8
1528281037508784,-2,-2,-3,1,2,-6,-2,-4
1528281037510781,-1,-4,-5,0,0,1,0,-4
1528281037510781,-2,0,2,-3,-22,-12,0,-3
1528281037531891,1,6,0,5,13,7,0,-2
1528281037531891,-5,-8,0,-2,11,6,-2,0
1528281037533719,-3,-2,-8,0,-13,-6,-1,-1
1528281037533719,-2,-4,-5,-6,8,-2,-4,-2
1528281037547054,0,-4,-3,1,-10,13,4,-1
1528281037547054,1,5,2,1,22,4,-2,-3
1528281037549075,0,-1,2,-5,-21,-17,-3,-4
1528281037549075,0,0,-8,4,3,7,1,-1
1528281037569012,-1,-2,0,5,11,1,0,-6
1528281037569012,-1,0,-5,-7,-22,-18,-5,0
1528281037570847,-3,-1,-3,-3,4,-6,-2,0
1528281037570847,0,0,-1,1,6,13,0,-1
1528281037592063,-1,-4,-4,2,-5,0,0,-1
1528281037592063,-1,-3,-4,-9,-3,-3,-2,1
1528281037594070,0,-2,2,-4,-16,-9,-1,0
1528281037594070,-2,0,-3,-1,4,-4,-2,-1
1528281037606128,-3,-3,-1,0,3,-2,-5,-3
1528281037606128,-2,-1,0,5,-3,0,-2,-1
1528281037620113,1,0,0,-7,-9,0,-1,-2
1528281037620113,0,1,0,-2,2,-4,-2,-1
1528281037629218,0,-2,1,3,9,3,0,-1
1528281037629218,-1,0,-2,-4,-5,-6,-1,0
1528281037631070,0,-3,-4,-6,-4,1,-1,1
1528281037631070,-1,-2,0,-1,3,1,3,-2
1528281037643038,1,-1,-4,3,6,-1,-2,1
1528281037643038,-1,0,-1,-5,-14,-3,-1,0
1528281037651235,-2,2,-3,-2,-1,-31,-8,-4
1528281037651235,1,-3,-1,-8,-20,11,-1,0
1528281037666337,2,0,2,10,42,18,8,1
1528281037666337,-1,-2,0,0,-20,-2,1,-2
1528281037672487,-3,0,-3,-4,14,6,-1,-3
1528281037672487,-3,-2,-3,-3,-9,-21,-5,-4
1528281037688987,-2,-3,-2,-5,-18,-4,-3,-3
1528281037688987,0,-1,0,-1,2,2,-1,0
1528281037690999,-1,1,0,3,-5,3,-1,0
1528281037690999,-3,-3,-8,-3,4,-2,-3,0
1528281037711928,0,-1,-4,-5,-11,-23,-8,-4
1528281037711928,-1,-2,2,2,5,22,4,-2
1528281037713924,-2,-2,-2,-5,-10,-2,3,0
1528281037713924,2,2,2,6,17,6,3,3
1528281037726025,-2,-2,-2,-2,-3,-8,-3,-3
1528281037726025,-1,3,-1,-2,-2,2,-3,-2
1528281037733188,-1,-4,-4,-1,-3,-2,-3,-1
1528281037733188,1,2,3,0,0,10,5,-2
1528281037757032,-2,0,-1,-5,-15,-8,-1,0
1528281037757032,-1,1,1,4,19,0,-2,-1
1528281037759079,0,-4,-2,-4,-6,0,-1,-1
1528281037759079,0,3,-1,3,2,2,-3,-1
1528281037763132,-2,-5,-3,-2,-12,-9,-5,-3
1528281037763132,-2,-1,0,-11,-32,-11,-1,-4
1528281037771945,1,1,-3,3,17,-13,-4,1
1528281037771945,-1,-2,0,-2,12,20,6,1
1528281037786905,3,0,2,-1,-5,-4,0,0
1528281037786905,-2,-2,-1,2,4,6,-2,-1
1528281037787911,-1,-3,-1,-3,-10,-12,3,-2
1528281037787911,-2,-1,-1,0,-3,5,-9,-3
1528281037809005,-1,1,-1,3,12,19,9,1
1528281037809005,-4,-2,-5,-2,-3,-25,-8,-2
1528281037811523,-2,-2,-2,-3,-9,6,-5,-3
1528281037811523,-1,1,4,7,15,8,3,0
1528281037822346,-1,-1,1,-2,-5,-4,-4,0
1528281037822346,-1,-3,-1,4,22,0,1,-2
1528281037831528,-1,-2,-1,-2,-11,-25,-3,0
1528281037831528,-1,-3,-2,-4,-21,9,-2,-4
1528281037846646,0,0,-1,-3,0,2,1,0
1528281037846646,1,0,-1,-3,-5,7,7,1
1528281037848643,0,3,2,6,9,8,2,1
1528281037848643,-2,1,-2,6,15,-15,-4,1
1528281037883683,-3,-4,-4,-8,-18,-8,-2,-4
1528281037883683,3,-1,0,4,14,2,-3,-2
1528281037885699,1,-2,1,-3,-12,-6,-2,-2
1528281037885699,-1,2,1,-6,-21,-8,-6,-2
1528281037891674,1,-4,0,1,16,10,2,1
1528281037891674,0,-5,-3,0,2,-4,-4,0
1528281037897675,-2,-1,-1,-3,1,39,13,1
1528281037897675,2,1,1,0,-4,-25,-2,1
1528281037905657,-2,1,-1,0,-2,-7,-3,0
1528281037905657,-3,-2,-3,-3,-12,-28,-6,-3
1528281037913901,-2,-1,-2,2,7,39,5,-2
1528281037913901,-1,-1,-2,-3,-3,-13,-5,-1
1528281037928904,-3,0,1,-1,1,3,3,0
1528281037928904,1,1,0,-1,0,-1,1,1
1528281037931575,-3,-2,-3,0,5,-12,-6,-2
1528281037931575,-2,-4,-2,-3,-6,-2,-1,-2
1528281037942565,0,1,-3,-1,1,-13,-4,-3
1528281037942565,0,-1,-1,1,19,20,-3,-1
1528281037951377,-2,0,-1,-3,-10,9,3,-2
1528281037951377,0,-4,-4,4,16,-6,1,-1
1528281037966376,-1,1,0,1,-4,0,-6,-1
1528281037966376,0,2,0,-7,-28,-10,2,-1
1528281037972479,-1,-3,-1,-3,9,11,2,1
1528281037972479,0,2,0,-1,4,-3,-1,-1
1528281037989279,-2,-6,-2,-2,-15,-18,-6,-1
1528281037989279,-2,1,-2,1,10,31,4,-2
1528281037991273,3,2,1,0,-8,-10,-2,1
1528281037991273,-1,0,-3,-3,-12,-7,1,-2
1528281038011251,0,2,-1,4,13,4,0,0
1528281038011251,-5,-2,0,-3,-10,-17,-4,0
1528281038013211,-1,0,-1,-5,-7,12,3,-2
1528281038013211,0,-5,-3,-1,16,-4,1,0
1528281038026177,-1,-1,-1,-4,-12,5,-2,-2
1528281038026177,-1,-2,-2,-2,-7,-8,-2,0
1528281038028171,0,2,-1,5,16,-3,-2,-1
1528281038028171,-1,-1,1,-7,-21,-7,-1,-1
1528281038049117,-1,-3,1,2,16,12,4,-1
1528281038049117,-3,-3,-1,-2,-9,-4,1,0
1528281038051121,-3,0,0,-4,-2,-11,-4,0
1528281038051121,-1,-1,-2,0,-4,7,2,-3
1528281038063185,-1,1,-3,2,7,1,0,-1
1528281038063185,-1,1,-1,-1,-8,-4,-1,-1
1528281038072053,0,1,1,-1,-7,-5,-4,-1
1528281038072053,-4,-3,-1,0,0,-5,-1,-4
1528281038086019,-1,1,-2,-3,-2,8,0,0
1528281038086019,3,6,1,1,-5,0,-2,-2
1528281038092997,1,-5,-2,3,4,0,-2,0
1528281038092997,-2,-2,-6,-5,3,0,-2,-1
1528281038108956,-1,1,-1,-4,-1,1,0,1
1528281038108956,-2,-6,-1,-1,-1,-3,-2,0
1528281038111002,-1,1,0,-1,1,-1,0,-2
1528281038111002,0,0,0,-2,-7,-2,-2,-3
1528281038122963,-2,0,-1,-4,-6,-1,-2,-4
1528281038122963,2,3,0,2,14,2,2,-2
1528281038131927,0,0,-2,-1,-6,-6,-1,-1
1528281038131927,-1,0,-3,1,2,0,-2,0
1528281038145908,0,0,-2,-1,5,3,-1,-2
1528281038145908,-2,-4,-3,-1,0,-3,-3,-2
1528281038152876,-1,-5,-4,-3,-4,-6,-3,0
1528281038152876,0,2,0,-2,-3,2,1,1
1528281038168797,-2,-2,1,1,-2,0,-1,0
1528281038168797,-1,-2,0,-1,-2,0,-1,-1
1528281038170816,-1,-1,-1,1,-4,-1,-3,-1
1528281038170816,-1,-2,-2,0,2,-2,-1,0
1528281038191768,-1,0,-2,0,-5,-2,-3,-2
1528281038191768,-2,-1,0,1,6,2,-1,0
1528281038193773,-3,-2,1,-3,-8,-6,-3,-1
