timestamp,emg1,emg2,emg3,emg4,emg5,emg6,emg7,emg8
1529563156213043,-1,-1,1,-1,-2,-1,1,-1
1529563156213043,0,1,-1,1,0,0,-1,-1
1529563156230996,0,-1,0,-2,-1,0,1,0
1529563156230996,-1,-2,-2,1,0,-2,-1,-1
1529563156242963,-1,1,1,0,1,-1,-2,1
1529563156242963,0,0,-1,-1,1,-1,1,-1
1529563156249945,0,-1,0,-2,0,-2,-3,0
1529563156249945,-1,1,1,0,-1,0,-2,0
1529563156264905,0,0,-1,1,0,1,0,-1
1529563156264905,0,0,-1,0,-2,-1,-1,-2
1529563156272883,-2,0,-1,-1,1,-1,0,-2
1529563156272883,-1,-1,0,0,-1,-1,1,-2
1529563156287843,-1,-1,-3,-1,0,-1,0,-3
1529563156287843,1,-1,0,0,0,0,-1,0
1529563156302804,-1,-1,-1,-1,2,-1,-1,-1
1529563156302804,-2,-1,-2,0,-2,0,-1,-1
1529563156310782,1,-1,-2,-1,-2,0,0,0
1529563156310782,-2,0,-2,-2,-1,-1,1,-1
1529563156325742,-2,-2,-1,-1,0,0,0,0
1529563156325742,-1,0,1,-1,-1,0,-1,-2
1529563156335716,-1,0,0,0,0,0,-2,-1
1529563156335716,0,1,0,-1,0,-2,-1,0
1529563156347683,-2,0,0,1,-2,-2,0,-1
1529563156347683,0,-1,0,-1,-1,1,-1,-1
1529563156362643,0,1,0,-1,-2,0,-1,1
1529563156362643,0,0,-2,-1,0,0,0,-3
1529563156370622,-3,-2,-1,-1,1,0,0,0
1529563156370622,-1,-2,-1,0,0,1,1,-1
1529563156386579,0,0,-1,-1,-1,-1,-1,0
1529563156386579,-1,-1,0,-1,0,-1,-1,0
1529563156407524,1,-1,0,-1,-2,0,0,-2
1529563156407524,-1,-1,-1,-1,-1,-1,-1,0
1529563156415502,0,-2,0,0,-1,-2,-1,-3
1529563156415502,0,-1,-1,-1,-1,-1,0,-1
1529563156430462,-1,-1,1,0,-1,-1,1,1
1529563156430462,0,0,0,0,0,0,0,0
1529563156437443,-2,-1,-1,0,0,-1,-3,0
1529563156437443,0,0,0,0,0,-1,-2,0
1529563156452404,-2,-1,-1,0,0,0,0,-1
1529563156452404,-1,-1,0,-2,-1,-1,-2,-1
1529563156460382,0,0,-2,-1,-2,0,0,-2
1529563156460382,0,-2,-1,0,0,0,0,-3
1529563156475342,-1,0,-1,0,-2,0,-1,0
1529563156475342,-1,0,-1,-1,-1,-1,-1,0
1529563156483320,-1,0,0,1,-1,-1,0,1
1529563156483320,-1,0,0,-1,-1,-1,0,-2
1529563156490301,0,0,0,0,1,-1,-1,1
1529563156490301,0,1,-1,-1,0,-1,0,-1
1529563156505262,0,-1,0,-3,-1,0,-1,-2
1529563156505262,-1,0,-2,1,-1,-2,0,0
1529563156513242,-1,0,-1,0,-1,0,-1,-1
1529563156513242,-1,-4,-1,-1,0,0,-1,0
1529563156528239,-1,0,-1,-1,-1,-1,-2,1
1529563156528239,-1,-1,-1,-2,-1,-2,-1,1
1529563156535224,-2,0,-1,-1,0,-1,-1,-1
1529563156535224,-2,-2,0,1,-1,-1,-1,0
1529563156543208,0,-1,-1,0,-1,-1,0,-1
1529563156543208,0,-1,0,0,-1,-2,2,0
1529563156550143,0,-1,-1,-2,0,-1,0,-1
1529563156550143,0,0,-2,-2,-2,0,-2,0
1529563156565102,-2,1,0,-1,1,-1,0,0
1529563156565102,0,0,-1,0,-1,0,-1,-3
1529563156573119,0,-1,0,-1,0,-2,1,0
1529563156573119,-2,-1,-1,0,-1,0,-2,-2
1529563156588041,0,-2,-1,0,0,0,0,0
1529563156588041,0,-2,-1,0,0,1,-1,2
1529563156595023,-1,0,0,0,0,-1,-1,-1
1529563156595023,0,0,0,0,0,-2,0,0
1529563156603028,1,-2,0,-2,0,1,0,1
1529563156603028,-2,-3,-1,-1,1,0,-1,-1
1529563156610029,0,0,-2,-1,-1,0,0,-1
1529563156610029,1,0,0,-1,0,-1,1,1
1529563156624989,-1,-2,-2,-1,-1,-1,0,-2
1529563156624989,0,-1,0,-1,-1,0,-1,-1
1529563156639903,-2,0,0,0,-1,-1,-3,-1
1529563156639903,-1,0,-1,0,0,-1,0,0
1529563156647881,0,-1,-1,0,-1,-1,-2,-2
1529563156647881,1,-1,0,-2,1,1,0,-1
1529563156670820,0,-1,0,-2,0,-1,-2,-2
1529563156670820,-1,0,-2,1,0,-1,1,-2
1529563156685826,0,0,0,1,1,1,0,-3
1529563156685826,-1,-1,-2,-1,-1,0,0,1
1529563156692761,-1,-1,-1,0,0,1,-1,0
1529563156692761,-2,-2,0,-2,-1,-1,-2,0
1529563156707721,-1,-1,-1,0,-1,-2,-1,0
1529563156707721,0,1,0,-1,-2,-2,-1,2
1529563156722683,1,-1,-1,-1,-2,1,0,-1
1529563156722683,1,-2,0,-1,-1,-1,-1,-2
1529563156737661,1,-1,0,0,0,-1,1,0
1529563156737661,-1,-1,-1,1,-1,-2,-1,1
1529563156745620,0,0,0,-1,-1,0,-1,0
1529563156745620,-1,-1,-1,1,-1,-1,1,0
1529563156760581,0,0,-2,-3,-1,-1,-1,-1
1529563156760581,0,-1,-1,-1,0,-2,0,-2
1529563156767562,-1,-1,0,-1,0,-2,-1,-1
1529563156767562,0,0,0,0,1,-1,0,-1
1529563156782554,-2,0,-1,1,-1,-2,0,-1
1529563156782554,-1,0,-1,-1,0,1,-1,0
1529563156797481,0,-1,-1,0,-1,-2,0,0
1529563156797481,-1,0,0,-1,-1,-1,-1,-1
1529563156805461,0,0,-2,0,-1,-1,-1,0
1529563156805461,0,-1,-1,-2,0,0,0,-2
1529563156820420,-3,-2,1,0,1,0,-1,-3
1529563156820420,0,-1,-1,-1,-1,1,0,0
1529563156828399,-1,-1,0,-2,1,0,-1,1
1529563156828399,0,0,-1,-1,-1,-2,-1,1
1529563156843359,-1,-1,-1,-1,-1,-1,0,-1
1529563156843359,-2,0,0,-1,-1,-1,-1,0
1529563156858353,1,-2,-1,0,0,1,-1,1
1529563156858353,-3,-1,-1,-1,0,1,-1,1
1529563156873280,1,0,-1,-1,0,-1,0,-1
1529563156873280,1,0,-1,0,-1,-1,-2,-1
1529563156888274,0,0,-3,-1,-1,-1,-1,0
1529563156888274,0,-1,1,-1,-1,0,0,-1
1529563156895220,-2,-2,-1,0,-3,1,1,-2
1529563156895220,-1,-1,0,0,0,0,0,0
1529563156910180,0,0,2,-1,0,-1,0,-1
1529563156910180,0,0,-1,0,0,0,0,-2
1529563156925140,0,0,1,-1,2,-1,0,1
1529563156925140,0,0,0,-1,-1,0,-3,-1
1529563156940100,0,1,-1,-1,0,0,-2,-1
1529563156940100,-1,-2,-2,-2,0,-1,-2,0
1529563156948078,-1,0,1,0,-1,0,-1,-1
1529563156948078,-1,0,-1,0,-1,-1,1,0
1529563156963037,0,0,-1,0,0,-2,-1,-1
1529563156963037,-1,-1,0,-1,0,0,-1,-1
1529563156977997,-1,0,1,1,-2,-2,1,-1
1529563156977997,-2,1,0,-2,-1,-1,-2,0
1529563156984979,-1,-1,0,-1,-1,-1,-1,-2
1529563156984979,0,0,-2,-1,-3,0,-2,-2
1529563156999986,-1,-1,0,0,0,-1,-3,1
1529563156999986,-2,-2,0,0,0,0,-2,-2
1529563157007918,-1,0,0,0,0,-1,-1,-1
1529563157007918,-1,-1,-1,1,-1,-2,-1,-2
1529563157022921,0,-1,-1,0,-2,1,-1,-2
1529563157022921,-1,-1,0,-1,0,0,0,1
1529563157037877,-2,0,-1,0,1,-1,-1,0
1529563157037877,-1,-1,0,-1,-1,-2,0,-1
1529563157045854,1,0,0,-1,-1,-2,0,0
1529563157045854,1,0,1,-1,-1,-1,0,-2
1529563157060823,0,-1,-2,-1,1,0,-1,-2
1529563157060823,-1,-1,0,-1,0,0,-1,0
1529563157067801,-2,-1,-1,1,0,-2,-1,0
1529563157067801,1,0,1,0,0,0,-1,-1
1529563157082769,0,-1,0,0,-1,0,-1,0
1529563157082769,-1,-2,0,-1,-1,-2,0,1
1529563157097728,0,-1,1,-2,-2,-1,-1,-1
1529563157097728,1,-1,-1,2,0,-1,0,0
1529563157105703,-1,-2,-4,9,3,-2,0,-1
1529563157105703,1,1,1,-19,-3,0,1,0
1529563157120663,0,0,-1,-5,-3,-2,-1,0
1529563157120663,0,-1,-3,-3,0,-2,-1,0
1529563157127645,0,-1,-1,1,-2,-1,0,0
1529563157127645,-1,-4,1,15,2,-1,-3,-1
1529563157142560,1,-1,-1,-2,-2,2,0,-2
1529563157142560,-1,0,-1,-1,-1,0,-4,0
1529563157157520,1,0,1,2,-1,0,0,-2
1529563157157520,-2,-1,-1,4,-2,0,0,-3
1529563157165498,0,1,1,-6,-2,-1,-1,-1
1529563157165498,0,0,0,0,0,-1,0,-1
1529563157180458,0,-1,-1,1,1,-1,0,0
1529563157180458,-1,1,0,1,0,-1,0,0
1529563157187439,0,1,0,-5,1,-1,-2,-1
1529563157187439,0,0,-3,0,-1,-1,-1,0
1529563157210378,-1,-1,0,-1,0,-2,0,0
1529563157210378,1,0,-1,1,-2,-1,1,-1
1529563157225338,-2,-1,-2,2,-1,0,-1,0
1529563157225338,1,1,3,-4,0,-1,0,-1
1529563157233317,0,1,6,2,0,0,0,-1
1529563157233317,-1,-2,-3,-1,-1,-1,0,-1
1529563157248473,-1,1,-1,-1,-2,0,-2,-1
1529563157248473,0,-2,-3,7,-1,0,0,-1
1529563157255448,-1,1,5,-5,-2,0,0,1
1529563157255448,0,-2,-8,-8,-1,-2,-1,-1
1529563157263240,0,-1,-1,2,0,-2,0,-1
1529563157263240,-2,-1,1,1,0,1,-1,-2
1529563157278364,0,0,-1,-4,0,0,-2,-2
1529563157278364,1,0,-2,-1,-2,1,-2,-1
1529563157285178,-1,-1,-4,-3,-1,3,0,-2
1529563157285178,0,-2,0,-1,0,-1,0,-2
1529563157300138,0,-2,-1,-1,1,-1,1,0
1529563157300138,-2,-1,1,0,0,0,-1,0
1529563157308115,0,0,-2,0,-1,-1,0,0
1529563157308115,0,1,-1,0,0,0,-1,1
1529563157323077,1,-2,-3,-3,-1,-1,1,0
1529563157323077,-1,-1,2,1,-1,-1,-1,-1
1529563157338036,0,-1,-3,-1,-1,-2,1,1
1529563157338036,-1,-1,-1,-2,-1,0,-1,-1
1529563157345056,-1,0,-3,0,0,-1,-1,0
1529563157345056,0,1,1,1,-1,-2,-2,-1
1529563157359981,0,-1,1,-1,-1,-1,1,-2
1529563157359981,1,-1,-1,-2,-2,0,0,0
1529563157367973,-1,-2,-1,1,0,0,-2,0
1529563157367973,0,1,0,-1,-1,-1,0,-1
1529563157382920,0,-1,-1,0,-1,-1,-1,0
1529563157382920,-1,0,1,-2,0,0,-1,1
1529563157398195,-2,-1,0,0,0,-2,0,-2
1529563157398195,-1,-2,-1,-1,0,0,2,-1
1529563157406202,-2,1,-4,0,-1,-1,-1,-1
1529563157406202,0,-2,-2,0,-2,0,1,0
1529563157420815,-1,-2,0,-1,-1,-1,-1,0
1529563157420815,-1,-1,-2,-1,-1,-1,-1,-1
1529563157427799,0,-2,1,-2,0,1,-1,-1
1529563157427799,0,0,-2,0,-1,0,-2,-1
1529563157443137,-1,-1,-3,-2,-2,-1,-1,-2
1529563157443137,-1,-2,-2,5,3,0,1,-2
1529563157458421,2,1,5,-2,-1,-1,-1,0
1529563157458421,1,-2,-1,-3,-2,-1,-2,-1
1529563157466109,-1,-1,-1,-1,0,-1,2,-1
1529563157466109,-1,0,0,1,-2,-2,-1,0
1529563157481045,0,0,0,2,1,0,1,0
1529563157481045,-2,-1,-1,0,1,-2,-1,1
1529563157488194,-1,-2,0,-2,-2,-3,-2,0
1529563157488194,-1,-2,-2,-1,1,1,-2,-1
1529563157503225,-1,0,-2,-1,0,1,0,0
1529563157503225,-1,0,0,-1,0,0,-1,-2
1529563157517758,0,-1,-3,-3,-1,0,0,-1
1529563157517758,-2,0,0,0,0,-1,0,-3
1529563157525730,2,-2,-3,-2,0,-2,2,1
1529563157525730,0,-1,1,0,-1,-2,1,0
1529563157540514,-1,-3,-5,5,1,1,0,-1
1529563157540514,0,2,8,-3,-1,1,-1,-1
1529563157547666,0,0,-2,1,1,0,-1,-1
1529563157547666,-2,2,0,-3,-1,-1,-1,1
1529563157562454,-1,1,1,-1,0,-2,-1,-1
1529563157562454,1,-3,-1,-2,0,-1,1,1
1529563157578447,-1,0,-1,1,-1,1,-2,0
1529563157578447,1,-2,-2,1,-1,-1,0,-1
1529563157585396,-1,-2,1,-1,-1,-1,0,0
1529563157585396,0,-1,-4,0,-1,1,0,-2
1529563157600176,1,-1,0,-2,0,-1,0,-1
1529563157600176,-1,-2,-2,-1,1,1,0,-2
1529563157608315,0,-1,0,-1,-1,-1,0,-1
1529563157608315,-2,-1,2,0,0,0,-1,0
1529563157623097,-1,-1,-2,0,-1,1,-2,-1
1529563157623097,0,0,-1,-3,-2,-1,0,-1
1529563157638365,0,-1,-2,-2,0,-1,0,-1
1529563157638365,1,-2,0,0,-1,0,0,-1
1529563157645036,-2,0,0,0,-1,0,-2,-1
1529563157645036,-1,-3,0,0,0,0,0,1
1529563157660596,0,0,-1,0,-3,0,0,-1
1529563157660596,-1,-1,-2,0,0,1,-1,0
1529563157667579,1,0,-1,0,-2,-2,1,-1
1529563157667579,1,0,-1,0,-1,0,0,1
1529563157682538,-1,0,1,-2,-1,-1,-1,-1
1529563157682538,-1,0,-2,-2,-1,0,-1,-1
1529563157698492,-2,-1,0,1,0,0,0,-2
1529563157698492,-2,0,-3,-1,-1,0,0,1
1529563157705477,0,-1,-1,0,-1,0,0,1
1529563157705477,0,-1,-1,0,0,-1,0,0
1529563157720749,2,0,0,-2,-1,-2,0,0
1529563157720749,0,0,-1,0,-2,-2,0,-2
1529563157727739,-1,0,0,1,-1,1,-1,2
1529563157727739,-1,0,-1,-1,-1,-1,-2,-1
1529563157742549,0,0,-1,-1,1,-2,-1,-1
1529563157742549,-1,-1,-3,0,1,0,-1,-1
1529563157757504,0,-2,1,0,-1,-1,0,-1
1529563157757504,-1,-2,0,-1,-1,-1,0,-1
1529563157765660,-1,-1,0,0,0,0,0,0
1529563157765660,0,0,1,-2,0,0,1,-1
1529563157780605,-3,0,-2,1,0,-1,-2,-1
1529563157780605,-1,-2,-1,-1,-1,-1,0,0
1529563157787589,0,-2,-1,-1,0,-1,0,0
1529563157787589,0,-1,1,0,-2,-2,0,0
1529563157802985,-1,0,-2,-1,-2,-1,-2,-2
1529563157802985,-2,0,1,-1,-1,-2,0,-1
1529563157817990,-3,-2,-2,-2,-2,-2,-2,0
1529563157817990,0,-1,-1,0,-1,-2,-2,0
1529563157825984,0,-1,1,-1,-1,0,0,0
1529563157825984,2,-1,-1,0,-1,-1,-1,0
1529563157841007,-1,0,1,0,-1,-1,-1,-1
1529563157841007,0,-1,-1,1,-1,-1,1,0
1529563157848130,-1,-1,0,-1,-1,2,1,1
1529563157848130,-2,0,-1,0,0,-1,0,-1
1529563157862515,0,-2,1,2,0,-1,-3,-1
1529563157862515,0,-1,-2,-2,1,0,-1,0
1529563157877476,1,-1,-1,-2,-1,0,-1,2
1529563157877476,-1,1,-3,-2,-1,0,0,-1
1529563157885454,1,0,-2,-1,0,-3,0,0
1529563157885454,0,0,0,-1,-1,1,-1,0
1529563157900929,0,-1,-2,-1,-1,0,-1,-1
1529563157900929,1,-2,-1,0,0,-1,-1,1
1529563157908660,-1,0,-1,-3,-1,0,0,0
1529563157908660,0,-1,0,1,0,0,-1,0
1529563157923537,-2,2,0,0,-1,1,-1,-1
1529563157923537,-1,-2,0,0,-1,1,0,0
1529563157937922,0,1,2,0,-1,-1,0,-1
1529563157937922,-1,-2,-3,3,0,1,0,0
1529563157945714,-1,-2,0,-6,-1,-1,1,0
1529563157945714,-1,-1,-3,-1,-1,-1,0,-1
1529563157960828,0,0,0,0,-1,0,-1,0
1529563157960828,-1,0,-1,0,0,0,-1,-2
1529563157967654,0,-1,-1,0,-1,0,-1,0
1529563157967654,-1,-1,-2,-1,0,0,-1,0
1529563157982957,0,-1,0,-2,-1,-1,-1,1
1529563157982957,-1,-1,1,-1,-2,-1,0,-1
1529563157990595,-2,-1,-2,2,1,-1,-1,0
1529563157990595,0,0,0,1,0,-1,-1,-1
1529563158005471,-1,-1,-2,1,0,-1,-1,0
1529563158005471,-2,0,1,-1,-2,-1,0,-1
1529563158020586,-2,-3,1,-3,1,-2,2,-1
1529563158020586,2,1,-2,-2,-1,0,1,-1
1529563158027826,-1,-1,1,0,-1,-1,1,0
1529563158027826,-2,0,0,0,-1,-1,0,-1
1529563158043601,-2,1,0,-1,-3,0,-1,-1
1529563158043601,0,-2,1,-2,-1,-1,-1,-1
1529563158050582,-2,-1,0,1,1,1,-1,0
1529563158050582,-1,-1,0,0,0,0,0,1
1529563158065541,0,-1,0,1,-1,1,-1,0
1529563158065541,-2,-3,-1,-1,0,-2,1,0
1529563158080671,1,0,-1,0,0,-2,-1,-1
1529563158080671,-1,-2,-1,0,0,0,-1,1
1529563158087485,0,0,-2,-1,1,-1,1,-2
1529563158087485,1,-1,-2,-1,0,0,0,0
1529563158103714,0,-1,0,0,-1,1,0,-2
1529563158103714,-1,-2,0,0,0,-2,-2,-1
1529563158110734,1,0,-1,0,-1,0,-2,0
1529563158110734,0,0,-1,-1,0,-1,0,-1
1529563158125732,0,0,-1,0,-1,-1,-3,-1
1529563158125732,-1,-1,-1,-1,0,-1,-1,0
1529563158140580,-3,-1,-1,-2,-1,-2,-1,-2
1529563158140580,-1,0,0,-1,-2,0,-2,-1
1529563158147563,-1,0,0,-1,-3,0,0,0
1529563158147563,1,-1,-1,-2,-2,0,-1,-1
1529563158162524,-2,0,-1,-1,0,-1,-1,0
1529563158162524,-1,0,-1,-2,-1,-1,-1,-1
1529563158170504,-1,-1,1,-1,0,-1,1,0
1529563158170504,0,0,0,0,-2,0,0,0
1529563158185498,-2,-2,-1,0,1,-1,-2,0
1529563158185498,-1,0,-1,-2,-2,-1,0,0
1529563158200751,0,-1,-1,-1,-1,0,-1,-1
1529563158200751,1,1,-2,-1,0,0,0,1
1529563158207407,-1,-1,-1,-2,-1,-2,0,0
1529563158207407,-1,-1,0,-1,0,-1,0,-1
1529563158222962,0,-1,1,-1,0,1,0,1
1529563158222962,-1,0,2,-2,-1,1,0,-1
1529563158230937,0,-1,-4,0,0,-1,-2,-1
1529563158230937,0,-1,-1,-1,0,0,0,-2
1529563158244914,-2,-1,0,-3,-2,-1,-2,-1
1529563158244914,-3,0,-2,1,0,-2,0,-1
1529563158260891,-1,-1,0,1,-2,-1,1,1
1529563158260891,2,-2,0,0,0,-2,0,1
1529563158267838,0,-1,-3,0,-1,0,0,-1
1529563158267838,0,0,0,-1,-1,0,-1,-1
1529563158282800,-1,0,-1,-1,-2,0,0,-1
1529563158282800,-1,-2,-2,1,-2,0,-2,-2
1529563158290811,0,-1,0,-1,1,-1,0,-1
1529563158290811,-1,-2,0,-1,-1,-1,-1,0
1529563158305737,1,0,-1,1,-1,-1,-1,0
1529563158305737,-2,-1,0,1,-2,-1,-1,-1
1529563158320697,-1,1,0,1,-1,0,-1,-2
1529563158320697,-1,0,1,-1,-1,-1,-1,0
1529563158327678,0,0,-1,-1,-2,-1,-1,-1
1529563158327678,-1,1,-1,0,1,-1,0,0
1529563158342638,0,-1,-1,-1,0,-1,-2,-2
1529563158342638,0,0,-1,-1,-1,-1,0,0
1529563158350617,0,0,0,-2,0,-1,1,-1
1529563158350617,-1,-1,0,0,-2,-2,-1,-1
1529563158365577,-2,1,0,-1,0,1,-1,-1
1529563158365577,0,-1,1,-2,0,0,1,-1
1529563158380538,-2,-1,-2,-1,0,-2,0,0
1529563158380538,-1,0,1,2,0,0,-1,-1
1529563158387572,0,-1,0,-1,0,1,0,0
1529563158387572,0,0,-1,-1,-1,-1,-1,-1
1529563158402525,0,-3,-2,0,-1,-2,0,0
1529563158402525,-1,-1,-1,-1,0,1,0,-1
1529563158410504,0,0,-1,1,0,0,-1,1
1529563158410504,-1,0,-2,0,-2,1,-2,1
1529563158425469,0,-2,-3,0,1,-1,-2,-1
1529563158425469,-1,-1,-1,-1,-2,0,1,-1
1529563158440424,0,0,-2,0,0,1,-1,1
1529563158440424,0,0,-1,1,-1,-2,1,-2
1529563158448390,-1,0,-1,-1,-1,0,-1,-1
1529563158448390,-2,0,0,-1,1,1,-2,-1
1529563158463373,0,0,0,-2,-2,-1,-1,-2
1529563158463373,-3,0,0,-1,-1,-1,0,0
1529563158470343,1,0,0,0,-1,0,0,-2
1529563158470343,0,-2,-2,-1,-1,0,-2,0
1529563158485258,0,-1,-1,-1,-2,-2,0,0
1529563158485258,-1,-1,-2,-1,0,-1,2,-1
1529563158500218,0,0,-1,-1,1,0,0,0
1529563158500218,0,-1,0,-3,0,0,0,-1
1529563158508197,0,-2,0,-1,-1,0,0,-1
1529563158508197,0,-1,-1,0,0,0,0,-1
1529563158523203,0,0,0,1,-1,0,-1,0
1529563158523203,0,0,-1,1,-1,-1,-3,-1
1529563158530176,0,-1,0,-1,0,-1,-2,0
1529563158530176,-1,-1,-1,0,-2,-2,0,-1
1529563158545097,-1,-1,-2,0,0,-1,0,-1
1529563158545097,1,-1,-2,0,0,-1,0,-1
1529563158560097,1,1,-1,-2,0,-2,-2,-2
1529563158560097,0,-2,-1,-2,-1,0,-1,0
1529563158568074,-1,-1,-1,0,0,-1,0,-1
1529563158568074,0,-1,-1,0,0,-1,0,-1
1529563158582996,-2,0,-1,1,-1,-2,0,-2
1529563158582996,0,0,-1,-1,0,0,-1,-2
1529563158589977,-2,-1,-1,-1,0,0,0,0
1529563158589977,-1,-1,-1,0,-1,0,0,0
1529563158604937,-2,0,0,0,-1,-1,-1,-1
1529563158604937,0,1,-2,-3,0,-1,0,0
1529563158620894,0,-4,0,-1,-1,2,-1,-1
1529563158620894,0,-1,0,0,-1,-1,0,-2
1529563158627880,0,-1,-2,-1,-1,0,-1,0
1529563158627880,-1,-2,0,-1,-2,0,-1,0
1529563158643012,-2,-2,-2,-1,0,0,0,0
1529563158643012,-1,0,-2,-1,-1,1,0,0
1529563158650031,1,-2,0,0,1,-1,0,-2
1529563158650031,-1,0,-1,0,-1,-1,0,-1
1529563158665956,0,-1,-1,-1,-1,-1,1,-1
1529563158665956,-1,1,-1,0,0,-1,-3,-1
1529563158680959,0,-1,1,2,-1,-1,1,-1
1529563158680959,-1,0,-1,1,0,-1,1,2
1529563158687940,-1,0,-1,0,-2,0,-1,0
1529563158687940,-1,0,0,-1,0,-1,1,-1
1529563158703022,0,-1,1,-1,2,1,0,0
1529563158703022,0,-1,-1,-1,0,0,1,-2
1529563158711028,0,0,-2,1,0,0,-2,-1
1529563158711028,0,-1,0,1,-3,0,0,-1
1529563158725910,1,1,0,-2,0,-1,0,0
1529563158725910,0,-2,-2,1,0,-1,1,0
1529563158740868,0,0,0,-1,-1,-1,-1,-1
1529563158740868,1,-1,-2,0,-1,-1,0,-1
1529563158747849,0,-1,-2,-1,0,-3,-2,1
1529563158747849,-1,1,-2,-1,0,-1,-2,0
1529563158763044,-1,-2,-3,-1,0,-1,0,0
1529563158763044,-2,0,1,0,-1,0,-2,-1
1529563158770037,1,-1,0,0,-2,0,-1,-2
1529563158770037,0,-2,0,0,-2,1,0,0
1529563158784997,-1,-2,-1,-1,0,-1,-1,-1
1529563158784997,0,0,-1,-1,0,0,-1,-2
1529563158800144,-1,0,-1,-1,1,0,1,-2
1529563158800144,0,-2,-1,-1,0,0,0,-1
1529563158808115,-1,-1,0,0,-2,1,0,-1
1529563158808115,-2,0,0,-2,-1,0,1,0
1529563158822896,0,-2,-2,-2,-1,-1,-2,0
1529563158822896,-1,0,-2,-2,-1,-1,0,-1
1529563158831005,-1,-2,-1,-1,0,0,1,-1
1529563158831005,-1,-1,0,0,1,-1,1,0
1529563158844910,-2,0,-1,-2,0,-2,0,-1
1529563158844910,1,0,0,-2,-1,0,-1,-1
1529563158860000,-1,0,-2,0,0,1,-1,-1
1529563158860000,-1,-1,-3,0,-2,1,-1,-2
1529563158867978,-1,0,0,0,-1,-2,0,-1
1529563158867978,-1,-1,-1,0,0,-3,0,-1
1529563158883078,0,-1,-1,0,1,0,-1,1
1529563158883078,1,0,0,-1,-1,0,0,0
1529563158891218,-1,0,0,-2,-1,-1,0,2
1529563158891218,0,-1,-1,1,-3,-1,-1,-1
1529563158905883,-2,-1,-2,-2,-2,-2,1,-2
1529563158905883,1,-2,0,-1,0,-1,0,0
1529563158912861,0,-2,-1,0,0,-1,0,0
1529563158912861,1,0,-2,0,1,0,0,0
1529563158927821,0,-1,-1,-1,-1,0,0,-2
