timestamp,emg1,emg2,emg3,emg4,emg5,emg6,emg7,emg8
1529306474420661,1,2,-5,-6,2,0,0,0
1529306474420661,3,5,8,10,5,3,3,3
1529306474421631,-3,-1,-2,1,0,-1,-2,-2
1529306474421631,-3,-1,-1,-3,2,-2,0,-4
1529306474425622,2,-1,1,-2,-10,-2,1,-2
1529306474425622,3,10,7,-3,0,0,2,1
1529306474426619,-5,-14,-14,-8,-5,-4,-2,-4
1529306474426619,-1,-6,-2,2,2,3,1,2
1529306474431606,2,10,2,-2,-2,-2,-1,0
1529306474431606,-1,-1,1,1,2,1,-1,-1
1529306474439585,-1,1,1,0,3,2,-1,-3
1529306474439585,-5,-6,-7,-9,-11,-6,-3,-2
1529306474448561,2,1,0,-1,6,1,1,2
1529306474448561,-7,-5,-5,3,-8,-5,-3,-3
1529306474461526,1,0,1,6,10,3,2,2
1529306474461526,4,11,7,4,9,0,-1,1
1529306474469505,-8,-11,-3,-9,-15,-3,-3,-2
1529306474469505,1,1,-2,-5,-3,-2,-3,-2
1529306474478480,-7,-13,-12,-3,2,-1,-2,-4
1529306474478480,-1,0,2,1,-12,-1,-2,-2
1529306474491445,2,7,5,5,8,2,2,3
1529306474491445,0,-3,-9,-8,-3,-1,1,0
1529306474499426,0,0,-5,-3,-3,0,0,3
1529306474499426,-1,-4,0,-5,1,-1,0,-1
1529306474546299,-1,-1,1,-5,-5,-3,-1,0
1529306474546299,-1,-6,-9,0,0,1,0,-2
1529306474548294,0,1,0,0,5,1,0,-2
1529306474548294,-3,-3,-5,-11,-13,-4,-4,-2
1529306474549291,-2,-4,-4,3,-2,-1,0,-4
1529306474549291,-1,-1,0,-6,-9,-4,0,-1
1529306474551288,-1,-4,-2,3,7,3,0,2
1529306474551288,0,-5,-2,1,6,0,-1,0
1529306474559267,0,3,2,0,3,-1,-2,-2
1529306474559267,-5,-4,-5,-11,-15,-4,-3,-4
1529306474567288,0,-3,-9,3,1,-1,-1,-3
1529306474567288,4,12,12,5,3,3,4,3
1529306474573228,-2,-4,-1,-1,6,2,-3,-5
1529306474573228,1,2,4,11,13,3,2,9
1529306474588186,0,5,1,-9,-16,-6,-4,-5
1529306474588186,-7,-3,-3,-3,-6,-6,-4,-3
1529306474596166,6,2,4,8,11,5,5,3
1529306474596166,-3,-1,-2,-8,-11,-3,-2,-4
1529306474603147,1,-2,-3,-4,-2,-1,2,1
1529306474603147,0,2,-1,2,2,1,1,-1
1529306474620101,-2,0,-3,0,0,-4,-4,-1
1529306474620101,-5,-6,-3,-9,-3,-3,-5,-5
1529306474626085,0,-5,-5,4,9,5,3,1
1529306474626085,5,6,3,9,6,2,2,0
1529306474633069,2,-1,-3,-2,1,0,0,0
1529306474633069,0,0,0,2,-1,-1,-2,-3
1529306474648029,-5,-4,-3,-9,-12,-6,-4,-1
1529306474648029,-1,0,2,-3,3,3,1,0
1529306474656009,-5,-5,-2,-2,-2,-4,-4,-7
1529306474656009,2,3,-2,1,3,-1,0,6
1529306474664983,-4,-7,-2,-1,0,-4,-1,-3
1529306474664983,6,17,6,-2,-4,-1,1,-1
1529306474678945,-3,-2,-3,0,-3,-2,-2,-2
1529306474678945,-2,-4,-3,-2,-3,0,-1,-8
1529306474685927,4,5,6,4,1,2,3,8
1529306474685927,-4,-5,-2,0,2,0,-4,-3
1529306474692907,2,4,1,-5,-6,0,7,7
1529306474692907,-2,0,1,6,9,3,0,-3
1529306474707868,-1,1,0,-2,1,-1,-11,-20
1529306474707868,1,-9,-7,-9,-14,-5,3,20
1529306474716844,0,2,0,6,8,1,1,-3
1529306474716844,1,0,-1,1,6,4,0,1
1529306474722827,-1,5,6,4,4,-2,1,-2
1529306474722827,-2,-1,-5,-12,-15,-8,-7,-7
1529306474738784,-2,-5,-3,2,1,-1,-4,-2
1529306474738784,2,3,3,-3,-7,-3,1,4
1529306474745766,-8,-10,-5,-3,-2,0,-3,-5
1529306474745766,1,-1,3,9,14,5,3,-4
1529306474752747,8,14,6,-5,-11,-5,-1,8
1529306474752747,-2,-4,-2,0,7,1,-1,-4
1529306474768711,3,5,4,-2,-4,1,2,6
1529306474768711,-5,-10,-5,4,2,1,-2,-5
1529306474776683,-5,-4,-1,-6,-7,-8,-5,-9
1529306474776683,2,3,1,3,4,3,0,4
1529306474783665,1,1,-1,-1,-1,-6,-1,3
1529306474783665,2,-1,-2,-3,3,7,9,6
1529306474798676,-4,-4,-2,-3,-2,-1,-3,-3
1529306474798676,2,4,4,4,0,-2,1,1
1529306474805607,2,3,0,-1,-4,5,2,2
1529306474805607,-5,-7,-2,0,4,-8,-6,-9
1529306474813585,-1,-3,-3,-2,2,5,0,-1
1529306474813585,-2,-5,-2,-1,1,-3,0,-2
1529306474828546,1,1,3,2,2,2,1,1
1529306474828546,-2,-5,-2,5,2,-1,-3,-4
1529306474836523,6,17,10,1,-1,0,1,-1
1529306474836523,0,-1,1,1,0,-2,-1,4
1529306474843506,-2,2,2,0,0,-1,-1,-3
1529306474843506,0,0,-3,-6,-7,-4,-3,2
1529306474858467,-2,-7,-2,3,3,7,8,2
1529306474858467,-1,1,2,2,3,0,0,-3
1529306474865448,-2,-4,-2,-8,-2,-1,-1,2
1529306474865448,0,2,1,4,0,-4,-5,-6
1529306474873426,-4,-6,-5,0,3,3,-2,-3
1529306474873426,4,3,2,-2,-1,5,1,-1
1529306474888383,-3,-2,0,0,3,-1,0,0
1529306474888383,-1,0,-6,-6,-12,-6,-1,2
1529306474896363,-1,-1,1,-3,-2,-7,-4,1
1529306474896363,3,6,1,7,3,1,2,1
1529306474910328,-3,-6,-3,-4,-4,-1,-1,-4
1529306474910328,0,1,0,-4,-1,4,2,-1
1529306474919335,0,0,0,0,-3,-6,-3,1
1529306474919335,-4,-5,-8,-14,-12,1,-1,-4
1529306474925311,0,2,2,5,4,1,1,2
1529306474925311,-3,-3,-2,-1,-4,-3,-2,-1
1529306474933310,-1,-1,1,11,15,5,0,0
1529306474933310,-2,2,-1,-8,-13,-3,-1,-1
1529306474948224,4,1,2,3,0,-5,-1,1
1529306474948224,-1,-3,-2,-4,-1,-2,-2,-1
1529306474956205,-2,-4,-2,-3,-1,3,0,0
1529306474956205,0,1,3,1,5,-1,0,0
1529306474971164,-2,-1,-4,-2,-4,-2,0,1
1529306474971164,0,-1,3,7,13,5,1,-2
1529306474979142,-1,-1,-3,-4,0,2,-1,0
1529306474979142,1,0,-1,-1,-7,-6,-3,-1
1529306474986125,-2,-3,-2,-2,-6,-1,0,-1
1529306474986125,1,0,2,0,2,4,1,1
1529306474993105,1,3,2,6,8,-2,-4,-1
1529306474993105,-4,-7,-5,-5,-5,4,3,0
1529306475008065,0,2,1,1,9,6,2,0
1529306475008065,-5,-1,-4,-2,-4,-2,-6,-17
1529306475016043,5,2,2,-1,-2,5,3,15
1529306475016043,-2,-1,-1,0,-7,-8,-3,-1
1529306475031003,3,1,3,2,6,8,6,1
1529306475031003,-2,-4,-3,-1,2,0,1,2
1529306475038982,2,0,-1,-4,-7,-4,-2,-6
1529306475038982,0,2,2,7,6,-2,-6,-2
1529306475045963,0,-1,-4,-8,-4,-4,-1,1
1529306475045963,-1,1,5,12,15,0,-1,-1
1529306475052944,0,-3,-5,-8,-15,1,1,-1
1529306475052944,1,1,4,2,-4,-12,-2,2
1529306475067905,-1,-2,-5,1,11,11,1,0
1529306475067905,-1,1,2,-3,-13,-6,-1,2
1529306475077136,-3,-2,-6,-9,-1,1,-2,-2
1529306475077136,-3,-1,1,1,-1,-2,-2,-5
1529306475090879,-4,-5,-3,2,-1,-1,-4,-4
1529306475090879,3,2,2,2,5,0,3,4
1529306475098858,-2,-4,-1,2,2,-2,-2,-2
1529306475098858,0,-2,-5,-9,-17,-10,-3,-3
1529306475105829,-1,2,2,2,2,0,-2,-2
1529306475105829,0,-7,-7,-5,2,7,2,3
1529306475112837,-3,5,7,5,4,-2,-5,-17
1529306475112837,4,2,2,6,22,17,13,21
1529306475128046,2,3,1,-1,-14,-10,-5,-1
1529306475128046,0,-2,-7,-10,-7,-8,1,2
1529306475137108,-1,-4,-2,-5,-5,1,0,-4
1529306475137108,-2,-4,-1,6,7,-8,0,-5
1529306475150984,-4,-5,-5,-8,-6,3,-1,-2
1529306475150984,0,4,1,1,7,15,5,1
1529306475158966,-2,-1,-4,-6,4,7,1,2
1529306475158966,-3,-3,-3,-1,-5,-7,-4,-4
1529306475166194,-1,-1,2,3,0,-7,1,2
1529306475166194,2,8,4,-5,-23,-19,-6,-4
1529306475181923,-3,-1,-2,4,11,-1,2,4
1529306475181923,0,0,4,2,0,6,-1,-2
1529306475187887,-2,0,2,8,5,2,-3,-3
1529306475187887,0,-9,-9,-6,-12,-11,-5,1
1529306475196864,8,13,8,5,22,13,4,7
1529306475196864,2,3,3,7,0,5,1,-2
1529306475210703,3,3,0,-3,-4,-6,0,2
1529306475210703,-3,4,2,4,6,-3,-6,-2
1529306475219751,-4,-9,-8,-4,-28,-19,-4,0
1529306475219751,1,2,-1,1,20,17,2,-4
1529306475226180,1,0,1,-3,-6,-3,-4,0
1529306475226180,-2,-5,0,5,18,20,5,1
1529306475242792,2,-1,-1,-3,-14,-14,-5,-2
1529306475242792,-5,-4,-6,-7,-12,-8,-5,-4
1529306475247778,1,5,9,7,6,-2,-1,-1
1529306475247778,0,2,-2,-2,8,6,3,1
1529306475264731,-2,-2,-5,-12,-26,-12,-5,-1
1529306475264731,-2,2,3,7,19,3,-4,-11
1529306475270716,8,4,-2,-10,-19,-22,5,21
1529306475270716,2,-1,1,7,27,40,10,2
1529306475279691,0,3,5,4,-2,-8,-8,-1
1529306475279691,-3,-6,-6,-3,-4,0,4,-2
1529306475285676,-4,-2,-5,0,-6,-5,-3,-7
1529306475285676,2,5,6,-3,-18,-23,-6,-2
1529306475302023,-1,-5,-5,-3,25,26,8,3
1529306475302023,1,0,1,0,-7,-1,0,1
1529306475308262,-2,1,-1,5,9,-1,-5,-7
1529306475308262,-1,-3,-3,-7,-7,-19,-2,2
1529306475325383,-3,-3,2,10,7,20,3,-2
1529306475325383,2,1,-1,-13,-18,-13,-1,3
1529306475331470,2,0,1,12,26,18,5,1
1529306475331470,-4,-5,-3,5,0,6,-2,-6
1529306475340459,-1,1,1,1,-4,-11,-1,-1
1529306475340459,2,-2,-2,1,1,3,1,2
1529306475346495,3,3,3,0,3,3,0,2
1529306475346495,-3,-4,-3,-5,-20,-10,-6,-3
1529306475362417,3,4,4,10,18,12,6,2
1529306475362417,-1,-3,-7,-17,-15,5,1,1
1529306475368748,-1,-2,-8,-10,-26,-15,-9,-9
1529306475368748,0,3,3,-2,-5,-22,-14,-8
1529306475385071,1,0,3,13,7,7,11,19
1529306475385071,1,1,0,-4,7,-9,-7,0
1529306475391434,-2,-2,1,-2,-4,11,6,1
1529306475391434,6,6,6,7,12,9,-3,2
1529306475399650,-1,-1,-1,-2,2,-14,-9,-6
1529306475399650,-3,-1,-2,-5,1,1,1,0
1529306475406028,-3,-2,0,3,-9,-4,1,-1
1529306475406028,-5,-1,-1,-4,5,7,1,-3
1529306475422980,-6,-7,-8,-16,-35,-19,-10,-10
1529306475422980,1,-1,-3,10,14,11,7,3
1529306475427980,0,2,4,-2,5,6,0,-3
1529306475427980,-2,-2,-3,-2,4,8,2,0
1529306475444936,3,3,1,3,-10,-11,1,1
1529306475444936,-1,4,4,-3,4,11,0,-3
1529306475451158,-2,-6,-3,-3,-9,-1,-3,-2
1529306475451158,3,3,4,5,4,-11,2,4
1529306475459894,-2,-2,-4,-6,27,42,6,-1
1529306475459894,-1,-1,1,4,-12,-18,-7,-2
1529306475465878,-2,-3,-2,7,9,-10,-4,-1
1529306475465878,-3,-4,-6,-12,-8,18,7,4
1529306475482115,3,3,0,-5,-13,-12,-3,-1
1529306475482115,3,3,7,10,14,6,0,2
1529306475488100,0,0,-2,-4,-8,-9,-3,0
1529306475488100,-2,-1,-6,-3,-7,-7,-11,-9
1529306475505417,1,-1,-3,-5,-16,-12,5,8
1529306475505417,-2,-3,-3,3,8,5,4,7
1529306475510426,0,-3,-5,-10,-8,-2,-2,0
1529306475510426,0,0,1,-2,-1,-3,1,0
1529306475519626,-1,-2,2,-1,1,-2,-4,-4
1529306475519626,2,-3,-3,-2,-16,-13,-4,0
1529306475533951,0,7,8,7,21,9,3,0
1529306475533951,-5,-7,-8,-15,-34,-13,1,1
1529306475542600,-2,0,1,-1,1,1,-4,-3
1529306475542600,-2,0,-3,-7,3,2,-3,-4
1529306475556600,-10,-14,-12,-2,2,7,0,-5
1529306475556600,6,6,4,6,-6,-3,-1,2
1529306475563544,-8,-11,-8,6,35,16,0,-5
1529306475563544,-1,-6,-2,-4,-5,3,-1,-2
1529306475570579,3,10,5,-7,-12,-7,-3,0
1529306475570579,2,6,15,33,29,6,3,1
1529306475585486,2,0,-4,-10,-15,0,3,0
1529306475585486,-2,-3,-5,-4,5,-3,-3,-2
1529306475593505,-5,-11,-14,-22,-21,4,-2,-4
1529306475593505,3,10,15,3,-18,-18,0,3
1529306475602477,0,-1,-4,-5,-4,-6,-2,-1
1529306475602477,-1,0,4,12,17,2,0,1
1529306475616402,-4,-4,-1,-7,-32,-22,-6,-3
1529306475616402,-4,-8,-10,-6,19,13,2,-1
1529306475623384,-3,1,5,1,-11,-7,-5,-3
1529306475623384,0,4,1,-1,0,-3,2,3
1529306475630364,1,-4,0,7,7,8,3,2
1529306475630364,2,1,-1,-5,-3,-1,-2,-1
1529306475639341,0,-1,-4,-7,-13,-13,-4,0
1529306475639341,1,4,2,8,11,13,1,-3
1529306475653303,2,2,2,-2,8,2,1,0
1529306475653303,-1,-4,-2,2,8,0,2,1
1529306475662281,-3,-4,0,-2,-8,-4,-1,-3
1529306475662281,1,4,0,-5,-12,-10,-4,-2
1529306475677240,1,4,4,7,6,6,0,1
1529306475677240,1,1,1,4,19,12,2,2
1529306475683225,0,2,2,-2,-12,-11,-5,-2
1529306475683225,0,-2,-1,-3,-5,2,1,-1
1529306475691444,-3,-1,-3,2,10,5,2,-1
1529306475691444,-4,-3,-4,-8,-10,-7,-4,-2
1529306475700178,3,4,3,8,13,6,2,1
1529306475700178,-2,-4,-3,-6,-12,-6,-1,-3
1529306475713438,3,2,2,2,1,-1,0,1
1529306475713438,-5,-7,-8,-6,-4,-2,-2,-1
1529306475722148,0,-1,-2,1,1,3,0,0
1529306475722148,-2,-2,-3,-2,-2,5,0,-1
1529306475736161,-1,2,6,3,1,-3,-1,-3
1529306475736161,-1,-3,-7,-4,0,-2,1,-1
1529306475743172,3,5,8,8,9,5,4,1
1529306475743172,1,5,4,2,-7,-8,-2,-1
1529306475751084,0,-1,-4,-4,1,3,0,-1
1529306475751084,-3,-7,-3,-3,-3,4,0,-1
1529306475767030,0,4,2,1,5,4,1,2
1529306475767030,1,-3,-4,2,-3,-3,1,0
1529306475773045,-3,-3,0,-1,-5,-9,-3,-2
1529306475773045,-2,-4,-6,1,13,14,0,-2
1529306475781990,-2,-4,-4,-4,-6,-3,0,-2
1529306475781990,-3,-3,-6,-5,-2,-4,-4,-2
1529306475795997,-1,0,2,4,1,-4,-1,-1
1529306475795997,-4,-3,-3,-5,-8,-6,-3,-2
1529306475804929,-1,-8,-6,5,2,0,-1,-2
1529306475804929,4,11,9,3,4,5,1,2
1529306475810918,-2,-4,-6,-3,4,2,0,-1
1529306475810918,-1,-2,-5,-2,-5,-4,-1,-1
1529306475819888,-1,3,7,3,0,-2,0,-1
1529306475819888,-3,-1,-1,-2,-1,-1,0,-3
1529306475832906,-1,0,-1,0,4,5,-1,1
1529306475832906,-2,-2,-1,-4,-4,-5,-1,0
1529306475841884,2,4,5,0,-2,0,1,0
1529306475841884,-4,-10,-14,1,-3,-2,-2,-2
1529306475856845,0,-3,5,1,5,5,2,0
1529306475856845,6,14,12,1,-7,-2,1,2
1529306475858796,-2,-7,-10,-10,-14,-13,-5,-4
1529306475858796,-1,-1,1,-1,3,5,1,-1
1529306475870803,-2,-3,-1,0,-4,-6,-1,0
1529306475870803,-1,-1,-1,3,1,-6,-2,-1
1529306475879730,-1,-2,-8,-5,0,-1,2,0
1529306475879730,-1,-2,0,-5,-5,-3,0,-1
1529306475893691,0,-1,1,6,0,3,1,1
1529306475893691,1,0,2,0,-3,-5,-3,0
1529306475902667,2,6,3,2,2,3,0,-2
1529306475902667,-1,-2,1,1,-1,-2,-1,0
1529306475916686,0,-6,-8,-7,3,1,1,-1
1529306475916686,1,0,-2,-2,0,5,0,0
1529306475923666,-1,3,8,8,6,6,-1,-1
1529306475923666,2,0,4,1,0,-2,0,-1
1529306475930648,-2,-4,-9,-6,-3,-1,-1,-3
1529306475930648,-1,-1,1,0,-2,-1,1,-1
1529306475939569,-3,-7,-12,-8,-2,-6,-1,-2
1529306475939569,-2,-5,0,0,-5,-4,-2,0
1529306475953587,2,13,10,3,12,14,3,3
1529306475953587,-1,-3,-6,1,5,1,0,0
1529306475962509,-3,-6,-8,-4,-2,1,-3,-2
1529306475962509,2,5,6,5,4,2,-1,0
1529306475977529,-1,3,7,0,-6,-4,-2,-1
1529306475977529,-4,-7,-7,-6,-1,0,-1,-3
1529306475978466,5,11,16,7,1,0,1,2
1529306475978466,-2,-2,-12,-10,-3,-2,-3,-2
1529306475990485,0,-3,0,2,1,0,1,0
1529306475990485,1,1,1,-3,-1,2,0,0
1529306475999485,1,3,6,6,-2,-5,-2,-1
1529306475999485,-1,-4,1,2,6,7,2,0
1529306476013426,1,7,3,2,0,-3,0,-1
1529306476013426,-4,-5,-6,-5,0,2,0,-2
1529306476022347,-6,-10,-10,-12,-3,-4,-3,-3
1529306476022347,3,2,10,9,-2,-4,-1,2
1529306476037362,0,-2,-5,-3,1,2,1,2
1529306476037362,-1,-1,0,3,5,4,-1,0
1529306476038359,3,6,1,-2,-11,-7,-1,2
1529306476038359,0,3,1,0,12,8,2,0
1529306476050328,-2,-1,1,-3,-2,-4,-4,-2
1529306476050328,-1,-3,-2,1,-7,-6,-1,-2
1529306476060246,-3,-4,-5,-2,6,6,0,0
1529306476060246,2,6,5,4,-4,-6,-1,-1
1529306476073481,-1,-4,-4,-2,1,2,-1,-1
1529306476073481,0,3,1,4,1,1,2,-1
1529306476082531,-1,-5,-1,-1,0,-1,-2,-1
1529306476082531,-1,-3,-9,-7,-4,-2,-1,0
1529306476097702,-5,-5,-4,-1,-3,-1,-2,-5
1529306476097702,4,6,8,3,-1,-2,2,3
1529306476098658,0,6,3,4,5,3,3,3
1529306476098658,-1,-2,-1,-3,-3,-1,1,0
1529306476110424,-1,-4,-6,-7,-2,-4,-1,-1
1529306476110424,-3,-3,-3,3,-3,-1,-1,-3
1529306476119431,-2,-5,-4,0,2,3,2,-1
1529306476119431,-2,-5,-3,-2,-2,0,-1,0
1529306476133663,2,2,-1,1,0,-1,0,1
1529306476133663,-2,0,-1,-3,-2,-3,-1,-3
1529306476142900,-1,-2,-5,-1,0,2,0,0
1529306476142900,-3,-4,-5,-4,-4,-4,-1,-2
1529306476157187,0,-1,0,1,-2,-2,-3,-2
1529306476157187,2,3,4,-1,-1,-4,-1,0
1529306476164122,-4,-3,-5,-3,-2,0,1,-3
1529306476164122,-3,-8,-3,-3,-1,0,0,-1
1529306476170879,4,10,7,3,2,0,2,2
1529306476170879,1,1,0,-1,2,1,0,-1
1529306476179876,-1,-1,2,2,1,-1,1,1
1529306476179876,-3,-2,-3,-2,-2,-2,-3,-4
1529306476193877,-1,-6,-4,0,-1,-3,-1,-1
1529306476193877,1,4,8,1,0,1,-2,2
1529306476201961,-1,-1,-3,-3,-2,0,-2,-1
1529306476201961,0,2,1,-1,-2,-1,0,0
1529306476217280,0,-1,-2,1,0,0,0,-3
1529306476217280,1,-2,-6,-3,-1,0,0,0
1529306476223460,-1,-5,-6,-3,2,-1,-2,-1
1529306476223460,2,6,5,3,1,1,0,-1
1529306476231499,-1,3,4,1,0,0,0,1
1529306476231499,-2,-1,-3,-2,-1,-2,0,0
1529306476239697,0,2,0,-1,-2,-2,-2,-1
1529306476239697,-4,-7,-5,-4,-2,0,-1,0
1529306476253726,2,0,-1,-2,-2,1,-2,0
1529306476253726,2,2,3,4,1,1,-1,0
1529306476262704,-3,-3,0,-1,1,-1,-1,-1
1529306476262704,-1,-4,-2,0,0,-2,0,1
1529306476277018,1,1,4,1,0,0,1,-1
1529306476277018,-3,-2,1,-2,-1,-1,-2,-1
1529306476283987,1,0,1,1,-3,-1,0,-2
1529306476283987,-2,0,-3,-2,-1,0,-1,-3
1529306476290896,-4,-4,-3,0,0,0,1,1
1529306476290896,1,-1,0,0,-2,0,1,0
1529306476299872,1,0,1,0,1,0,-2,2
1529306476299872,2,1,3,1,0,0,-1,0
1529306476313977,-3,-3,-3,-3,-1,0,0,0
1529306476313977,0,0,0,0,-1,-1,-2,-2
1529306476322985,-1,-3,-1,-1,-3,-1,-1,0
1529306476322985,1,1,2,-1,1,1,1,-1
1529306476337033,0,-1,-1,-1,-2,0,-1,-1
1529306476337033,-2,-4,-3,-1,0,1,-1,-1
1529306476343019,0,0,2,-1,0,2,-1,-1
1529306476343019,0,1,-2,-1,0,-1,-3,-1
1529306476360296,-2,-1,-2,-1,0,0,0,0
1529306476360296,-2,-2,-3,-1,-2,0,1,0
1529306476361015,-3,-3,-2,-1,-1,1,0,0
1529306476361015,0,-1,1,0,1,0,0,0
1529306476382691,0,-2,-1,0,1,0,-1,0
1529306476382691,-1,-2,1,1,-2,-1,-3,-1
1529306476383336,-1,-1,0,0,-1,-1,-1,-1
1529306476383336,-1,1,0,-1,-1,-2,0,-2
1529306476397012,-1,-1,-3,-1,-1,-1,-1,-1
1529306476397012,0,-2,-1,-4,-1,-1,1,-1
1529306476403319,2,0,0,0,0,1,-1,-1
1529306476403319,-2,-2,1,0,0,1,1,2
1529306476419334,-1,-1,-1,0,-2,-2,0,-1
1529306476419334,1,1,-2,0,1,-2,-2,-1
1529306476421329,-1,0,0,1,1,-2,-1,-1
1529306476421329,0,-1,-2,-2,-1,-1,-1,0
1529306476434089,-1,-1,0,0,0,0,0,-1
1529306476434089,-2,-2,-3,0,-2,0,0,0
1529306476442723,1,-1,1,0,0,1,0,0
1529306476442723,-1,0,-1,1,0,0,-1,0
1529306476456946,-1,-2,0,-2,-1,-3,1,0
1529306476456946,-2,0,1,-2,0,-1,0,-1
1529306476463934,-2,-2,-1,1,-1,-1,1,-2
1529306476463934,0,-1,-2,-2,-1,-1,0,-2
1529306476479948,1,-2,1,-1,-1,-1,-2,-2
1529306476479948,1,-1,-3,0,-2,-1,-3,1
1529306476480942,1,0,-2,0,-2,-2,0,-1
1529306476480942,-1,-2,-1,0,-2,0,-2,0
1529306476493387,-1,-1,-1,-1,0,0,-1,0
1529306476493387,0,-1,-1,0,-1,0,0,-1
1529306476502367,-2,-1,0,0,0,-1,-2,-1
1529306476502367,0,1,0,0,-1,-3,0,1
1529306476516330,0,0,-2,-2,-1,-2,-1,-1
1529306476516330,0,-2,-1,-1,-1,0,1,-1
1529306476523311,0,-2,1,-1,1,1,-1,-2
1529306476523311,0,-1,0,-1,-1,-1,0,-2
1529306476540190,-1,0,-1,1,0,-1,-1,-2
1529306476540190,1,-1,0,0,0,0,-2,0
1529306476542049,0,0,-2,0,-1,0,0,0
1529306476542049,0,1,-1,0,-1,0,0,-1
1529306476553984,-2,0,0,-1,-1,0,-1,0
1529306476553984,-1,-1,0,-2,0,-1,0,0
1529306476562714,0,0,0,-2,-1,-1,-2,0
1529306476562714,-1,0,-1,0,-1,-1,-1,-2
1529306476577674,-2,0,0,0,0,-1,0,1
1529306476577674,-1,0,-1,0,1,0,1,-1
1529306476583703,-1,-1,0,0,-3,-2,-1,-1
1529306476583703,1,0,-1,1,-1,-2,0,-1
1529306476600205,-1,-1,-1,0,0,0,0,-2
1529306476600205,-1,-1,-1,-1,-1,-1,-2,-1
1529306476601183,1,-1,-1,-2,0,-1,0,-1
1529306476601183,-1,0,-1,0,-1,-1,0,-1
1529306476613466,-1,0,0,0,-1,0,-1,1
1529306476613466,-1,-2,0,0,-1,-1,0,0
1529306476622209,0,2,-1,0,0,-1,0,-1
1529306476622209,-1,-3,-1,-2,0,-2,-1,0
1529306476636722,0,-2,-1,-1,-1,1,0,0
1529306476636722,0,1,-1,0,-4,-1,-1,-1
1529306476643603,-1,0,-1,0,-2,0,0,-2
1529306476643603,0,-1,-1,0,0,1,0,0
1529306476659608,0,-1,-2,0,-1,1,0,-1
1529306476659608,0,-1,0,-1,0,0,-1,-1
1529306476661605,-1,0,0,-1,1,0,-1,0
1529306476661605,0,-1,-3,-1,0,-1,-1,-2
1529306476673835,0,0,-1,-2,-1,-1,-1,-2
1529306476673835,0,0,-1,2,-1,-1,0,1
1529306476682549,-2,-1,-1,0,-2,-1,1,0
1529306476682549,-1,0,1,-1,-2,-1,1,0
1529306476696772,0,0,-1,0,-1,-1,0,1
1529306476696772,-1,0,0,-1,0,-1,-2,0
1529306476703493,1,0,0,0,0,0,0,-1
1529306476703493,-2,1,0,-1,1,0,0,0
1529306476719450,-1,-1,0,0,-1,-1,1,0
1529306476719450,0,2,-1,-1,0,-1,0,-1
1529306476721445,0,-3,-2,0,-1,-1,0,-1
1529306476721445,1,-1,-2,0,-1,-2,-1,-1
1529306476733649,-1,1,-1,-1,-1,0,-1,-1
1529306476733649,-2,-2,-2,-1,-1,-1,-1,1
1529306476742389,1,-1,-1,0,-1,-1,0,0
1529306476742389,-1,-2,0,-1,-2,-3,-3,0
1529306476756583,0,-1,-1,0,-1,-1,0,-1
1529306476756583,0,-1,-2,-2,-1,0,2,0
1529306476763339,-2,-1,0,-1,-1,1,0,0
1529306476763339,-2,1,1,-1,0,0,0,-3
1529306476779988,0,0,-1,1,0,-2,-2,-1
1529306476779988,0,-2,-1,-1,1,-1,-2,1
1529306476781739,-1,-1,-2,-1,-1,-1,-1,0
1529306476781739,1,0,0,-1,-1,0,-1,-1
1529306476793756,0,-1,-2,-1,0,0,0,-1
1529306476793756,-1,1,-2,0,0,1,1,-2
1529306476802971,0,-1,2,-2,1,1,1,-1
1529306476802971,-1,-1,-1,-2,-1,-1,0,1
